
0   3   6
   0.0000000e+00	  -2.4265162e-01	   2.1949418e-01	
   5.5000000e-02	  -2.3838864e-01	   2.1363431e-01	
   1.1000000e-01	  -2.3396291e-01	   2.0695328e-01	
   1.6500000e-01	  -2.2922837e-01	   1.9967631e-01	
   2.2000000e-01	  -2.2406147e-01	   1.9201692e-01	
   2.7500000e-01	  -2.1837491e-01	   1.8416373e-01	
   3.3000000e-01	  -2.1212922e-01	   1.7627086e-01	
   3.8500000e-01	  -2.0533733e-01	   1.6845478e-01	
   4.4000000e-01	  -1.9805908e-01	   1.6079852e-01	
   4.9500000e-01	  -1.9038740e-01	   1.5336112e-01	
   5.5000000e-01	  -1.8243242e-01	   1.4618846e-01	
   6.0500000e-01	  -1.7430882e-01	   1.3932237e-01	
   6.6000000e-01	  -1.6612845e-01	   1.3280626e-01	
   7.1500000e-01	  -1.5799723e-01	   1.2668692e-01	
   7.7000000e-01	  -1.5001442e-01	   1.2101305e-01	
   8.2500000e-01	  -1.4227119e-01	   1.1583198e-01	
   8.8000000e-01	  -1.3484636e-01	   1.1118569e-01	
   9.3500000e-01	  -1.2780013e-01	   1.0710691e-01	
   9.9000000e-01	  -1.2116695e-01	   1.0361660e-01	
   1.0450000e+00	  -1.1494782e-01	   1.0072354e-01	
   1.1000000e+00	  -1.0910402e-01	   9.8426420e-02	
   1.1550000e+00	  -1.0355733e-01	   9.6716454e-02	
   1.2100000e+00	  -9.8199464e-02	   9.5579629e-02	
   1.2650000e+00	  -9.2907496e-02	   9.4997834e-02	
   1.3200000e+00	  -8.7558921e-02	   9.4948559e-02	
   1.3750000e+00	  -8.2044370e-02	   9.5402208e-02	
   1.4300000e+00	  -7.6278931e-02	   9.6317183e-02	
   1.4850000e+00	  -7.0211708e-02	   9.7634665e-02	
   1.5400000e+00	  -6.3831179e-02	   9.9275210e-02	
   1.5950000e+00	  -5.7164693e-02	   1.0113817e-01	
   1.6500000e+00	  -5.0273053e-02	   1.0310442e-01	
   1.7050000e+00	  -4.3242727e-02	   1.0504293e-01	
   1.7600000e+00	  -3.6177555e-02	   1.0682035e-01	
   1.8150000e+00	  -2.9190217e-02	   1.0831173e-01	
   1.8700000e+00	  -2.2393900e-02	   1.0940981e-01	
   1.9250000e+00	  -1.5896107e-02	   1.1003117e-01	
   1.9800000e+00	  -9.7967532e-03	   1.1011917e-01	
   2.0350000e+00	  -4.1909807e-03	   1.0964392e-01	
   2.0900000e+00	   8.2520553e-04	   1.0860005e-01	
   2.1450000e+00	   5.1500523e-03	   1.0700307e-01	
   2.2000000e+00	   8.6754253e-03	   1.0488622e-01	
   2.2550000e+00	   1.1291939e-02	   1.0229947e-01	
   2.3100000e+00	   1.2898296e-02	   9.9310738e-02	
   2.3650000e+00	   1.3411364e-02	   9.6006916e-02	
   2.4200000e+00	   1.2774080e-02	   9.2492090e-02	
   2.4750000e+00	   1.0959533e-02	   8.8881965e-02	
   2.5300000e+00	   7.9698953e-03	   8.5294981e-02	
   2.5850000e+00	   3.8294303e-03	   8.1841600e-02	
   2.6400000e+00	  -1.4267573e-03	   7.8613879e-02	
   2.6950000e+00	  -7.7641047e-03	   7.5677327e-02	
   2.7500000e+00	  -1.5156460e-02	   7.3065898e-02	
   2.8050000e+00	  -2.3589092e-02	   7.0780344e-02	
   2.8600000e+00	  -3.3056373e-02	   6.8790899e-02	
   2.9150000e+00	  -4.3553968e-02	   6.7045140e-02	
   2.9700000e+00	  -5.5067555e-02	   6.5479413e-02	
   3.0250000e+00	  -6.7562167e-02	   6.4030085e-02	
   3.0800000e+00	  -8.0974943e-02	   6.2641572e-02	
   3.1350000e+00	  -9.5211385e-02	   6.1270081e-02	
   3.1900000e+00	  -1.1014504e-01	   5.9883051e-02	
   3.2450000e+00	  -1.2562241e-01	   5.8454804e-02	
   3.3000000e+00	  -1.4147415e-01	   5.6959926e-02	
   3.3550000e+00	  -1.5752955e-01	   5.5366850e-02	
   3.4100000e+00	  -1.7363036e-01	   5.3633975e-02	
   3.4650000e+00	  -1.8964060e-01	   5.1710071e-02	
   3.5200000e+00	  -2.0544929e-01	   4.9539772e-02	
   3.5750000e+00	  -2.2096421e-01	   4.7073276e-02	
   3.6300000e+00	  -2.3609937e-01	   4.4277218e-02	
   3.6850000e+00	  -2.5076331e-01	   4.1142815e-02	
   3.7400000e+00	  -2.6485331e-01	   3.7688769e-02	
   3.7950000e+00	  -2.7825586e-01	   3.3958907e-02	
   3.8500000e+00	  -2.9085069e-01	   3.0016185e-02	
   3.9050000e+00	  -3.0251683e-01	   2.5934715e-02	
   3.9600000e+00	  -3.1314027e-01	   2.1791088e-02	
   4.0150000e+00	  -3.2262100e-01	   1.7656430e-02	
   4.0700000e+00	  -3.3087673e-01	   1.3590481e-02	
   4.1250000e+00	  -3.3784318e-01	   9.6384362e-03	
   4.1800000e+00	  -3.4347292e-01	   5.8312390e-03	
   4.2350000e+00	  -3.4773356e-01	   2.1897182e-03	
   4.2900000e+00	  -3.5060534e-01	  -1.2687878e-03	
   4.3450000e+00	  -3.5207923e-01	  -4.5243689e-03	
   4.4000000e+00	  -3.5215736e-01	  -7.5513075e-03	
   4.4550000e+00	  -3.5085692e-01	  -1.0317667e-02	
   4.5100000e+00	  -3.4821742e-01	  -1.2786599e-02	
   4.5650000e+00	  -3.4430937e-01	  -1.4918655e-02	
   4.6200000e+00	  -3.3924174e-01	  -1.6674699e-02	
   4.6750000e+00	  -3.3316464e-01	  -1.8018458e-02	
   4.7300000e+00	  -3.2626356e-01	  -1.8917070e-02	
   4.7850000e+00	  -3.1874452e-01	  -1.9338723e-02	
   4.8400000e+00	  -3.1081456e-01	  -1.9248745e-02	
   4.8950000e+00	  -3.0266445e-01	  -1.8606874e-02	
   4.9500000e+00	  -2.9445696e-01	  -1.7367389e-02	
   5.0050000e+00	  -2.8631957e-01	  -1.5482035e-02	
   5.0600000e+00	  -2.7834080e-01	  -1.2905433e-02	
   5.1150000e+00	  -2.7057132e-01	  -9.6028121e-03	
   5.1700000e+00	  -2.6303033e-01	  -5.5588091e-03	
   5.2250000e+00	  -2.5571584e-01	  -7.8486383e-04	
   5.2800000e+00	  -2.4861575e-01	   4.6770488e-03	
   5.3350000e+00	  -2.4171631e-01	   1.0755328e-02	
   5.3900000e+00	  -2.3500551e-01	   1.7354307e-02	
   5.4450000e+00	  -2.2847168e-01	   2.4363537e-02	
   5.5000000e+00	  -2.2209992e-01	   3.1668295e-02	
   5.5550000e+00	  -2.1587002e-01	   3.9158024e-02	
   5.6100000e+00	  -2.0975851e-01	   4.6730950e-02	
   5.6650000e+00	  -2.0374560e-01	   5.4295585e-02	
   5.7200000e+00	  -1.9782506e-01	   6.1770416e-02	
   5.7750000e+00	  -1.9201383e-01	   6.9082169e-02	
   5.8300000e+00	  -1.8635921e-01	   7.6163117e-02	
   5.8850000e+00	  -1.8094099e-01	   8.2948880e-02	
   5.9400000e+00	  -1.7586710e-01	   8.9378240e-02	
   5.9950000e+00	  -1.7126279e-01	   9.5395375e-02	
   6.0500000e+00	  -1.6725594e-01	   1.0095362e-01	
   6.1050000e+00	  -1.6396256e-01	   1.0601923e-01	
   6.1600000e+00	  -1.6147549e-01	   1.1057386e-01	
   6.2150000e+00	  -1.5985815e-01	   1.1461534e-01	
   6.2700000e+00	  -1.5914451e-01	   1.1815608e-01	
   6.3250000e+00	  -1.5934597e-01	   1.2121940e-01	
   6.3800000e+00	  -1.6046351e-01	   1.2383455e-01	
   6.4350000e+00	  -1.6250155e-01	   1.2603160e-01	
   6.4900000e+00	  -1.6548081e-01	   1.2783630e-01	
   6.5450000e+00	  -1.6944781e-01	   1.2926573e-01	
   6.6000000e+00	  -1.7447687e-01	   1.3032715e-01	
   6.6550000e+00	  -1.8066074e-01	   1.3102189e-01	
   6.7100000e+00	  -1.8809139e-01	   1.3135281e-01	
   6.7650000e+00	  -1.9683799e-01	   1.3133191e-01	
   6.8200000e+00	  -2.0692828e-01	   1.3098528e-01	
   6.8750000e+00	  -2.1833675e-01	   1.3035433e-01	
   6.9300000e+00	  -2.3098158e-01	   1.2949304e-01	
   6.9850000e+00	  -2.4473022e-01	   1.2846237e-01	
   7.0400000e+00	  -2.5941130e-01	   1.2732300e-01	
   7.0950000e+00	  -2.7482917e-01	   1.2612852e-01	
   7.1500000e+00	  -2.9077875e-01	   1.2491971e-01	
   7.2050000e+00	  -3.0705937e-01	   1.2372137e-01	
   7.2600000e+00	  -3.2348553e-01	   1.2254265e-01	
   7.3150000e+00	  -3.3989148e-01	   1.2138184e-01	
   7.3700000e+00	  -3.5612832e-01	   1.2023391e-01	
   7.4250000e+00	  -3.7205800e-01	   1.1909735e-01	
   7.4800000e+00	  -3.8755122e-01	   1.1797749e-01	
   7.5350000e+00	  -4.0249167e-01	   1.1688633e-01	
   7.5900000e+00	  -4.1678489e-01	   1.1584032e-01	
   7.6450000e+00	  -4.3036955e-01	   1.1485670e-01	
   7.7000000e+00	  -4.4322966e-01	   1.1394806e-01	
   7.7550000e+00	  -4.5540359e-01	   1.1311680e-01	
   7.8100000e+00	  -4.6698560e-01	   1.1235156e-01	
   7.8650000e+00	  -4.7811745e-01	   1.1162670e-01	
   7.9200000e+00	  -4.8897126e-01	   1.1090472e-01	
   7.9750000e+00	  -4.9972697e-01	   1.1014065e-01	
   8.0300000e+00	  -5.1054982e-01	   1.0928709e-01	
   8.0850000e+00	  -5.2157316e-01	   1.0829870e-01	
   8.1400000e+00	  -5.3288978e-01	   1.0713598e-01	
   8.1950000e+00	  -5.4455259e-01	   1.0576862e-01	
   8.2500000e+00	  -5.5658419e-01	   1.0417816e-01	
   8.3050000e+00	  -5.6899227e-01	   1.0235866e-01	
   8.3600000e+00	  -5.8178565e-01	   1.0031515e-01	
   8.4150000e+00	  -5.9498353e-01	   9.8061370e-02	
   8.4700000e+00	  -6.0861289e-01	   9.5619734e-02	
   8.5250000e+00	  -6.2269448e-01	   9.3024864e-02	
   8.5800000e+00	  -6.3722539e-01	   9.0329234e-02	
   8.6350000e+00	  -6.5216626e-01	   8.7607788e-02	
   8.6900000e+00	  -6.6743723e-01	   8.4959777e-02	
   8.7450000e+00	  -6.8292210e-01	   8.2507488e-02	
   8.8000000e+00	  -6.9847842e-01	   8.0391393e-02	
   8.8550000e+00	  -7.1394970e-01	   7.8761012e-02	
   8.9100000e+00	  -7.2917658e-01	   7.7762010e-02	
   8.9650000e+00	  -7.4400563e-01	   7.7522025e-02	
   9.0200000e+00	  -7.5829588e-01	   7.8138500e-02	
   9.0750000e+00	  -7.7192294e-01	   7.9671328e-02	
   9.1300000e+00	  -7.8477959e-01	   8.2142061e-02	
   9.1850000e+00	  -7.9677132e-01	   8.5539121e-02	
   9.2400000e+00	  -8.0780857e-01	   8.9825553e-02	
   9.2950000e+00	  -8.1779975e-01	   9.4945594e-02	
   9.3500000e+00	  -8.2664821e-01	   1.0082897e-01	
   9.4050000e+00	  -8.3425398e-01	   1.0739404e-01	
   9.4600000e+00	  -8.4052025e-01	   1.1455035e-01	
   9.5150000e+00	  -8.4536374e-01	   1.2219983e-01	
   9.5700000e+00	  -8.4872789e-01	   1.3023554e-01	
   9.6250000e+00	  -8.5059656e-01	   1.3853908e-01	
   9.6800000e+00	  -8.5100518e-01	   1.4697850e-01	
   9.7350000e+00	  -8.5004665e-01	   1.5540963e-01	
   9.7900000e+00	  -8.4787093e-01	   1.6368207e-01	
   9.8450000e+00	  -8.4467863e-01	   1.7164902e-01	
   9.9000000e+00	  -8.4070998e-01	   1.7917781e-01	
   9.9550000e+00	  -8.3623186e-01	   1.8615691e-01	
   1.0010000e+01	  -8.3152574e-01	   1.9249790e-01	
   1.0065000e+01	  -8.2687805e-01	   1.9813326e-01	
   1.0120000e+01	  -8.2257271e-01	   2.0301232e-01	
   1.0175000e+01	  -8.1888560e-01	   2.0709674e-01	
   1.0230000e+01	  -8.1608045e-01	   2.1035599e-01	
   1.0285000e+01	  -8.1440441e-01	   2.1276358e-01	
   1.0340000e+01	  -8.1408150e-01	   2.1429624e-01	
   1.0395000e+01	  -8.1530340e-01	   2.1493701e-01	
   1.0450000e+01	  -8.1821984e-01	   2.1468115e-01	
   1.0505000e+01	  -8.2293189e-01	   2.1354183e-01	
   1.0560000e+01	  -8.2948933e-01	   2.1155332e-01	
   1.0615000e+01	  -8.3789275e-01	   2.0877083e-01	
   1.0670000e+01	  -8.4810091e-01	   2.0526746e-01	
   1.0725000e+01	  -8.6004189e-01	   2.0112905e-01	
   1.0780000e+01	  -8.7362475e-01	   1.9644800e-01	
   1.0835000e+01	  -8.8874807e-01	   1.9131661e-01	
   1.0890000e+01	  -9.0530371e-01	   1.8582020e-01	
   1.0945000e+01	  -9.2317589e-01	   1.8003110e-01	
   1.1000000e+01	  -9.4223655e-01	   1.7400524e-01	
   1.1055000e+01	  -9.6233864e-01	   1.6778278e-01	
   1.1110000e+01	  -9.8331022e-01	   1.6139263e-01	
   1.1165000e+01	  -1.0049514e+00	   1.5485837e-01	
   1.1220000e+01	  -1.0270335e+00	   1.4820341e-01	
   1.1275000e+01	  -1.0492997e+00	   1.4145431e-01	
   1.1330000e+01	  -1.0714665e+00	   1.3464221e-01	
   1.1385000e+01	  -1.0932312e+00	   1.2780254e-01	
   1.1440000e+01	  -1.1142870e+00	   1.2097359e-01	
   1.1495000e+01	  -1.1343430e+00	   1.1419446e-01	
   1.1550000e+01	  -1.1531426e+00	   1.0750293e-01	
   1.1605000e+01	  -1.1704764e+00	   1.0093301e-01	
   1.1660000e+01	  -1.1861855e+00	   9.4512996e-02	
   1.1715000e+01	  -1.2001548e+00	   8.8265528e-02	
   1.1770000e+01	  -1.2123022e+00	   8.2209813e-02	
   1.1825000e+01	  -1.2225682e+00	   7.6364407e-02	
   1.1880000e+01	  -1.2309124e+00	   7.0748750e-02	
   1.1935000e+01	  -1.2373180e+00	   6.5382810e-02	
   1.1990000e+01	  -1.2418006e+00	   6.0284882e-02	
   1.2045000e+01	  -1.2444187e+00	   5.5467745e-02	
   1.2100000e+01	  -1.2452820e+00	   5.0934272e-02	
   1.2155000e+01	  -1.2445563e+00	   4.6674346e-02	
   1.2210000e+01	  -1.2424640e+00	   4.2664340e-02	
   1.2265000e+01	  -1.2392768e+00	   3.8869047e-02	
   1.2320000e+01	  -1.2353006e+00	   3.5245280e-02	
   1.2375000e+01	  -1.2308520e+00	   3.1746066e-02	
   1.2430000e+01	  -1.2262321e+00	   2.8324398e-02	
   1.2485000e+01	  -1.2217027e+00	   2.4935956e-02	
   1.2540000e+01	  -1.2174657e+00	   2.1540510e-02	
   1.2595000e+01	  -1.2136497e+00	   1.8101960e-02	
   1.2650000e+01	  -1.2103040e+00	   1.4587387e-02	
   1.2705000e+01	  -1.2074014e+00	   1.0965257e-02	
   1.2760000e+01	  -1.2048515e+00	   7.2024788e-03	
   1.2815000e+01	  -1.2025185e+00	   3.2609517e-03	
   1.2870000e+01	  -1.2002391e+00	  -9.0415502e-04	
   1.2925000e+01	  -1.1978339e+00	  -5.3423330e-03	
   1.2980000e+01	  -1.1951121e+00	  -1.0101892e-02	
   1.3035000e+01	  -1.1918713e+00	  -1.5222310e-02	
   1.3090000e+01	  -1.1878977e+00	  -2.0727392e-02	
   1.3145000e+01	  -1.1829700e+00	  -2.6621592e-02	
   1.3200000e+01	  -1.1768708e+00	  -3.2890985e-02	
   1.3255000e+01	  -1.1694050e+00	  -3.9508740e-02	
   1.3310000e+01	  -1.1604215e+00	  -4.6443238e-02	
   1.3365000e+01	  -1.1498332e+00	  -5.3666700e-02	
   1.3420000e+01	  -1.1376346e+00	  -6.1163115e-02	
   1.3475000e+01	  -1.1239143e+00	  -6.8935056e-02	
   1.3530000e+01	  -1.1088584e+00	  -7.7008635e-02	
   1.3585000e+01	  -1.0927418e+00	  -8.5434803e-02	
   1.3640000e+01	  -1.0759064e+00	  -9.4285234e-02	
   1.3695000e+01	  -1.0587318e+00	  -1.0364303e-01	
   1.3750000e+01	  -1.0416077e+00	  -1.1359048e-01	
   1.3805000e+01	  -1.0249117e+00	  -1.2419651e-01	
   1.3860000e+01	  -1.0089912e+00	  -1.3550592e-01	
   1.3915000e+01	  -9.9415203e-01	  -1.4753283e-01	
   1.3970000e+01	  -9.8065338e-01	  -1.6025999e-01	
   1.4025000e+01	  -9.6870845e-01	  -1.7364376e-01	
   1.4080000e+01	  -9.5848832e-01	  -1.8762292e-01	
   1.4135000e+01	  -9.5012721e-01	  -2.0212893e-01	
   1.4190000e+01	  -9.4372768e-01	  -2.1709493e-01	
   1.4245000e+01	  -9.3936428e-01	  -2.3246108e-01	
   1.4300000e+01	  -9.3708337e-01	  -2.4817520e-01	
   1.4355000e+01	  -9.3689810e-01	  -2.6418972e-01	
   1.4410000e+01	  -9.3877950e-01	  -2.8045681e-01	
   1.4465000e+01	  -9.4264573e-01	  -2.9692318e-01	
   1.4520000e+01	  -9.4835333e-01	  -3.1352624e-01	
   1.4575000e+01	  -9.5569591e-01	  -3.3019308e-01	
   1.4630000e+01	  -9.6441335e-01	  -3.4684349e-01	
   1.4685000e+01	  -9.7420939e-01	  -3.6339575e-01	
   1.4740000e+01	  -9.8477191e-01	  -3.7977331e-01	
   1.4795000e+01	  -9.9579049e-01	  -3.9591057e-01	
   1.4850000e+01	  -1.0069689e+00	  -4.1175690e-01	
   1.4905000e+01	  -1.0180320e+00	  -4.2727813e-01	
   1.4960000e+01	  -1.0287261e+00	  -4.4245474e-01	
   1.5015000e+01	  -1.0388162e+00	  -4.5727754e-01	
   1.5070000e+01	  -1.0480820e+00	  -4.7174297e-01	
   1.5125000e+01	  -1.0563183e+00	  -4.8585012e-01	
   1.5180000e+01	  -1.0633376e+00	  -4.9960019e-01	
   1.5235000e+01	  -1.0689751e+00	  -5.1299731e-01	
   1.5290000e+01	  -1.0730932e+00	  -5.2604995e-01	
   1.5345000e+01	  -1.0755874e+00	  -5.3877330e-01	
   1.5400000e+01	  -1.0763898e+00	  -5.5119276e-01	
   1.5455000e+01	  -1.0754694e+00	  -5.6334695e-01	
   1.5510000e+01	  -1.0728270e+00	  -5.7528866e-01	
   1.5565000e+01	  -1.0684872e+00	  -5.8708182e-01	
   1.5620000e+01	  -1.0624847e+00	  -5.9879429e-01	
   1.5675000e+01	  -1.0548496e+00	  -6.1048788e-01	
   1.5730000e+01	  -1.0455960e+00	  -6.2220859e-01	
   1.5785000e+01	  -1.0347200e+00	  -6.3398007e-01	
   1.5840000e+01	  -1.0222066e+00	  -6.4580130e-01	
   1.5895000e+01	  -1.0080446e+00	  -6.5764807e-01	
   1.5950000e+01	  -9.9224567e-01	  -6.6947770e-01	
   1.6005000e+01	  -9.7486450e-01	  -6.8123658e-01	
   1.6060000e+01	  -9.5601452e-01	  -6.9286944e-01	
   1.6115000e+01	  -9.3587528e-01	  -7.0432760e-01	
   1.6170000e+01	  -9.1468855e-01	  -7.1557332e-01	
   1.6225000e+01	  -8.9274299e-01	  -7.2657922e-01	
   1.6280000e+01	  -8.7035187e-01	  -7.3732382e-01	
   1.6335000e+01	  -8.4783096e-01	  -7.4778532e-01	
   1.6390000e+01	  -8.2548166e-01	  -7.5793600e-01	
   1.6445000e+01	  -8.0358042e-01	  -7.6773948e-01	
   1.6500000e+01	  -7.8237429e-01	  -7.7715252e-01	
   1.6555000e+01	  -7.6208294e-01	  -7.8613078e-01	
   1.6610000e+01	  -7.4290591e-01	  -7.9463648e-01	
   1.6665000e+01	  -7.2503185e-01	  -8.0264608e-01	
   1.6720000e+01	  -7.0864518e-01	  -8.1015653e-01	
   1.6775000e+01	  -6.9392585e-01	  -8.1718857e-01	
   1.6830000e+01	  -6.8103933e-01	  -8.2378520e-01	
   1.6885000e+01	  -6.7011773e-01	  -8.3000524e-01	
   1.6940000e+01	  -6.6123763e-01	  -8.3591431e-01	
   1.6995000e+01	  -6.5440192e-01	  -8.4157571e-01	
   1.7050000e+01	  -6.4953112e-01	  -8.4704337e-01	
   1.7105000e+01	  -6.4646575e-01	  -8.5235773e-01	
   1.7160000e+01	  -6.4497850e-01	  -8.5754497e-01	
   1.7215000e+01	  -6.4479353e-01	  -8.6261882e-01	
   1.7270000e+01	  -6.4560922e-01	  -8.6758394e-01	
   1.7325000e+01	  -6.4712061e-01	  -8.7243960e-01	
   1.7380000e+01	  -6.4903866e-01	  -8.7718280e-01	
   1.7435000e+01	  -6.5110497e-01	  -8.8181050e-01	
   1.7490000e+01	  -6.5309985e-01	  -8.8632024e-01	
   1.7545000e+01	  -6.5484141e-01	  -8.9070868e-01	
   1.7600000e+01	  -6.5617730e-01	  -8.9496819e-01	
   1.7655000e+01	  -6.5697444e-01	  -8.9908246e-01	
   1.7710000e+01	  -6.5711198e-01	  -9.0302253e-01	
   1.7765000e+01	  -6.5647797e-01	  -9.0674425e-01	
   1.7820000e+01	  -6.5496841e-01	  -9.1018854e-01	
   1.7875000e+01	  -6.5248895e-01	  -9.1328553e-01	
   1.7930000e+01	  -6.4896148e-01	  -9.1596217e-01	
   1.7985000e+01	  -6.4433482e-01	  -9.1815123e-01	
   1.8040000e+01	  -6.3859505e-01	  -9.1979886e-01	
   1.8095000e+01	  -6.3177133e-01	  -9.2086828e-01	
   1.8150000e+01	  -6.2393510e-01	  -9.2133824e-01	
   1.8205000e+01	  -6.1519182e-01	  -9.2119680e-01	
   1.8260000e+01	  -6.0566635e-01	  -9.2043287e-01	
   1.8315000e+01	  -5.9548685e-01	  -9.1902880e-01	
   1.8370000e+01	  -5.8477163e-01	  -9.1695604e-01	
   1.8425000e+01	  -5.7362048e-01	  -9.1417445e-01	
   1.8480000e+01	  -5.6211012e-01	  -9.1063460e-01	
   1.8535000e+01	  -5.5029406e-01	  -9.0628264e-01	
   1.8590000e+01	  -5.3820761e-01	  -9.0106697e-01	
   1.8645000e+01	  -5.2587646e-01	  -8.9494516e-01	
   1.8700000e+01	  -5.1332368e-01	  -8.8788873e-01	
   1.8755000e+01	  -5.0057028e-01	  -8.7988456e-01	
   1.8810000e+01	  -4.8762958e-01	  -8.7093366e-01	
   1.8865000e+01	  -4.7449971e-01	  -8.6104913e-01	
   1.8920000e+01	  -4.6115898e-01	  -8.5025471e-01	
   1.8975000e+01	  -4.4756537e-01	  -8.3858395e-01	
   1.9030000e+01	  -4.3365909e-01	  -8.2608015e-01	
   1.9085000e+01	  -4.1936719e-01	  -8.1279702e-01	
   1.9140000e+01	  -4.0461067e-01	  -7.9879974e-01	
   1.9195000e+01	  -3.8931446e-01	  -7.8416649e-01	
   1.9250000e+01	  -3.7341761e-01	  -7.6898956e-01	
   1.9305000e+01	  -3.5687833e-01	  -7.5337460e-01	
   1.9360000e+01	  -3.3967246e-01	  -7.3743661e-01	
   1.9415000e+01	  -3.2178879e-01	  -7.2129290e-01	
   1.9470000e+01	  -3.0322595e-01	  -7.0505536e-01	
   1.9525000e+01	  -2.8399234e-01	  -6.8882422e-01	
   1.9580000e+01	  -2.6410786e-01	  -6.7268400e-01	
   1.9635000e+01	  -2.4360677e-01	  -6.5670174e-01	
   1.9690000e+01	  -2.2254189e-01	  -6.4092792e-01	
   1.9745000e+01	  -2.0098945e-01	  -6.2540036e-01	
   1.9800000e+01	  -1.7905272e-01	  -6.1015087e-01	
   1.9855000e+01	  -1.5686385e-01	  -5.9521308e-01	
   1.9910000e+01	  -1.3458381e-01	  -5.8062899e-01	
   1.9965000e+01	  -1.1239846e-01	  -5.6645149e-01	
   2.0020000e+01	  -9.0507853e-02	  -5.5274131e-01	
   2.0075000e+01	  -6.9109244e-02	  -5.3955921e-01	
   2.0130000e+01	  -4.8379007e-02	  -5.2695691e-01	
   2.0185000e+01	  -2.8459981e-02	  -5.1497014e-01	
   2.0240000e+01	  -9.4569761e-03	  -5.0361545e-01	
   2.0295000e+01	   8.5607194e-03	  -4.9289033e-01	
   2.0350000e+01	   2.5551409e-02	  -4.8277655e-01	
   2.0405000e+01	   4.1488076e-02	  -4.7324598e-01	
   2.0460000e+01	   5.6342722e-02	  -4.6426757e-01	
   2.0515000e+01	   7.0073712e-02	  -4.5581358e-01	
   2.0570000e+01	   8.2622436e-02	  -4.4786295e-01	
   2.0625000e+01	   9.3922254e-02	  -4.4040013e-01	
   2.0680000e+01	   1.0391798e-01	  -4.3340936e-01	
   2.0735000e+01	   1.1259045e-01	  -4.2686607e-01	
   2.0790000e+01	   1.1997834e-01	  -4.2072876e-01	
   2.0845000e+01	   1.2618974e-01	  -4.1493446e-01	
   2.0900000e+01	   1.3140097e-01	  -4.0939884e-01	
   2.0955000e+01	   1.3584539e-01	  -4.0402100e-01	
   2.1010000e+01	   1.3979568e-01	  -3.9869195e-01	
   2.1065000e+01	   1.4354068e-01	  -3.9330639e-01	
   2.1120000e+01	   1.4735905e-01	  -3.8777660e-01	
   2.1175000e+01	   1.5149427e-01	  -3.8204532e-01	
   2.1230000e+01	   1.5613737e-01	  -3.7609374e-01	
   2.1285000e+01	   1.6142040e-01	  -3.6994240e-01	
   2.1340000e+01	   1.6741962e-01	  -3.6364526e-01	
   2.1395000e+01	   1.7416515e-01	  -3.5727962e-01	
   2.1450000e+01	   1.8165260e-01	  -3.5093456e-01	
   2.1505000e+01	   1.8985238e-01	  -3.4470087e-01	
   2.1560000e+01	   1.9871452e-01	  -3.3866442e-01	
   2.1615000e+01	   2.0817010e-01	  -3.3290371e-01	
   2.1670000e+01	   2.1813184e-01	  -3.2749093e-01	
   2.1725000e+01	   2.2849598e-01	  -3.2249518e-01	
   2.1780000e+01	   2.3914573e-01	  -3.1798679e-01	
   2.1835000e+01	   2.4995554e-01	  -3.1404044e-01	
   2.1890000e+01	   2.6079570e-01	  -3.1073513e-01	
   2.1945000e+01	   2.7153718e-01	  -3.0814967e-01	
   2.2000000e+01	   2.8205681e-01	  -3.0635445e-01	
   2.2055000e+01	   2.9224261e-01	  -3.0540178e-01	
   2.2110000e+01	   3.0199920e-01	  -3.0531785e-01	
   2.2165000e+01	   3.1125381e-01	  -3.0609808e-01	
   2.2220000e+01	   3.1996152e-01	  -3.0770655e-01	
   2.2275000e+01	   3.2810634e-01	  -3.1007939e-01	
   2.2330000e+01	   3.3569649e-01	  -3.1313157e-01	
   2.2385000e+01	   3.4275560e-01	  -3.1676545e-01	
   2.2440000e+01	   3.4931232e-01	  -3.2088018e-01	
   2.2495000e+01	   3.5539008e-01	  -3.2538077e-01	
   2.2550000e+01	   3.6100024e-01	  -3.3018570e-01	
   2.2605000e+01	   3.6614297e-01	  -3.3523056e-01	
   2.2660000e+01	   3.7081873e-01	  -3.4046672e-01	
   2.2715000e+01	   3.7504556e-01	  -3.4585606e-01	
   2.2770000e+01	   3.7887404e-01	  -3.5136417e-01	
   2.2825000e+01	   3.8239337e-01	  -3.5695428e-01	
   2.2880000e+01	   3.8572659e-01	  -3.6258290e-01	
   2.2935000e+01	   3.8901521e-01	  -3.6819852e-01	
   2.2990000e+01	   3.9239725e-01	  -3.7374392e-01	
   2.3045000e+01	   3.9598574e-01	  -3.7916119e-01	
   2.3100000e+01	   3.9985440e-01	  -3.8439705e-01	
   2.3155000e+01	   4.0403382e-01	  -3.8940580e-01	
   2.3210000e+01	   4.0851743e-01	  -3.9414891e-01	
   2.3265000e+01	   4.1327430e-01	  -3.9859109e-01	
   2.3320000e+01	   4.1826545e-01	  -4.0269424e-01	
   2.3375000e+01	   4.2345964e-01	  -4.0641244e-01	
   2.3430000e+01	   4.2884454e-01	  -4.0969101e-01	
   2.3485000e+01	   4.3443218e-01	  -4.1246996e-01	
   2.3540000e+01	   4.4025989e-01	  -4.1469025e-01	
   2.3595000e+01	   4.4638764e-01	  -4.1630111e-01	
   2.3650000e+01	   4.5289059e-01	  -4.1726783e-01	
   2.3705000e+01	   4.5984732e-01	  -4.1757902e-01	
   2.3760000e+01	   4.6732761e-01	  -4.1725174e-01	
   2.3815000e+01	   4.7538524e-01	  -4.1633259e-01	
   2.3870000e+01	   4.8405965e-01	  -4.1489362e-01	
   2.3925000e+01	   4.9338539e-01	  -4.1302387e-01	
   2.3980000e+01	   5.0340453e-01	  -4.1081831e-01	
   2.4035000e+01	   5.1417652e-01	  -4.0836684e-01	
   2.4090000e+01	   5.2578177e-01	  -4.0574548e-01	
   2.4145000e+01	   5.3831731e-01	  -4.0301149e-01	
   2.4200000e+01	   5.5188499e-01	  -4.0020230e-01	
   2.4255000e+01	   5.6657433e-01	  -3.9733809e-01	
   2.4310000e+01	   5.8244377e-01	  -3.9442728e-01	
   2.4365000e+01	   5.9950548e-01	  -3.9147374e-01	
   2.4420000e+01	   6.1771966e-01	  -3.8848233e-01	
   2.4475000e+01	   6.3700071e-01	  -3.8545954e-01	
   2.4530000e+01	   6.5723246e-01	  -3.8240899e-01	
   2.4585000e+01	   6.7828714e-01	  -3.7932532e-01	
   2.4640000e+01	   7.0004380e-01	  -3.7618988e-01	
   2.4695000e+01	   7.2240285e-01	  -3.7296987e-01	
   2.4750000e+01	   7.4529331e-01	  -3.6962087e-01	
   2.4805000e+01	   7.6867001e-01	  -3.6609190e-01	
   2.4860000e+01	   7.9250013e-01	  -3.6233273e-01	
   2.4915000e+01	   8.1674123e-01	  -3.5830271e-01	
   2.4970000e+01	   8.4131562e-01	  -3.5398017e-01	
   2.5025000e+01	   8.6608914e-01	  -3.4936998e-01	
   2.5080000e+01	   8.9086163e-01	  -3.4450644e-01	
   2.5135000e+01	   9.1537243e-01	  -3.3944989e-01	
   2.5190000e+01	   9.3931846e-01	  -3.3427865e-01	
   2.5245000e+01	   9.6237838e-01	  -3.2907984e-01	
   2.5300000e+01	   9.8423564e-01	  -3.2394202e-01	
   2.5355000e+01	   1.0045969e+00	  -3.1894992e-01	
   2.5410000e+01	   1.0232046e+00	  -3.1418069e-01	
   2.5465000e+01	   1.0398427e+00	  -3.0970173e-01	
   2.5520000e+01	   1.0543337e+00	  -3.0557114e-01	
   2.5575000e+01	   1.0665312e+00	  -3.0184020e-01	
   2.5630000e+01	   1.0763127e+00	  -2.9855669e-01	
   2.5685000e+01	   1.0835765e+00	  -2.9576760e-01	
   2.5740000e+01	   1.0882465e+00	  -2.9352031e-01	
   2.5795000e+01	   1.0902829e+00	  -2.9186078e-01	
   2.5850000e+01	   1.0896988e+00	  -2.9082882e-01	
   2.5905000e+01	   1.0865753e+00	  -2.9045205e-01	
   2.5960000e+01	   1.0810718e+00	  -2.9074100e-01	
   2.6015000e+01	   1.0734272e+00	  -2.9168664e-01	
   2.6070000e+01	   1.0639520e+00	  -2.9326113e-01	
   2.6125000e+01	   1.0530140e+00	  -2.9542142e-01	
   2.6180000e+01	   1.0410194e+00	  -2.9811475e-01	
   2.6235000e+01	   1.0283914e+00	  -3.0128457e-01	
   2.6290000e+01	   1.0155494e+00	  -3.0487596e-01	
   2.6345000e+01	   1.0028921e+00	  -3.0884037e-01	
   2.6400000e+01	   9.9078459e-01	  -3.1313851e-01	
   2.6455000e+01	   9.7954965e-01	  -3.1773997e-01	
   2.6510000e+01	   9.6946242e-01	  -3.2261880e-01	
   2.6565000e+01	   9.6074824e-01	  -3.2774669e-01	
   2.6620000e+01	   9.5358348e-01	  -3.3308668e-01	
   2.6675000e+01	   9.4809870e-01	  -3.3858953e-01	
   2.6730000e+01	   9.4438192e-01	  -3.4419390e-01	
   2.6785000e+01	   9.4247890e-01	  -3.4982979e-01	
   2.6840000e+01	   9.4238881e-01	  -3.5542505e-01	
   2.6895000e+01	   9.4405677e-01	  -3.6091438e-01	
   2.6950000e+01	   9.4736846e-01	  -3.6624877e-01	
   2.7005000e+01	   9.5215211e-01	  -3.7140176e-01	
   2.7060000e+01	   9.5818979e-01	  -3.7636970e-01	
   2.7115000e+01	   9.6523486e-01	  -3.8116633e-01	
   2.7170000e+01	   9.7303169e-01	  -3.8581432e-01	
   2.7225000e+01	   9.8133454e-01	  -3.9033659e-01	
   2.7280000e+01	   9.8992288e-01	  -3.9474906e-01	
   2.7335000e+01	   9.9860881e-01	  -3.9905608e-01	
   2.7390000e+01	   1.0072353e+00	  -4.0324813e-01	
   2.7445000e+01	   1.0156676e+00	  -4.0730108e-01	
   2.7500000e+01	   1.0237820e+00	  -4.1117631e-01	
   2.7555000e+01	   1.0314573e+00	  -4.1482225e-01	
   2.7610000e+01	   1.0385709e+00	  -4.1817673e-01	
   2.7665000e+01	   1.0450046e+00	  -4.2116914e-01	
   2.7720000e+01	   1.0506579e+00	  -4.2372127e-01	
   2.7775000e+01	   1.0554626e+00	  -4.2574810e-01	
   2.7830000e+01	   1.0593937e+00	  -4.2716055e-01	
   2.7885000e+01	   1.0624737e+00	  -4.2787077e-01	
   2.7940000e+01	   1.0647711e+00	  -4.2779895e-01	
   2.7995000e+01	   1.0663924e+00	  -4.2688089e-01	
   2.8050000e+01	   1.0674695e+00	  -4.2507586e-01	
   2.8105000e+01	   1.0681435e+00	  -4.2237365e-01	
   2.8160000e+01	   1.0685492e+00	  -4.1879920e-01	
   2.8215000e+01	   1.0688048e+00	  -4.1441352e-01	
   2.8270000e+01	   1.0690072e+00	  -4.0931024e-01	
   2.8325000e+01	   1.0692380e+00	  -4.0360754e-01	
   2.8380000e+01	   1.0695769e+00	  -3.9743592e-01	
   2.8435000e+01	   1.0701176e+00	  -3.9092512e-01	
   2.8490000e+01	   1.0709787e+00	  -3.8419370e-01	
   2.8545000e+01	   1.0723053e+00	  -3.7734348e-01	
   2.8600000e+01	   1.0742630e+00	  -3.7045856e-01	
   2.8655000e+01	   1.0770253e+00	  -3.6360772e-01	
   2.8710000e+01	   1.0807540e+00	  -3.5684941e-01	
   2.8765000e+01	   1.0855720e+00	  -3.5023804e-01	
   2.8820000e+01	   1.0915344e+00	  -3.4383001e-01	
   2.8875000e+01	   1.0986045e+00	  -3.3768774e-01	
   2.8930000e+01	   1.1066442e+00	  -3.3188018e-01	
   2.8985000e+01	   1.1154218e+00	  -3.2647947e-01	
   2.9040000e+01	   1.1246336e+00	  -3.2155416e-01	
   2.9095000e+01	   1.1339342e+00	  -3.1716093e-01	
   2.9150000e+01	   1.1429699e+00	  -3.1333733e-01	
   2.9205000e+01	   1.1514078e+00	  -3.1009803e-01	
   2.9260000e+01	   1.1589605e+00	  -3.0743537e-01	
   2.9315000e+01	   1.1654025e+00	  -3.0532313e-01	
   2.9370000e+01	   1.1705790e+00	  -3.0372267e-01	
   2.9425000e+01	   1.1744061e+00	  -3.0259124e-01	
   2.9480000e+01	   1.1768644e+00	  -3.0189177e-01	
   2.9535000e+01	   1.1779901e+00	  -3.0160205e-01	
   2.9590000e+01	   1.1778640e+00	  -3.0172046e-01	
   2.9645000e+01	   1.1765988e+00	  -3.0226627e-01	
   2.9700000e+01	   1.1743306e+00	  -3.0327359e-01	
   2.9755000e+01	   1.1712139e+00	  -3.0478060e-01	
   2.9810000e+01	   1.1674184e+00	  -3.0681779e-01	
   2.9865000e+01	   1.1631250e+00	  -3.0939917e-01	
   2.9920000e+01	   1.1585159e+00	  -3.1251827e-01	
   2.9975000e+01	   1.1537623e+00	  -3.1614817e-01	
   3.0030000e+01	   1.1490095e+00	  -3.2024470e-01	
   3.0085000e+01	   1.1443616e+00	  -3.2475217e-01	
   3.0140000e+01	   1.1398699e+00	  -3.2961065e-01	
   3.0195000e+01	   1.1355283e+00	  -3.3476308e-01	
   3.0250000e+01	   1.1312770e+00	  -3.4015996e-01	
   3.0305000e+01	   1.1270147e+00	  -3.4576041e-01	
   3.0360000e+01	   1.1226177e+00	  -3.5152909e-01	
   3.0415000e+01	   1.1179637e+00	  -3.5743032e-01	
   3.0470000e+01	   1.1129549e+00	  -3.6342163e-01	
   3.0525000e+01	   1.1075370e+00	  -3.6944888e-01	
   3.0580000e+01	   1.1017123e+00	  -3.7544436e-01	
   3.0635000e+01	   1.0955441e+00	  -3.8132784e-01	
   3.0690000e+01	   1.0891526e+00	  -3.8700945e-01	
   3.0745000e+01	   1.0827059e+00	  -3.9239432e-01	
   3.0800000e+01	   1.0764057e+00	  -3.9738883e-01	
   3.0855000e+01	   1.0704729e+00	  -4.0190773e-01	
   3.0910000e+01	   1.0651359e+00	  -4.0587898e-01	
   3.0965000e+01	   1.0606266e+00	  -4.0924455e-01	
   3.1020000e+01	   1.0571816e+00	  -4.1195783e-01	
   3.1075000e+01	   1.0550473e+00	  -4.1397980e-01	
   3.1130000e+01	   1.0544823e+00	  -4.1527602e-01	
   3.1185000e+01	   1.0557541e+00	  -4.1581584e-01	
   3.1240000e+01	   1.0591274e+00	  -4.1557410e-01	
   3.1295000e+01	   1.0648456e+00	  -4.1453394e-01	
   3.1350000e+01	   1.0731093e+00	  -4.1268941e-01	
   3.1405000e+01	   1.0840545e+00	  -4.1004838e-01	
   3.1460000e+01	   1.0977344e+00	  -4.0663645e-01	
   3.1515000e+01	   1.1141069e+00	  -4.0250219e-01	
   3.1570000e+01	   1.1330328e+00	  -3.9772148e-01	
   3.1625000e+01	   1.1542847e+00	  -3.9239788e-01	
   3.1680000e+01	   1.1775689e+00	  -3.8665642e-01	
   3.1735000e+01	   1.2025535e+00	  -3.8063169e-01	
   3.1790000e+01	   1.2289000e+00	  -3.7445338e-01	
   3.1845000e+01	   1.2562912e+00	  -3.6823265e-01	
   3.1900000e+01	   1.2844534e+00	  -3.6205168e-01	
   3.1955000e+01	   1.3131720e+00	  -3.5595760e-01	
   3.2010000e+01	   1.3422988e+00	  -3.4996173e-01	
   3.2065000e+01	   1.3717495e+00	  -3.4404368e-01	
   3.2120000e+01	   1.4014917e+00	  -3.3815987e-01	
   3.2175000e+01	   1.4315275e+00	  -3.3225484e-01	
   3.2230000e+01	   1.4618729e+00	  -3.2627266e-01	
   3.2285000e+01	   1.4925443e+00	  -3.2016422e-01	
   3.2340000e+01	   1.5235541e+00	  -3.1388849e-01	
   3.2395000e+01	   1.5549128e+00	  -3.0740897e-01	
   3.2450000e+01	   1.5866334e+00	  -3.0068893e-01	
   3.2505000e+01	   1.6187314e+00	  -2.9368833e-01	
   3.2560000e+01	   1.6512213e+00	  -2.8636372e-01	
   3.2615000e+01	   1.6841095e+00	  -2.7867126e-01	
   3.2670000e+01	   1.7173869e+00	  -2.7057198e-01	
   3.2725000e+01	   1.7510215e+00	  -2.6203776e-01	
   3.2780000e+01	   1.7849538e+00	  -2.5305674e-01	
   3.2835000e+01	   1.8190941e+00	  -2.4363786e-01	
   3.2890000e+01	   1.8533201e+00	  -2.3381389e-01	
   3.2945000e+01	   1.8874784e+00	  -2.2364185e-01	
   3.3000000e+01	   1.9213935e+00	  -2.1319904e-01	
   3.3055000e+01	   1.9548824e+00	  -2.0257509e-01	
   3.3110000e+01	   1.9877692e+00	  -1.9186219e-01	
   3.3165000e+01	   2.0198940e+00	  -1.8114590e-01	
   3.3220000e+01	   2.0511170e+00	  -1.7049872e-01	
   3.3275000e+01	   2.0813204e+00	  -1.5997729e-01	
   3.3330000e+01	   2.1104104e+00	  -1.4962338e-01	
   3.3385000e+01	   2.1383184e+00	  -1.3946768e-01	
   3.3440000e+01	   2.1649997e+00	  -1.2953467e-01	
   3.3495000e+01	   2.1904305e+00	  -1.1984726e-01	
   3.3550000e+01	   2.2146055e+00	  -1.1042980e-01	
   3.3605000e+01	   2.2375383e+00	  -1.0130863e-01	
   3.3660000e+01	   2.2592653e+00	  -9.2509639e-02	
   3.3715000e+01	   2.2798530e+00	  -8.4053948e-02	
   3.3770000e+01	   2.2994039e+00	  -7.5953505e-02	
   3.3825000e+01	   2.3180590e+00	  -6.8207626e-02	
   3.3880000e+01	   2.3359940e+00	  -6.0800762e-02	
   3.3935000e+01	   2.3534078e+00	  -5.3701894e-02	
   3.3990000e+01	   2.3705063e+00	  -4.6866447e-02	
   3.4045000e+01	   2.3874840e+00	  -4.0240714e-02	
   3.4100000e+01	   2.4045105e+00	  -3.3767040e-02	
   3.4155000e+01	   2.4217239e+00	  -2.7387786e-02	
   3.4210000e+01	   2.4392314e+00	  -2.1047400e-02	
   3.4265000e+01	   2.4571174e+00	  -1.4692687e-02	
   3.4320000e+01	   2.4754554e+00	  -8.2717439e-03	
   3.4375000e+01	   2.4943231e+00	  -1.7326424e-03	
   3.4430000e+01	   2.5138154e+00	   4.9769167e-03	
   3.4485000e+01	   2.5340514e+00	   1.1908658e-02	
   3.4540000e+01	   2.5551732e+00	   1.9112246e-02	
   3.4595000e+01	   2.5773358e+00	   2.6633969e-02	
   3.4650000e+01	   2.6006925e+00	   3.4515410e-02	
   3.4705000e+01	   2.6253821e+00	   4.2791875e-02	
   3.4760000e+01	   2.6515195e+00	   5.1491662e-02	
   3.4815000e+01	   2.6791924e+00	   6.0638187e-02	
   3.4870000e+01	   2.7084615e+00	   7.0255320e-02	
   3.4925000e+01	   2.7393617e+00	   8.0373238e-02	
   3.4980000e+01	   2.7719048e+00	   9.1031222e-02	
   3.5035000e+01	   2.8060813e+00	   1.0227585e-01	
   3.5090000e+01	   2.8418624e+00	   1.1415545e-01	
   3.5145000e+01	   2.8791986e+00	   1.2671229e-01	
   3.5200000e+01	   2.9180158e+00	   1.3997423e-01	
   3.5255000e+01	   2.9582083e+00	   1.5394716e-01	
   3.5310000e+01	   2.9996326e+00	   1.6860990e-01	
   3.5365000e+01	   3.0421050e+00	   1.8391227e-01	
   3.5420000e+01	   3.0854039e+00	   1.9977698e-01	
   3.5475000e+01	   3.1292794e+00	   2.1610578e-01	
   3.5530000e+01	   3.1734672e+00	   2.3278851e-01	
   3.5585000e+01	   3.2177030e+00	   2.4971189e-01	
   3.5640000e+01	   3.2617355e+00	   2.6676554e-01	
   3.5695000e+01	   3.3053367e+00	   2.8384536e-01	
   3.5750000e+01	   3.3483090e+00	   3.0085499e-01	
   3.5805000e+01	   3.3904875e+00	   3.1770517e-01	
   3.5860000e+01	   3.4317356e+00	   3.3431056e-01	
   3.5915000e+01	   3.4719379e+00	   3.5058440e-01	
   3.5970000e+01	   3.5109935e+00	   3.6643347e-01	
   3.6025000e+01	   3.5488166e+00	   3.8175657e-01	
   3.6080000e+01	   3.5853437e+00	   3.9644800e-01	
   3.6135000e+01	   3.6205441e+00	   4.1040541e-01	
   3.6190000e+01	   3.6544308e+00	   4.2353980e-01	
   3.6245000e+01	   3.6870666e+00	   4.3578453e-01	
   3.6300000e+01	   3.7185627e+00	   4.4710053e-01	
   3.6355000e+01	   3.7490664e+00	   4.5747602e-01	
   3.6410000e+01	   3.7787412e+00	   4.6692150e-01	
   3.6465000e+01	   3.8077450e+00	   4.7546180e-01	
   3.6520000e+01	   3.8362101e+00	   4.8312716e-01	
   3.6575000e+01	   3.8642276e+00	   4.8994548e-01	
   3.6630000e+01	   3.8918396e+00	   4.9593760e-01	
   3.6685000e+01	   3.9190409e+00	   5.0111631e-01	
   3.6740000e+01	   3.9457900e+00	   5.0548860e-01	
   3.6795000e+01	   3.9720259e+00	   5.0906075e-01	
   3.6850000e+01	   3.9976854e+00	   5.1184497e-01	
   3.6905000e+01	   4.0227162e+00	   5.1386627e-01	
   3.6960000e+01	   4.0470829e+00	   5.1516732e-01	
   3.7015000e+01	   4.0707648e+00	   5.1580956e-01	
   3.7070000e+01	   4.0937474e+00	   5.1586970e-01	
   3.7125000e+01	   4.1160094e+00	   5.1543268e-01	
   3.7180000e+01	   4.1375086e+00	   5.1458326e-01	
   3.7235000e+01	   4.1581685e+00	   5.1339832e-01	
   3.7290000e+01	   4.1778680e+00	   5.1194136e-01	
   3.7345000e+01	   4.1964388e+00	   5.1026093e-01	
   3.7400000e+01	   4.2136732e+00	   5.0839395e-01	
   3.7455000e+01	   4.2293436e+00	   5.0637272e-01	
   3.7510000e+01	   4.2432300e+00	   5.0423301e-01	
   3.7565000e+01	   4.2551521e+00	   5.0202054e-01	
   3.7620000e+01	   4.2649989e+00	   4.9979400e-01	
   3.7675000e+01	   4.2727479e+00	   4.9762362e-01	
   3.7730000e+01	   4.2784693e+00	   4.9558568e-01	
   3.7785000e+01	   4.2823159e+00	   4.9375416e-01	
   3.7840000e+01	   4.2845028e+00	   4.9219124e-01	
   3.7895000e+01	   4.2852833e+00	   4.9093791e-01	
   3.7950000e+01	   4.2849250e+00	   4.9000673e-01	
   3.8005000e+01	   4.2836935e+00	   4.8937958e-01	
   3.8060000e+01	   4.2818475e+00	   4.8901185e-01	
   3.8115000e+01	   4.2796404e+00	   4.8884143e-01	
   3.8170000e+01	   4.2773243e+00	   4.8879920e-01	
   3.8225000e+01	   4.2751484e+00	   4.8881857e-01	
   3.8280000e+01	   4.2733516e+00	   4.8884310e-01	
   3.8335000e+01	   4.2721521e+00	   4.8883157e-01	
   3.8390000e+01	   4.2717352e+00	   4.8875983e-01	
   3.8445000e+01	   4.2722421e+00	   4.8861911e-01	
   3.8500000e+01	   4.2737613e+00	   4.8841135e-01	
   3.8555000e+01	   4.2763222e+00	   4.8814258e-01	
   3.8610000e+01	   4.2798923e+00	   4.8781646e-01	
   3.8665000e+01	   4.2843817e+00	   4.8743067e-01	
   3.8720000e+01	   4.2896537e+00	   4.8697826e-01	
   3.8775000e+01	   4.2955412e+00	   4.8645332e-01	
   3.8830000e+01	   4.3018633e+00	   4.8585722e-01	
   3.8885000e+01	   4.3084396e+00	   4.8520196e-01	
   3.8940000e+01	   4.3151010e+00	   4.8450958e-01	
   3.8995000e+01	   4.3216955e+00	   4.8380819e-01	
   3.9050000e+01	   4.3280890e+00	   4.8312571e-01	
   3.9105000e+01	   4.3341603e+00	   4.8248251e-01	
   3.9160000e+01	   4.3397912e+00	   4.8188507e-01	
   3.9215000e+01	   4.3448569e+00	   4.8132184e-01	
   3.9270000e+01	   4.3492184e+00	   4.8076238e-01	
   3.9325000e+01	   4.3527226e+00	   4.8016087e-01	
   3.9380000e+01	   4.3552090e+00	   4.7946526e-01	
   3.9435000e+01	   4.3565225e+00	   4.7863042e-01	
   3.9490000e+01	   4.3565260e+00	   4.7763107e-01	
   3.9545000e+01	   4.3551083e+00	   4.7647049e-01	
   3.9600000e+01	   4.3521881e+00	   4.7518325e-01	
   3.9655000e+01	   4.3477139e+00	   4.7383196e-01	
   3.9710000e+01	   4.3416589e+00	   4.7249864e-01	
   3.9765000e+01	   4.3340118e+00	   4.7127209e-01	
   3.9820000e+01	   4.3247659e+00	   4.7023376e-01	
   3.9875000e+01	   4.3139121e+00	   4.6944499e-01	
   3.9930000e+01	   4.3014388e+00	   4.6893829e-01	
   3.9985000e+01	   4.2873382e+00	   4.6871431e-01	
   4.0040000e+01	   4.2716173e+00	   4.6874465e-01	
   4.0095000e+01	   4.2543133e+00	   4.6897894e-01	
   4.0150000e+01	   4.2355083e+00	   4.6935246e-01	
   4.0205000e+01	   4.2153390e+00	   4.6979116e-01	
   4.0260000e+01	   4.1939977e+00	   4.7021398e-01	
   4.0315000e+01	   4.1717263e+00	   4.7053368e-01	
   4.0370000e+01	   4.1488031e+00	   4.7065702e-01	
   4.0425000e+01	   4.1255236e+00	   4.7048397e-01	
   4.0480000e+01	   4.1021787e+00	   4.6990652e-01	
   4.0535000e+01	   4.0790361e+00	   4.6880806e-01	
   4.0590000e+01	   4.0563275e+00	   4.6706510e-01	
   4.0645000e+01	   4.0342440e+00	   4.6455237e-01	
   4.0700000e+01	   4.0129379e+00	   4.6115209e-01	
   4.0755000e+01	   3.9925281e+00	   4.5676611e-01	
   4.0810000e+01	   3.9731067e+00	   4.5132786e-01	
   4.0865000e+01	   3.9547433e+00	   4.4481033e-01	
   4.0920000e+01	   3.9374880e+00	   4.3722820e-01	
   4.0975000e+01	   3.9213706e+00	   4.2863432e-01	
   4.1030000e+01	   3.9063975e+00	   4.1911216e-01	
   4.1085000e+01	   3.8925454e+00	   4.0876538e-01	
   4.1140000e+01	   3.8797543e+00	   3.9770569e-01	
   4.1195000e+01	   3.8679215e+00	   3.8604075e-01	
   4.1250000e+01	   3.8568993e+00	   3.7386448e-01	
   4.1305000e+01	   3.8464956e+00	   3.6125216e-01	
   4.1360000e+01	   3.8364794e+00	   3.4826113e-01	
   4.1415000e+01	   3.8265927e+00	   3.3493684e-01	
   4.1470000e+01	   3.8165695e+00	   3.2132216e-01	
   4.1525000e+01	   3.8061569e+00	   3.0746656e-01	
   4.1580000e+01	   3.7951328e+00	   2.9343236e-01	
   4.1635000e+01	   3.7833151e+00	   2.7929681e-01	
   4.1690000e+01	   3.7705615e+00	   2.6515039e-01	
   4.1745000e+01	   3.7567633e+00	   2.5109197e-01	
   4.1800000e+01	   3.7418354e+00	   2.3722119e-01	
   4.1855000e+01	   3.7257063e+00	   2.2362882e-01	
   4.1910000e+01	   3.7083104e+00	   2.1038739e-01	
   4.1965000e+01	   3.6895848e+00	   1.9754395e-01	
   4.2020000e+01	   3.6694725e+00	   1.8511688e-01	
   4.2075000e+01	   3.6479321e+00	   1.7309769e-01	
   4.2130000e+01	   3.6249520e+00	   1.6145761e-01	
   4.2185000e+01	   3.6005643e+00	   1.5015634e-01	
   4.2240000e+01	   3.5748542e+00	   1.3914991e-01	
   4.2295000e+01	   3.5479646e+00	   1.2839638e-01	
   4.2350000e+01	   3.5200955e+00	   1.1785939e-01	
   4.2405000e+01	   3.4914972e+00	   1.0750990e-01	
   4.2460000e+01	   3.4624549e+00	   9.7325738e-02	
   4.2515000e+01	   3.4332689e+00	   8.7289270e-02	
   4.2570000e+01	   3.4042365e+00	   7.7384730e-02	
   4.2625000e+01	   3.3756402e+00	   6.7597839e-02	
   4.2680000e+01	   3.3477444e+00	   5.7918924e-02	
   4.2735000e+01	   3.3207983e+00	   4.8348439e-02	
   4.2790000e+01	   3.2950432e+00	   3.8902352e-02	
   4.2845000e+01	   3.2707193e+00	   2.9615249e-02	
   4.2900000e+01	   3.2480711e+00	   2.0540369e-02	
   4.2955000e+01	   3.2273493e+00	   1.1746824e-02	
   4.3010000e+01	   3.2088051e+00	   3.3147973e-03	
   4.3065000e+01	   3.1926811e+00	  -4.6701489e-03	
   4.3120000e+01	   3.1791958e+00	  -1.2122748e-02	
   4.3175000e+01	   3.1685306e+00	  -1.8963166e-02	
   4.3230000e+01	   3.1608198e+00	  -2.5120323e-02	
   4.3285000e+01	   3.1561519e+00	  -3.0531570e-02	
   4.3340000e+01	   3.1545803e+00	  -3.5138542e-02	
   4.3395000e+01	   3.1561384e+00	  -3.8881791e-02	
   4.3450000e+01	   3.1608512e+00	  -4.1697688e-02	
   4.3505000e+01	   3.1687407e+00	  -4.3519274e-02	
   4.3560000e+01	   3.1798234e+00	  -4.4280377e-02	
   4.3615000e+01	   3.1941011e+00	  -4.3921667e-02	
   4.3670000e+01	   3.2115479e+00	  -4.2397977e-02	
   4.3725000e+01	   3.2320954e+00	  -3.9686428e-02	
   4.3780000e+01	   3.2556210e+00	  -3.5794156e-02	
   4.3835000e+01	   3.2819388e+00	  -3.0763635e-02	
   4.3890000e+01	   3.3107963e+00	  -2.4673813e-02	
   4.3945000e+01	   3.3418782e+00	  -1.7636042e-02	
   4.4000000e+01	   3.3748171e+00	  -9.7853189e-03	
   4.4055000e+01	   3.4092115e+00	  -1.2689996e-03	
   4.4110000e+01	   3.4446464e+00	   7.7641063e-03	
   4.4165000e+01	   3.4807138e+00	   1.7172317e-02	
   4.4220000e+01	   3.5170312e+00	   2.6826517e-02	
   4.4275000e+01	   3.5532514e+00	   3.6612120e-02	
   4.4330000e+01	   3.5890632e+00	   4.6427831e-02	
   4.4385000e+01	   3.6241815e+00	   5.6182368e-02	
   4.4440000e+01	   3.6583286e+00	   6.5790334e-02	
   4.4495000e+01	   3.6912121e+00	   7.5167839e-02	
   4.4550000e+01	   3.7225028e+00	   8.4228897e-02	
   4.4605000e+01	   3.7518203e+00	   9.2884824e-02	
   4.4660000e+01	   3.7787257e+00	   1.0104840e-01	
   4.4715000e+01	   3.8027218e+00	   1.0864174e-01	
   4.4770000e+01	   3.8232565e+00	   1.1560461e-01	
   4.4825000e+01	   3.8397320e+00	   1.2190014e-01	
   4.4880000e+01	   3.8515185e+00	   1.2751659e-01	
   4.4935000e+01	   3.8579698e+00	   1.3246505e-01	
   4.4990000e+01	   3.8584409e+00	   1.3677325e-01	
   4.5045000e+01	   3.8523040e+00	   1.4047709e-01	
   4.5100000e+01	   3.8389700e+00	   1.4361233e-01	
   4.5155000e+01	   3.8179142e+00	   1.4620848e-01	
   4.5210000e+01	   3.7887113e+00	   1.4828655e-01	
   4.5265000e+01	   3.7510799e+00	   1.4986146e-01	
   4.5320000e+01	   3.7049353e+00	   1.5094845e-01	
   4.5375000e+01	   3.6504464e+00	   1.5157050e-01	
   4.5430000e+01	   3.5880881e+00	   1.5176326e-01	
   4.5485000e+01	   3.5186820e+00	   1.5157619e-01	
   4.5540000e+01	   3.4434213e+00	   1.5107037e-01	
   4.5595000e+01	   3.3638819e+00	   1.5031455e-01	
   4.5650000e+01	   3.2820193e+00	   1.4937951e-01	
   4.5705000e+01	   3.2001486e+00	   1.4832988e-01	
   4.5760000e+01	   3.1209035e+00	   1.4721452e-01	
   4.5815000e+01	   3.0471680e+00	   1.4605841e-01	
   4.5870000e+01	   2.9819808e+00	   1.4485904e-01	
   4.5925000e+01	   2.9284091e+00	   1.4358867e-01	
   4.5980000e+01	   2.8893911e+00	   1.4220239e-01	
   4.6035000e+01	   2.8675471e+00	   1.4065010e-01	
   4.6090000e+01	   2.8649624e+00	   1.3888905e-01	
   4.6145000e+01	   2.8829634e+00	   1.3689353e-01	
   4.6200000e+01	   2.9219541e+00	   1.3465982e-01	
   4.6255000e+01	   2.9813821e+00	   1.3220724e-01	
   4.6310000e+01	   3.0598411e+00	   1.2957586e-01	
   4.6365000e+01	   3.1552478e+00	   1.2682125e-01	
   4.6420000e+01	   3.2650242e+00	   1.2400684e-01	
   4.6475000e+01	   3.3862590e+00	   1.2119559e-01	
   4.6530000e+01	   3.5158462e+00	   1.1844388e-01	
   4.6585000e+01	   3.6506059e+00	   1.1579985e-01	
   4.6640000e+01	   3.7873896e+00	   1.1330623e-01	
   4.6695000e+01	   3.9231654e+00	   1.1100573e-01	
   4.6750000e+01	   4.0550809e+00	   1.0894659e-01	
   4.6805000e+01	   4.1805022e+00	   1.0718579e-01	
   4.6860000e+01	   4.2970318e+00	   1.0578869e-01	
   4.6915000e+01	   4.4025124e+00	   1.0482530e-01	
   4.6970000e+01	   4.4950235e+00	   1.0436451e-01	
   4.7025000e+01	   4.5728761e+00	   1.0446714e-01	
   4.7080000e+01	   4.6346072e+00	   1.0517898e-01	
   4.7135000e+01	   4.6789796e+00	   1.0652581e-01	
   4.7190000e+01	   4.7049896e+00	   1.0851255e-01	
   4.7245000e+01	   4.7118843e+00	   1.1112727e-01	
   4.7300000e+01	   4.6991833e+00	   1.1434859e-01	
   4.7355000e+01	   4.6667020e+00	   1.1815377e-01	
   4.7410000e+01	   4.6145733e+00	   1.2252444e-01	
   4.7465000e+01	   4.5432670e+00	   1.2744790e-01	
   4.7520000e+01	   4.4536049e+00	   1.3291346e-01	
   4.7575000e+01	   4.3467721e+00	   1.3890575e-01	
   4.7630000e+01	   4.2243244e+00	   1.4539745e-01	
   4.7685000e+01	   4.0881898e+00	   1.5234377e-01	
   4.7740000e+01	   3.9406609e+00	   1.5967971e-01	
   4.7795000e+01	   3.7843785e+00	   1.6732119e-01	
   4.7850000e+01	   3.6223058e+00	   1.7517105e-01	
   4.7905000e+01	   3.4576893e+00	   1.8312937e-01	
   4.7960000e+01	   3.2939956e+00	   1.9110412e-01	
   4.8015000e+01	   3.1348141e+00	   1.9901851e-01	
   4.8070000e+01	   2.9837192e+00	   2.0681276e-01	
   4.8125000e+01	   2.8440944e+00	   2.1444059e-01	
   4.8180000e+01	   2.7189462e+00	   2.2186160e-01	
   4.8235000e+01	   2.6107692e+00	   2.2903221e-01	
   4.8290000e+01	   2.5215277e+00	   2.3589864e-01	
   4.8345000e+01	   2.4527436e+00	   2.4239444e-01	
   4.8400000e+01	   2.4056232e+00	   2.4844338e-01	
   4.8455000e+01	   2.3811530e+00	   2.5396674e-01	
   4.8510000e+01	   2.3801403e+00	   2.5889380e-01	
   4.8565000e+01	   2.4031887e+00	   2.6317220e-01	
   4.8620000e+01	   2.4506079e+00	   2.6677511e-01	
   4.8675000e+01	   2.5222537e+00	   2.6970330e-01	
   4.8730000e+01	   2.6173048e+00	   2.7198276e-01	
   4.8785000e+01	   2.7340094e+00	   2.7365902e-01	
   4.8840000e+01	   2.8694738e+00	   2.7478828e-01	
   4.8895000e+01	   3.0195881e+00	   2.7542554e-01	
   4.8950000e+01	   3.1791337e+00	   2.7561225e-01	
   4.9005000e+01	   3.3420315e+00	   2.7536689e-01	
   4.9060000e+01	   3.5016433e+00	   2.7468141e-01	
   4.9115000e+01	   3.6510640e+00	   2.7352425e-01	
   4.9170000e+01	   3.7833788e+00	   2.7184944e-01	
   4.9225000e+01	   3.8918837e+00	   2.6960949e-01	
   4.9280000e+01	   3.9702683e+00	   2.6676851e-01	
   4.9335000e+01	   4.0127589e+00	   2.6331221e-01	
   4.9390000e+01	   4.0142217e+00	   2.5925351e-01	
   4.9445000e+01	   3.9702298e+00	   2.5463327e-01	
   4.9500000e+01	   3.8770987e+00	   2.4951573e-01	
   4.9555000e+01	   3.7319038e+00	   2.4397867e-01	
   4.9610000e+01	   3.5325096e+00	   2.3810025e-01	
   4.9665000e+01	   3.2776553e+00	   2.3194626e-01	
   4.9720000e+01	   2.9671056e+00	   2.2556198e-01	
   4.9775000e+01	   2.6018276e+00	   2.1897083e-01	
   4.9830000e+01	   2.1841457e+00	   2.1217923e-01	
   4.9885000e+01	   1.7178445e+00	   2.0518524e-01	
   4.9940000e+01	   1.2082070e+00	   1.9798746e-01	
   4.9995000e+01	   6.6196880e-01	   1.9059154e-01	
   5.0050000e+01	   8.7174222e-02	   1.8301331e-01	
   5.0105000e+01	  -5.0708330e-01	   1.7527866e-01	
   5.0160000e+01	  -1.1110377e+00	   1.6742051e-01	
   5.0215000e+01	  -1.7147122e+00	   1.5947356e-01	
   5.0270000e+01	  -2.3083981e+00	   1.5146822e-01	
   5.0325000e+01	  -2.8830758e+00	   1.4342559e-01	
   5.0380000e+01	  -3.4307352e+00	   1.3535523e-01	
   5.0435000e+01	  -3.9445882e+00	   1.2725670e-01	
   5.0490000e+01	  -4.4191817e+00	   1.1912468e-01	
   5.0545000e+01	  -4.8504319e+00	   1.1095644e-01	
   5.0600000e+01	  -5.2355928e+00	   1.0275988e-01	
   5.0655000e+01	  -5.5731774e+00	   9.4559321e-02	
   5.0710000e+01	  -5.8628446e+00	   8.6397131e-02	
   5.0765000e+01	  -6.1052642e+00	   7.8331120e-02	
   5.0820000e+01	  -6.3019702e+00	   7.0428962e-02	
   5.0875000e+01	  -6.4552147e+00	   6.2761238e-02	
   5.0930000e+01	  -6.5678264e+00	   5.5394567e-02	
   5.0985000e+01	  -6.6430775e+00	   4.8385873e-02	
   5.1040000e+01	  -6.6845563e+00	   4.1778573e-02	
   5.1095000e+01	  -6.6960482e+00	   3.5601353e-02	
   5.1150000e+01	  -6.6814238e+00	   2.9869873e-02	
   5.1205000e+01	  -6.6445409e+00	   2.4591000e-02	
   5.1260000e+01	  -6.5891607e+00	   1.9768314e-02	
   5.1315000e+01	  -6.5188805e+00	   1.5407118e-02	
   5.1370000e+01	  -6.4370824e+00	   1.1517131e-02	
   5.1425000e+01	  -6.3468995e+00	   8.1116996e-03	
   5.1480000e+01	  -6.2511953e+00	   5.2038295e-03	
   5.1535000e+01	  -6.1525541e+00	   2.8006013e-03	
   5.1590000e+01	  -6.0532750e+00	   8.9769151e-04	
   5.1645000e+01	  -5.9553683e+00	  -5.2468843e-04	
   5.1700000e+01	  -5.8605531e+00	  -1.5026854e-03	
   5.1755000e+01	  -5.7702542e+00	  -2.0847991e-03	
   5.1810000e+01	  -5.6856013e+00	  -2.3234327e-03	
   5.1865000e+01	  -5.6074335e+00	  -2.2651215e-03	
   5.1920000e+01	  -5.5363153e+00	  -1.9430305e-03	
   5.1975000e+01	  -5.4725645e+00	  -1.3737420e-03	
   5.2030000e+01	  -5.4162883e+00	  -5.5828574e-04	
   5.2085000e+01	  -5.3674204e+00	   5.1399995e-04	
   5.2140000e+01	  -5.3257579e+00	   1.8601525e-03	
   5.2195000e+01	  -5.2909975e+00	   3.4975594e-03	
   5.2250000e+01	  -5.2627707e+00	   5.4380390e-03	
   5.2305000e+01	  -5.2406750e+00	   7.6834634e-03	
   5.2360000e+01	  -5.2242993e+00	   1.0224505e-02	
   5.2415000e+01	  -5.2132386e+00	   1.3043473e-02	
   5.2470000e+01	  -5.2070984e+00	   1.6121000e-02	
   5.2525000e+01	  -5.2054890e+00	   1.9444611e-02	
   5.2580000e+01	  -5.2080165e+00	   2.3015904e-02	
   5.2635000e+01	  -5.2142731e+00	   2.6853424e-02	
   5.2690000e+01	  -5.2238294e+00	   3.0989965e-02	
   5.2745000e+01	  -5.2362301e+00	   3.5464404e-02	
   5.2800000e+01	  -5.2509948e+00	   4.0309430e-02	
   5.2855000e+01	  -5.2676202e+00	   4.5538128e-02	
   5.2910000e+01	  -5.2855848e+00	   5.1132953e-02	
   5.2965000e+01	  -5.3043520e+00	   5.7039573e-02	
   5.3020000e+01	  -5.3233739e+00	   6.3166941e-02	
   5.3075000e+01	  -5.3420973e+00	   6.9394152e-02	
   5.3130000e+01	  -5.3599738e+00	   7.5582880e-02	
   5.3185000e+01	  -5.3764724e+00	   8.1591910e-02	
   5.3240000e+01	  -5.3910906e+00	   8.7290051e-02	
   5.3295000e+01	  -5.4033624e+00	   9.2565264e-02	
   5.3350000e+01	  -5.4128646e+00	   9.7329027e-02	
   5.3405000e+01	  -5.4192220e+00	   1.0151560e-01	
   5.3460000e+01	  -5.4221123e+00	   1.0507709e-01	
   5.3515000e+01	  -5.4212695e+00	   1.0797712e-01	
   5.3570000e+01	  -5.4164849e+00	   1.1018607e-01	
   5.3625000e+01	  -5.4076052e+00	   1.1168027e-01	
   5.3680000e+01	  -5.3945276e+00	   1.1244536e-01	
   5.3735000e+01	  -5.3771932e+00	   1.1248314e-01	
   5.3790000e+01	  -5.3555803e+00	   1.1181986e-01	
   5.3845000e+01	  -5.3297007e+00	   1.1051308e-01	
   5.3900000e+01	  -5.2996014e+00	   1.0865465e-01	
   5.3955000e+01	  -5.2653702e+00	   1.0636881e-01	
   5.4010000e+01	  -5.2271456e+00	   1.0380597e-01	
   5.4065000e+01	  -5.1851287e+00	   1.0113314e-01	
   5.4120000e+01	  -5.1395973e+00	   9.8521506e-02	
   5.4175000e+01	  -5.0909203e+00	   9.6132793e-02	
   5.4230000e+01	  -5.0395669e+00	   9.4107728e-02	
   5.4285000e+01	  -4.9861061e+00	   9.2559427e-02	
   5.4340000e+01	  -4.9311920e+00	   9.1572408e-02	
   5.4395000e+01	  -4.8755351e+00	   9.1205665e-02	
   5.4450000e+01	  -4.8198672e+00	   9.1497664e-02	
   5.4505000e+01	  -4.7649056e+00	   9.2471347e-02	
   5.4560000e+01	  -4.7113251e+00	   9.4137836e-02	
   5.4615000e+01	  -4.6597416e+00	   9.6498537e-02	
   5.4670000e+01	  -4.6107077e+00	   9.9546273e-02	
   5.4725000e+01	  -4.5647154e+00	   1.0326564e-01	
   5.4780000e+01	  -4.5222021e+00	   1.0763187e-01	
   5.4835000e+01	  -4.4835546e+00	   1.1260831e-01	
   5.4890000e+01	  -4.4491095e+00	   1.1814457e-01	
   5.4945000e+01	  -4.4191458e+00	   1.2417766e-01	
   5.5000000e+01	  -4.3938715e+00	   1.3063628e-01	
   5.5055000e+01	  -4.3734062e+00	   1.3744651e-01	
   5.5110000e+01	  -4.3577676e+00	   1.4453699e-01	
   5.5165000e+01	  -4.3468634e+00	   1.5184217e-01	
   5.5220000e+01	  -4.3404923e+00	   1.5930270e-01	
   5.5275000e+01	  -4.3383514e+00	   1.6686316e-01	
   5.5330000e+01	  -4.3400486e+00	   1.7446824e-01	
   5.5385000e+01	  -4.3451176e+00	   1.8205954e-01	
   5.5440000e+01	  -4.3530316e+00	   1.8957447e-01	
   5.5495000e+01	  -4.3632184e+00	   1.9694815e-01	
   5.5550000e+01	  -4.3750740e+00	   2.0411924e-01	
   5.5605000e+01	  -4.3879780e+00	   2.1103922e-01	
   5.5660000e+01	  -4.4013098e+00	   2.1768254e-01	
   5.5715000e+01	  -4.4144704e+00	   2.2405362e-01	
   5.5770000e+01	  -4.4269075e+00	   2.3018867e-01	
   5.5825000e+01	  -4.4381393e+00	   2.3615267e-01	
   5.5880000e+01	  -4.4477708e+00	   2.4203322e-01	
   5.5935000e+01	  -4.4555035e+00	   2.4793209e-01	
   5.5990000e+01	  -4.4611372e+00	   2.5395535e-01	
   5.6045000e+01	  -4.4645650e+00	   2.6020393e-01	
   5.6100000e+01	  -4.4657585e+00	   2.6676650e-01	
   5.6155000e+01	  -4.4647471e+00	   2.7371588e-01	
   5.6210000e+01	  -4.4615966e+00	   2.8110882e-01	
   5.6265000e+01	  -4.4563927e+00	   2.8898823e-01	
   5.6320000e+01	  -4.4492295e+00	   2.9738621e-01	
   5.6375000e+01	  -4.4402032e+00	   3.0632547e-01	
   5.6430000e+01	  -4.4294098e+00	   3.1581749e-01	
   5.6485000e+01	  -4.4169492e+00	   3.2585777e-01	
   5.6540000e+01	  -4.4029316e+00	   3.3641978e-01	
   5.6595000e+01	  -4.3874861e+00	   3.4744864e-01	
   5.6650000e+01	  -4.3707690e+00	   3.5885587e-01	
   5.6705000e+01	  -4.3529687e+00	   3.7051727e-01	
   5.6760000e+01	  -4.3343037e+00	   3.8227634e-01	
   5.6815000e+01	  -4.3150102e+00	   3.9395401e-01	
   5.6870000e+01	  -4.2953225e+00	   4.0536219e-01	
   5.6925000e+01	  -4.2754514e+00	   4.1631780e-01	
   5.6980000e+01	  -4.2555645e+00	   4.2665484e-01	
   5.7035000e+01	  -4.2357730e+00	   4.3623351e-01	
   5.7090000e+01	  -4.2161274e+00	   4.4494589e-01	
   5.7145000e+01	  -4.1966222e+00	   4.5271726e-01	
   5.7200000e+01	  -4.1772106e+00	   4.5950327e-01	
   5.7255000e+01	  -4.1578240e+00	   4.6528371e-01	
   5.7310000e+01	  -4.1383948e+00	   4.7005391e-01	
   5.7365000e+01	  -4.1188786e+00	   4.7381581e-01	
   5.7420000e+01	  -4.0992704e+00	   4.7657177e-01	
   5.7475000e+01	  -4.0796114e+00	   4.7832321e-01	
   5.7530000e+01	  -4.0599867e+00	   4.7907377e-01	
   5.7585000e+01	  -4.0405148e+00	   4.7883423e-01	
   5.7640000e+01	  -4.0213321e+00	   4.7762622e-01	
   5.7695000e+01	  -4.0025785e+00	   4.7548377e-01	
   5.7750000e+01	  -3.9843847e+00	   4.7245205e-01	
   5.7805000e+01	  -3.9668649e+00	   4.6858371e-01	
   5.7860000e+01	  -3.9501135e+00	   4.6393323e-01	
   5.7915000e+01	  -3.9342042e+00	   4.5855070e-01	
   5.7970000e+01	  -3.9191887e+00	   4.5247611e-01	
   5.8025000e+01	  -3.9050938e+00	   4.4573566e-01	
   5.8080000e+01	  -3.8919125e+00	   4.3834187e-01	
   5.8135000e+01	  -3.8795913e+00	   4.3029924e-01	
   5.8190000e+01	  -3.8680147e+00	   4.2161484e-01	
   5.8245000e+01	  -3.8569952e+00	   4.1231038e-01	
   5.8300000e+01	  -3.8462740e+00	   4.0243265e-01	
   5.8355000e+01	  -3.8355319e+00	   3.9206021e-01	
   5.8410000e+01	  -3.8244087e+00	   3.8130614e-01	
   5.8465000e+01	  -3.8125277e+00	   3.7031562e-01	
   5.8520000e+01	  -3.7995246e+00	   3.5925853e-01	
   5.8575000e+01	  -3.7850779e+00	   3.4831806e-01	
   5.8630000e+01	  -3.7689351e+00	   3.3767764e-01	
   5.8685000e+01	  -3.7509328e+00	   3.2750837e-01	
   5.8740000e+01	  -3.7310064e+00	   3.1795967e-01	
   5.8795000e+01	  -3.7091901e+00	   3.0915510e-01	
   5.8850000e+01	  -3.6856086e+00	   3.0119354e-01	
   5.8905000e+01	  -3.6604644e+00	   2.9415293e-01	
   5.8960000e+01	  -3.6340251e+00	   2.8809366e-01	
   5.9015000e+01	  -3.6066097e+00	   2.8306028e-01	
   5.9070000e+01	  -3.5785742e+00	   2.7908182e-01	
   5.9125000e+01	  -3.5502973e+00	   2.7617114e-01	
   5.9180000e+01	  -3.5221697e+00	   2.7432329e-01	
   5.9235000e+01	  -3.4945851e+00	   2.7351369e-01	
   5.9290000e+01	  -3.4679316e+00	   2.7369795e-01	
   5.9345000e+01	  -3.4425778e+00	   2.7481423e-01	
   5.9400000e+01	  -3.4188571e+00	   2.7678843e-01	
   5.9455000e+01	  -3.3970518e+00	   2.7954146e-01	
   5.9510000e+01	  -3.3773815e+00	   2.8299716e-01	
   5.9565000e+01	  -3.3599959e+00	   2.8708871e-01	
   5.9620000e+01	  -3.3449750e+00	   2.9176143e-01	
   5.9675000e+01	  -3.3323330e+00	   2.9697106e-01	
   5.9730000e+01	  -3.3220278e+00	   3.0267838e-01	
   5.9785000e+01	  -3.3139694e+00	   3.0884098e-01	
   5.9840000e+01	  -3.3080299e+00	   3.1540374e-01	
   5.9895000e+01	  -3.3040542e+00	   3.2229047e-01	
   5.9950000e+01	  -3.3018693e+00	   3.2940009e-01	
   6.0005000e+01	  -3.3012909e+00	   3.3660919e-01	
   6.0060000e+01	  -3.3021239e+00	   3.4378047e-01	
   6.0115000e+01	  -3.3041599e+00	   3.5077473e-01	
   6.0170000e+01	  -3.3071720e+00	   3.5746336e-01	
   6.0225000e+01	  -3.3109114e+00	   3.6373882e-01	
   6.0280000e+01	  -3.3151094e+00	   3.6952059e-01	
   6.0335000e+01	  -3.3194880e+00	   3.7475544e-01	
   6.0390000e+01	  -3.3237760e+00	   3.7941250e-01	
   6.0445000e+01	  -3.3277247e+00	   3.8347576e-01	
   6.0500000e+01	  -3.3311202e+00	   3.8693634e-01	
   6.0555000e+01	  -3.3337930e+00	   3.8978662e-01	
   6.0610000e+01	  -3.3356235e+00	   3.9201830e-01	
   6.0665000e+01	  -3.3365408e+00	   3.9362520e-01	
   6.0720000e+01	  -3.3365144e+00	   3.9460954e-01	
   6.0775000e+01	  -3.3355408e+00	   3.9498886e-01	
   6.0830000e+01	  -3.3336292e+00	   3.9480100e-01	
   6.0885000e+01	  -3.3307869e+00	   3.9410604e-01	
   6.0940000e+01	  -3.3270085e+00	   3.9298409e-01	
   6.0995000e+01	  -3.3222685e+00	   3.9152847e-01	
   6.1050000e+01	  -3.3165208e+00	   3.8983535e-01	
   6.1105000e+01	  -3.3097016e+00	   3.8799254e-01	
   6.1160000e+01	  -3.3017330e+00	   3.8607002e-01	
   6.1215000e+01	  -3.2925265e+00	   3.8411342e-01	
   6.1270000e+01	  -3.2819837e+00	   3.8214153e-01	
   6.1325000e+01	  -3.2699925e+00	   3.8014899e-01	
   6.1380000e+01	  -3.2564202e+00	   3.7811334e-01	
   6.1435000e+01	  -3.2411063e+00	   3.7600365e-01	
   6.1490000e+01	  -3.2238605e+00	   3.7378845e-01	
   6.1545000e+01	  -3.2044674e+00	   3.7144186e-01	
   6.1600000e+01	  -3.1826967e+00	   3.6894733e-01	
   6.1655000e+01	  -3.1583185e+00	   3.6629785e-01	
   6.1710000e+01	  -3.1311223e+00	   3.6349253e-01	
   6.1765000e+01	  -3.1009387e+00	   3.6053085e-01	
   6.1820000e+01	  -3.0676609e+00	   3.5740646e-01	
   6.1875000e+01	  -3.0312638e+00	   3.5410186e-01	
   6.1930000e+01	  -2.9918178e+00	   3.5058481e-01	
   6.1985000e+01	  -2.9494936e+00	   3.4680781e-01	
   6.2040000e+01	  -2.9045584e+00	   3.4271199e-01	
   6.2095000e+01	  -2.8573646e+00	   3.3823447e-01	
   6.2150000e+01	  -2.8083377e+00	   3.3331647e-01	
   6.2205000e+01	  -2.7579632e+00	   3.2790971e-01	
   6.2260000e+01	  -2.7067736e+00	   3.2198089e-01	
   6.2315000e+01	  -2.6553357e+00	   3.1551440e-01	
   6.2370000e+01	  -2.6042394e+00	   3.0851309e-01	
   6.2425000e+01	  -2.5540887e+00	   3.0099651e-01	
   6.2480000e+01	  -2.5054918e+00	   2.9299721e-01	
   6.2535000e+01	  -2.4590507e+00	   2.8455607e-01	
   6.2590000e+01	  -2.4153488e+00	   2.7571792e-01	
   6.2645000e+01	  -2.3749354e+00	   2.6652933e-01	
   6.2700000e+01	  -2.3383077e+00	   2.5703976e-01	
   6.2755000e+01	  -2.3058887e+00	   2.4730552e-01	
   6.2810000e+01	  -2.2780059e+00	   2.3739379e-01	
   6.2865000e+01	  -2.2548753e+00	   2.2738413e-01	
   6.2920000e+01	  -2.2365927e+00	   2.1736648e-01	
   6.2975000e+01	  -2.2231331e+00	   2.0743638e-01	
   6.3030000e+01	  -2.2143608e+00	   1.9768817e-01	
   6.3085000e+01	  -2.2100478e+00	   1.8820715e-01	
   6.3140000e+01	  -2.2098985e+00	   1.7906242e-01	
   6.3195000e+01	  -2.2135710e+00	   1.7030202e-01	
   6.3250000e+01	  -2.2206924e+00	   1.6195091e-01	
   6.3305000e+01	  -2.2308659e+00	   1.5401228e-01	
   6.3360000e+01	  -2.2436713e+00	   1.4647263e-01	
   6.3415000e+01	  -2.2586603e+00	   1.3931123e-01	
   6.3470000e+01	  -2.2753498e+00	   1.3251125e-01	
   6.3525000e+01	  -2.2932190e+00	   1.2606907e-01	
   6.3580000e+01	  -2.3117105e+00	   1.1999867e-01	
   6.3635000e+01	  -2.3302394e+00	   1.1433054e-01	
   6.3690000e+01	  -2.3482105e+00	   1.0910585e-01	
   6.3745000e+01	  -2.3650454e+00	   1.0436723e-01	
   6.3800000e+01	  -2.3802133e+00	   1.0014814e-01	
   6.3855000e+01	  -2.3932578e+00	   9.6463240e-02	
   6.3910000e+01	  -2.4038135e+00	   9.3301477e-02	
   6.3965000e+01	  -2.4116103e+00	   9.0623745e-02	
   6.4020000e+01	  -2.4164661e+00	   8.8366411e-02	
   6.4075000e+01	  -2.4182696e+00	   8.6450120e-02	
   6.4130000e+01	  -2.4169604e+00	   8.4790100e-02	
   6.4185000e+01	  -2.4125109e+00	   8.3303852e-02	
   6.4240000e+01	  -2.4049145e+00	   8.1914778e-02	
   6.4295000e+01	  -2.3941812e+00	   8.0552549e-02	
   6.4350000e+01	  -2.3803383e+00	   7.9151204e-02	
   6.4405000e+01	  -2.3634355e+00	   7.7645482e-02	
   6.4460000e+01	  -2.3435544e+00	   7.5966179e-02	
   6.4515000e+01	  -2.3208176e+00	   7.4036079e-02	
   6.4570000e+01	  -2.2953933e+00	   7.1768620e-02	
   6.4625000e+01	  -2.2674927e+00	   6.9071207e-02	
   6.4680000e+01	  -2.2373594e+00	   6.5853478e-02	
   6.4735000e+01	  -2.2052518e+00	   6.2038440e-02	
   6.4790000e+01	  -2.1714231e+00	   5.7572966e-02	
   6.4845000e+01	  -2.1361055e+00	   5.2434490e-02	
   6.4900000e+01	  -2.0994999e+00	   4.6632555e-02	
   6.4955000e+01	  -2.0617736e+00	   4.0206022e-02	
   6.5010000e+01	  -2.0230655e+00	   3.3217457e-02	
   6.5065000e+01	  -1.9834993e+00	   2.5745465e-02	
   6.5120000e+01	  -1.9432039e+00	   1.7875417e-02	
   6.5175000e+01	  -1.9023356e+00	   9.6899384e-03	
   6.5230000e+01	  -1.8610965e+00	   1.2612151e-03	
   6.5285000e+01	  -1.8197428e+00	  -7.3532858e-03	
   6.5340000e+01	  -1.7785834e+00	  -1.6110714e-02	
   6.5395000e+01	  -1.7379682e+00	  -2.4978305e-02	
   6.5450000e+01	  -1.6982681e+00	  -3.3926161e-02	
   6.5505000e+01	  -1.6598504e+00	  -4.2920592e-02	
   6.5560000e+01	  -1.6230549e+00	  -5.1920690e-02	
   6.5615000e+01	  -1.5881739e+00	  -6.0878665e-02	
   6.5670000e+01	  -1.5554363e+00	  -6.9742798e-02	
   6.5725000e+01	  -1.5249986e+00	  -7.8461662e-02	
   6.5780000e+01	  -1.4969420e+00	  -8.6988967e-02	
   6.5835000e+01	  -1.4712794e+00	  -9.5288833e-02	
   6.5890000e+01	  -1.4479675e+00	  -1.0334071e-01	
   6.5945000e+01	  -1.4269206e+00	  -1.1114204e-01	
   6.6000000e+01	  -1.4080220e+00	  -1.1870660e-01	
   6.6055000e+01	  -1.3911329e+00	  -1.2605804e-01	
   6.6110000e+01	  -1.3760960e+00	  -1.3321992e-01	
   6.6165000e+01	  -1.3627386e+00	  -1.4020553e-01	
   6.6220000e+01	  -1.3508755e+00	  -1.4701119e-01	
   6.6275000e+01	  -1.3403144e+00	  -1.5361491e-01	
   6.6330000e+01	  -1.3308642e+00	  -1.5997889e-01	
   6.6385000e+01	  -1.3223450e+00	  -1.6605428e-01	
   6.6440000e+01	  -1.3146032e+00	  -1.7178752e-01	
   6.6495000e+01	  -1.3075304e+00	  -1.7712874e-01	
   6.6550000e+01	  -1.3010825e+00	  -1.8204020e-01	
   6.6605000e+01	  -1.2952927e+00	  -1.8650201e-01	
   6.6660000e+01	  -1.2902756e+00	  -1.9051397e-01	
   6.6715000e+01	  -1.2862194e+00	  -1.9409349e-01	
   6.6770000e+01	  -1.2833719e+00	  -1.9726999e-01	
   6.6825000e+01	  -1.2820222e+00	  -2.0007639e-01	
   6.6880000e+01	  -1.2824826e+00	  -2.0254068e-01	
   6.6935000e+01	  -1.2850733e+00	  -2.0468019e-01	
   6.6990000e+01	  -1.2901083e+00	  -2.0649915e-01	
   6.7045000e+01	  -1.2978814e+00	  -2.0798864e-01	
   6.7100000e+01	  -1.3086550e+00	  -2.0912939e-01	
   6.7155000e+01	  -1.3226517e+00	  -2.0989802e-01	
   6.7210000e+01	  -1.3400464e+00	  -2.1027570e-01	
   6.7265000e+01	  -1.3609585e+00	  -2.1025658e-01	
   6.7320000e+01	  -1.3854406e+00	  -2.0985327e-01	
   6.7375000e+01	  -1.4134668e+00	  -2.0909745e-01	
   6.7430000e+01	  -1.4449165e+00	  -2.0803467e-01	
   6.7485000e+01	  -1.4795568e+00	  -2.0671476e-01	
   6.7540000e+01	  -1.5170284e+00	  -2.0518083e-01	
   6.7595000e+01	  -1.5568411e+00	  -2.0346077e-01	
   6.7650000e+01	  -1.5983806e+00	  -2.0156307e-01	
   6.7705000e+01	  -1.6409247e+00	  -1.9947712e-01	
   6.7760000e+01	  -1.6836666e+00	  -1.9717623e-01	
   6.7815000e+01	  -1.7257478e+00	  -1.9462294e-01	
   6.7870000e+01	  -1.7662969e+00	  -1.9177668e-01	
   6.7925000e+01	  -1.8044727e+00	  -1.8860327e-01	
   6.7980000e+01	  -1.8395021e+00	  -1.8508415e-01	
   6.8035000e+01	  -1.8707102e+00	  -1.8122364e-01	
   6.8090000e+01	  -1.8975390e+00	  -1.7705250e-01	
   6.8145000e+01	  -1.9195537e+00	  -1.7262629e-01	
   6.8200000e+01	  -1.9364393e+00	  -1.6801840e-01	
   6.8255000e+01	  -1.9479894e+00	  -1.6330975e-01	
   6.8310000e+01	  -1.9540934e+00	  -1.5857935e-01	
   6.8365000e+01	  -1.9547202e+00	  -1.5389814e-01	
   6.8420000e+01	  -1.9499023e+00	  -1.4932664e-01	
   6.8475000e+01	  -1.9397214e+00	  -1.4491537e-01	
   6.8530000e+01	  -1.9243023e+00	  -1.4070822e-01	
   6.8585000e+01	  -1.9038154e+00	  -1.3674856e-01	
   6.8640000e+01	  -1.8784894e+00	  -1.3308682e-01	
   6.8695000e+01	  -1.8486271e+00	  -1.2978716e-01	
   6.8750000e+01	  -1.8146194e+00	  -1.2693158e-01	
   6.8805000e+01	  -1.7769536e+00	  -1.2461962e-01	
   6.8860000e+01	  -1.7362109e+00	  -1.2296264e-01	
   6.8915000e+01	  -1.6930549e+00	  -1.2207360e-01	
   6.8970000e+01	  -1.6482141e+00	  -1.2205532e-01	
   6.9025000e+01	  -1.6024625e+00	  -1.2299050e-01	
   6.9080000e+01	  -1.5565983e+00	  -1.2493424e-01	
   6.9135000e+01	  -1.5114204e+00	  -1.2790940e-01	
   6.9190000e+01	  -1.4677051e+00	  -1.3190553e-01	
   6.9245000e+01	  -1.4261842e+00	  -1.3688214e-01	
   6.9300000e+01	  -1.3875244e+00	  -1.4277563e-01	
   6.9355000e+01	  -1.3523106e+00	  -1.4950797e-01	
   6.9410000e+01	  -1.3210327e+00	  -1.5699548e-01	
   6.9465000e+01	  -1.2940764e+00	  -1.6515645e-01	
   6.9520000e+01	  -1.2717161e+00	  -1.7391586e-01	
   6.9575000e+01	  -1.2541062e+00	  -1.8320604e-01	
   6.9630000e+01	  -1.2412732e+00	  -1.9296344e-01	
   6.9685000e+01	  -1.2331108e+00	  -2.0312366e-01	
   6.9740000e+01	  -1.2293824e+00	  -2.1361644e-01	
   6.9795000e+01	  -1.2297296e+00	  -2.2436157e-01	
   6.9850000e+01	  -1.2336864e+00	  -2.3526668e-01	
   6.9905000e+01	  -1.2407002e+00	  -2.4622775e-01	
   6.9960000e+01	  -1.2501600e+00	  -2.5713227e-01	
   7.0015000e+01	  -1.2614293e+00	  -2.6786434e-01	
   7.0070000e+01	  -1.2738835e+00	  -2.7831085e-01	
   7.0125000e+01	  -1.2869449e+00	  -2.8836773e-01	
   7.0180000e+01	  -1.3001108e+00	  -2.9794466e-01	
   7.0235000e+01	  -1.3129685e+00	  -3.0696642e-01	
   7.0290000e+01	  -1.3251977e+00	  -3.1537076e-01	
   7.0345000e+01	  -1.3365628e+00	  -3.2310472e-01	
   7.0400000e+01	  -1.3468999e+00	  -3.3012178e-01	
   7.0455000e+01	  -1.3560991e+00	  -3.3638116e-01	
   7.0510000e+01	  -1.3640849e+00	  -3.4184916e-01	
   7.0565000e+01	  -1.3707993e+00	  -3.4650208e-01	
   7.0620000e+01	  -1.3761913e+00	  -3.5033021e-01	
   7.0675000e+01	  -1.3802134e+00	  -3.5334122e-01	
   7.0730000e+01	  -1.3828261e+00	  -3.5556205e-01	
   7.0785000e+01	  -1.3840055e+00	  -3.5703877e-01	
   7.0840000e+01	  -1.3837529e+00	  -3.5783492e-01	
   7.0895000e+01	  -1.3821019e+00	  -3.5802756e-01	
   7.0950000e+01	  -1.3791213e+00	  -3.5770006e-01	
   7.1005000e+01	  -1.3749137e+00	  -3.5693246e-01	
   7.1060000e+01	  -1.3696124e+00	  -3.5579179e-01	
   7.1115000e+01	  -1.3633781e+00	  -3.5432539e-01	
   7.1170000e+01	  -1.3563960e+00	  -3.5255896e-01	
   7.1225000e+01	  -1.3488724e+00	  -3.5049943e-01	
   7.1280000e+01	  -1.3410284e+00	  -3.4814143e-01	
   7.1335000e+01	  -1.3330913e+00	  -3.4547564e-01	
   7.1390000e+01	  -1.3252818e+00	  -3.4249782e-01	
   7.1445000e+01	  -1.3178020e+00	  -3.3921756e-01	
   7.1500000e+01	  -1.3108262e+00	  -3.3566583e-01	
   7.1555000e+01	  -1.3044936e+00	  -3.3189870e-01	
   7.1610000e+01	  -1.2988994e+00	  -3.2799538e-01	
   7.1665000e+01	  -1.2940818e+00	  -3.2404977e-01	
   7.1720000e+01	  -1.2900066e+00	  -3.2015842e-01	
   7.1775000e+01	  -1.2865517e+00	  -3.1640856e-01	
   7.1830000e+01	  -1.2834974e+00	  -3.1286881e-01	
   7.1885000e+01	  -1.2805248e+00	  -3.0958368e-01	
   7.1940000e+01	  -1.2772282e+00	  -3.0657186e-01	
   7.1995000e+01	  -1.2731401e+00	  -3.0382856e-01	
   7.2050000e+01	  -1.2677664e+00	  -3.0133090e-01	
   7.2105000e+01	  -1.2606247e+00	  -2.9904551e-01	
   7.2160000e+01	  -1.2512820e+00	  -2.9693649e-01	
   7.2215000e+01	  -1.2393868e+00	  -2.9497247e-01	
   7.2270000e+01	  -1.2246947e+00	  -2.9313102e-01	
   7.2325000e+01	  -1.2070817e+00	  -2.9139971e-01	
   7.2380000e+01	  -1.1865471e+00	  -2.8977411e-01	
   7.2435000e+01	  -1.1632085e+00	  -2.8825411e-01	
   7.2490000e+01	  -1.1372886e+00	  -2.8683978e-01	
   7.2545000e+01	  -1.1090968e+00	  -2.8552728e-01	
   7.2600000e+01	  -1.0790054e+00	  -2.8430582e-01	
   7.2655000e+01	  -1.0474274e+00	  -2.8315628e-01	
   7.2710000e+01	  -1.0147964e+00	  -2.8205177e-01	
   7.2765000e+01	  -9.8155185e-01	  -2.8096000e-01	
   7.2820000e+01	  -9.4812628e-01	  -2.7984785e-01	
   7.2875000e+01	  -9.1493682e-01	  -2.7868856e-01	
   7.2930000e+01	  -8.8237903e-01	  -2.7746952e-01	
   7.2985000e+01	  -8.5082167e-01	  -2.7619723e-01	
   7.3040000e+01	  -8.2059984e-01	  -2.7489667e-01	
   7.3095000e+01	  -7.9200700e-01	  -2.7360484e-01	
   7.3150000e+01	  -7.6528725e-01	  -2.7236045e-01	
   7.3205000e+01	  -7.4062879e-01	  -2.7119342e-01	
   7.3260000e+01	  -7.1815960e-01	  -2.7011689e-01	
   7.3315000e+01	  -6.9794623e-01	  -2.6912370e-01	
   7.3370000e+01	  -6.7999690e-01	  -2.6818677e-01	
   7.3425000e+01	  -6.6426845e-01	  -2.6726253e-01	
   7.3480000e+01	  -6.5067665e-01	  -2.6629648e-01	
   7.3535000e+01	  -6.3911047e-01	  -2.6523102e-01	
   7.3590000e+01	  -6.2944971e-01	  -2.6401473e-01	
   7.3645000e+01	  -6.2158283e-01	  -2.6261056e-01	
   7.3700000e+01	  -6.1541923e-01	  -2.6099976e-01	
   7.3755000e+01	  -6.1089266e-01	  -2.5918014e-01	
   7.3810000e+01	  -6.0795528e-01	  -2.5715993e-01	
   7.3865000e+01	  -6.0656498e-01	  -2.5494976e-01	
   7.3920000e+01	  -6.0667075e-01	  -2.5255581e-01	
   7.3975000e+01	  -6.0820177e-01	  -2.4997578e-01	
   7.4030000e+01	  -6.1106242e-01	  -2.4719800e-01	
   7.4085000e+01	  -6.1513116e-01	  -2.4420277e-01	
   7.4140000e+01	  -6.2026107e-01	  -2.4096503e-01	
   7.4195000e+01	  -6.2628325e-01	  -2.3745857e-01	
   7.4250000e+01	  -6.3301379e-01	  -2.3366232e-01	
   7.4305000e+01	  -6.4026297e-01	  -2.2956749e-01	
   7.4360000e+01	  -6.4784311e-01	  -2.2518354e-01	
   7.4415000e+01	  -6.5557365e-01	  -2.2054047e-01	
   7.4470000e+01	  -6.6328362e-01	  -2.1568633e-01	
   7.4525000e+01	  -6.7081243e-01	  -2.1068051e-01	
   7.4580000e+01	  -6.7800937e-01	  -2.0558440e-01	
   7.4635000e+01	  -6.8473240e-01	  -2.0045165e-01	
   7.4690000e+01	  -6.9084758e-01	  -1.9532089e-01	
   7.4745000e+01	  -6.9623074e-01	  -1.9021251e-01	
   7.4800000e+01	  -7.0077025e-01	  -1.8512981e-01	
   7.4855000e+01	  -7.0436892e-01	  -1.8006371e-01	
   7.4910000e+01	  -7.0694412e-01	  -1.7500009e-01	
   7.4965000e+01	  -7.0842779e-01	  -1.6992837e-01	
   7.5020000e+01	  -7.0876750e-01	  -1.6484949e-01	
   7.5075000e+01	  -7.0792847e-01	  -1.5978188e-01	
   7.5130000e+01	  -7.0589528e-01	  -1.5476435e-01	
   7.5185000e+01	  -7.0267043e-01	  -1.4985485e-01	
   7.5240000e+01	  -6.9826682e-01	  -1.4512390e-01	
   7.5295000e+01	  -6.9269406e-01	  -1.4064346e-01	
   7.5350000e+01	  -6.8594293e-01	  -1.3647476e-01	
   7.5405000e+01	  -6.7797265e-01	  -1.3265861e-01	
   7.5460000e+01	  -6.6870371e-01	  -1.2920984e-01	
   7.5515000e+01	  -6.5801699e-01	  -1.2611585e-01	
   7.5570000e+01	  -6.4576004e-01	  -1.2333960e-01	
   7.5625000e+01	  -6.3176069e-01	  -1.2082679e-01	
   7.5680000e+01	  -6.1584799e-01	  -1.1851571e-01	
   7.5735000e+01	  -5.9787898e-01	  -1.1634708e-01	
   7.5790000e+01	  -5.7776748e-01	  -1.1427228e-01	
   7.5845000e+01	  -5.5550922e-01	  -1.1225936e-01	
   7.5900000e+01	  -5.3119756e-01	  -1.1029659e-01	
   7.5955000e+01	  -5.0502636e-01	  -1.0839221e-01	
   7.6010000e+01	  -4.7727881e-01	  -1.0656988e-01	
   7.6065000e+01	  -4.4830477e-01	  -1.0486034e-01	
   7.6120000e+01	  -4.1849152e-01	  -1.0329150e-01	
   7.6175000e+01	  -3.8823233e-01	  -1.0187856e-01	
   7.6230000e+01	  -3.5789761e-01	  -1.0061658e-01	
   7.6285000e+01	  -3.2781475e-01	  -9.9477857e-02	
   7.6340000e+01	  -2.9826014e-01	  -9.8414730e-02	
   7.6395000e+01	  -2.6946233e-01	  -9.7365811e-02	
   7.6450000e+01	  -2.4161133e-01	  -9.6263275e-02	
   7.6505000e+01	  -2.1487011e-01	  -9.5040488e-02	
   7.6560000e+01	  -1.8938503e-01	  -9.3640116e-02	
   7.6615000e+01	  -1.6529323e-01	  -9.2022153e-02	
   7.6670000e+01	  -1.4272583e-01	  -9.0170094e-02	
   7.6725000e+01	  -1.2180548e-01	  -8.8093018e-02	
   7.6780000e+01	  -1.0263713e-01	  -8.5822090e-02	
   7.6835000e+01	  -8.5292891e-02	  -8.3401638e-02	
   7.6890000e+01	  -6.9795931e-02	  -8.0877493e-02	
   7.6945000e+01	  -5.6109574e-02	  -7.8286838e-02	
   7.7000000e+01	  -4.4135537e-02	  -7.5652963e-02	
   7.7055000e+01	  -3.3721146e-02	  -7.2985509e-02	
   7.7110000e+01	  -2.4672578e-02	  -7.0284311e-02	
   7.7165000e+01	  -1.6771409e-02	  -6.7544339e-02	
   7.7220000e+01	  -9.7933992e-03	  -6.4760305e-02	
   7.7275000e+01	  -3.5281593e-03	  -6.1930358e-02	
   7.7330000e+01	   2.2037073e-03	  -5.9058257e-02	
   7.7385000e+01	   7.5394557e-03	  -5.6153567e-02	
   7.7440000e+01	   1.2570438e-02	  -5.3229716e-02	
   7.7495000e+01	   1.7345660e-02	  -5.0299487e-02	
   7.7550000e+01	   2.1881661e-02	  -4.7367824e-02	
   7.7605000e+01	   2.6175825e-02	  -4.4423731e-02	
   7.7660000e+01	   3.0218980e-02	  -4.1434394e-02	
   7.7715000e+01	   3.4004550e-02	  -3.8343722e-02	
   7.7770000e+01	   3.7534470e-02	  -3.5075283e-02	
   7.7825000e+01	   4.0823212e-02	  -3.1538574e-02	
   7.7880000e+01	   4.3899449e-02	  -2.7637874e-02	
   7.7935000e+01	   4.6803492e-02	  -2.3283172e-02	
   7.7990000e+01	   4.9580364e-02	  -1.8401681e-02	
   7.8045000e+01	   5.2270709e-02	  -1.2947416e-02	
   7.8100000e+01	   5.4901673e-02	  -6.9068268e-03	
   7.8155000e+01	   5.7479504e-02	  -2.9984517e-04	
   7.8210000e+01	   5.9986445e-02	   6.8237481e-03	
   7.8265000e+01	   6.2383405e-02	   1.4392423e-02	
   7.8320000e+01	   6.4616014e-02	   2.2324007e-02	
   7.8375000e+01	   6.6620289e-02	   3.0537001e-02	
   7.8430000e+01	   6.8326498e-02	   3.8959298e-02	
   7.8485000e+01	   6.9661633e-02	   4.7532539e-02	
   7.8540000e+01	   7.0550024e-02	   5.6211364e-02	
   7.8595000e+01	   7.0910735e-02	   6.4957877e-02	
   7.8650000e+01	   7.0651428e-02	   7.3732928e-02	
   7.8705000e+01	   6.9660417e-02	   8.2487042e-02	
   7.8760000e+01	   6.7799833e-02	   9.1154110e-02	
   7.8815000e+01	   6.4902873e-02	   9.9649905e-02	
   7.8870000e+01	   6.0778529e-02	   1.0787619e-01	
   7.8925000e+01	   5.5227367e-02	   1.1573037e-01	
   7.8980000e+01	   4.8068441e-02	   1.2311926e-01	
   7.9035000e+01	   3.9171691e-02	   1.2997369e-01	
   7.9090000e+01	   2.8488093e-02	   1.3626040e-01	
   7.9145000e+01	   1.6072826e-02	   1.4198982e-01	
   7.9200000e+01	   2.0993009e-03	   1.4721944e-01	
   7.9255000e+01	  -1.3137837e-02	   1.5205146e-01	
   7.9310000e+01	  -2.9231574e-02	   1.5662386e-01	
   7.9365000e+01	  -4.5681629e-02	   1.6109603e-01	
   7.9420000e+01	  -6.1920952e-02	   1.6563128e-01	
   7.9475000e+01	  -7.7347383e-02	   1.7037878e-01	
   7.9530000e+01	  -9.1358221e-02	   1.7545728e-01	
   7.9585000e+01	  -1.0338393e-01	   1.8094311e-01	
   7.9640000e+01	  -1.1291550e-01	   1.8686518e-01	
   7.9695000e+01	  -1.1952095e-01	   1.9320790e-01	
   7.9750000e+01	  -1.2285076e-01	   1.9991981e-01	
   7.9805000e+01	  -1.2263680e-01	   2.0692461e-01	
   7.9860000e+01	  -1.1868800e-01	   2.1413208e-01	
   7.9915000e+01	  -1.1088397e-01	   2.2144770e-01	
   7.9970000e+01	  -9.9168489e-02	   2.2877945e-01	
   8.0025000e+01	  -8.3546763e-02	   2.3604061e-01	
   8.0080000e+01	  -6.4088103e-02	   2.4314882e-01	
   8.0135000e+01	  -4.0931333e-02	   2.5002300e-01	
   8.0190000e+01	  -1.4290512e-02	   2.5657985e-01	
   8.0245000e+01	   1.5539646e-02	   2.6273156e-01	
   8.0300000e+01	   4.8180267e-02	   2.6838545e-01	
   8.0355000e+01	   8.3170675e-02	   2.7344630e-01	
   8.0410000e+01	   1.1998025e-01	   2.7782148e-01	
   8.0465000e+01	   1.5803052e-01	   2.8142844e-01	
   8.0520000e+01	   1.9672483e-01	   2.8420352e-01	
   8.0575000e+01	   2.3548089e-01	   2.8611024e-01	
   8.0630000e+01	   2.7376067e-01	   2.8714523e-01	
   8.0685000e+01	   3.1109345e-01	   2.8734035e-01	
   8.0740000e+01	   3.4708983e-01	   2.8676069e-01	
   8.0795000e+01	   3.8144616e-01	   2.8549859e-01	
   8.0850000e+01	   4.1394036e-01	   2.8366387e-01	
   8.0905000e+01	   4.4442194e-01	   2.8137080e-01	
   8.0960000e+01	   4.7279980e-01	   2.7872405e-01	
   8.1015000e+01	   4.9903116e-01	   2.7580734e-01	
   8.1070000e+01	   5.2311316e-01	   2.7267767e-01	
   8.1125000e+01	   5.4507804e-01	   2.6936592e-01	
   8.1180000e+01	   5.6499070e-01	   2.6588339e-01	
   8.1235000e+01	   5.8294735e-01	   2.6223238e-01	
   8.1290000e+01	   5.9907384e-01	   2.5841755e-01	
   8.1345000e+01	   6.1352240e-01	   2.5445463e-01	
   8.1400000e+01	   6.2646601e-01	   2.5037505e-01	
   8.1455000e+01	   6.3809116e-01	   2.4622715e-01	
   8.1510000e+01	   6.4859076e-01	   2.4207510e-01	
   8.1565000e+01	   6.5815702e-01	   2.3799496e-01	
   8.1620000e+01	   6.6697354e-01	   2.3406766e-01	
   8.1675000e+01	   6.7520816e-01	   2.3037037e-01	
   8.1730000e+01	   6.8300917e-01	   2.2696858e-01	
   8.1785000e+01	   6.9050669e-01	   2.2391096e-01	
   8.1840000e+01	   6.9781855e-01	   2.2122840e-01	
   8.1895000e+01	   7.0505818e-01	   2.1893735e-01	
   8.1950000e+01	   7.1234119e-01	   2.1704590e-01	
   8.2005000e+01	   7.1978845e-01	   2.1555969e-01	
   8.2060000e+01	   7.2752519e-01	   2.1448485e-01	
   8.2115000e+01	   7.3567732e-01	   2.1382707e-01	
   8.2170000e+01	   7.4436612e-01	   2.1358742e-01	
   8.2225000e+01	   7.5370152e-01	   2.1375659e-01	
   8.2280000e+01	   7.6377340e-01	   2.1430920e-01	
   8.2335000e+01	   7.7464149e-01	   2.1519933e-01	
   8.2390000e+01	   7.8632592e-01	   2.1635833e-01	
   8.2445000e+01	   7.9879986e-01	   2.1769622e-01	
   8.2500000e+01	   8.1198477e-01	   2.1910683e-01	
   8.2555000e+01	   8.2574899e-01	   2.2047591e-01	
   8.2610000e+01	   8.3991176e-01	   2.2169140e-01	
   8.2665000e+01	   8.5425372e-01	   2.2265483e-01	
   8.2720000e+01	   8.6853100e-01	   2.2329110e-01	
   8.2775000e+01	   8.8248823e-01	   2.2355413e-01	
   8.2830000e+01	   8.9586754e-01	   2.2342698e-01	
   8.2885000e+01	   9.0841374e-01	   2.2291724e-01	
   8.2940000e+01	   9.1987596e-01	   2.2204838e-01	
   8.2995000e+01	   9.3000683e-01	   2.2084920e-01	
   8.3050000e+01	   9.3856103e-01	   2.1934386e-01	
   8.3105000e+01	   9.4529537e-01	   2.1754499e-01	
   8.3160000e+01	   9.4997184e-01	   2.1545016e-01	
   8.3215000e+01	   9.5236495e-01	   2.1304130e-01	
   8.3270000e+01	   9.5227499e-01	   2.1028765e-01	
   8.3325000e+01	   9.4954744e-01	   2.0715249e-01	
   8.3380000e+01	   9.4409579e-01	   2.0360237e-01	
   8.3435000e+01	   9.3592217e-01	   1.9961609e-01	
   8.3490000e+01	   9.2513220e-01	   1.9519041e-01	
   8.3545000e+01	   9.1194263e-01	   1.9034197e-01	
   8.3600000e+01	   8.9668139e-01	   1.8510560e-01	
   8.3655000e+01	   8.7977892e-01	   1.7952939e-01	
   8.3710000e+01	   8.6175014e-01	   1.7366654e-01	
   8.3765000e+01	   8.4316835e-01	   1.6756608e-01	
   8.3820000e+01	   8.2463488e-01	   1.6126520e-01	
   8.3875000e+01	   8.0674963e-01	   1.5478450e-01	
   8.3930000e+01	   7.9008721e-01	   1.4812668e-01	
   8.3985000e+01	   7.7518056e-01	   1.4127947e-01	
   8.4040000e+01	   7.6251263e-01	   1.3422356e-01	
   8.4095000e+01	   7.5251323e-01	   1.2694376e-01	
   8.4150000e+01	   7.4555596e-01	   1.1943938e-01	
   8.4205000e+01	   7.4195071e-01	   1.1173025e-01	
   8.4260000e+01	   7.4193100e-01	   1.0385715e-01	
   8.4315000e+01	   7.4563901e-01	   9.5877279e-02	
   8.4370000e+01	   7.5311130e-01	   8.7856100e-02	
   8.4425000e+01	   7.6426726e-01	   7.9857225e-02	
   8.4480000e+01	   7.7890196e-01	   7.1932258e-02	
   8.4535000e+01	   7.9668461e-01	   6.4112492e-02	
   8.4590000e+01	   8.1716379e-01	   5.6403959e-02	
   8.4645000e+01	   8.3978161e-01	   4.8787071e-02	
   8.4700000e+01	   8.6389937e-01	   4.1222000e-02	
   8.4755000e+01	   8.8883425e-01	   3.3659679e-02	
   8.4810000e+01	   9.1390084e-01	   2.6055604e-02	
   8.4865000e+01	   9.3844875e-01	   1.8382050e-02	
   8.4920000e+01	   9.6189069e-01	   1.0635815e-02	
   8.4975000e+01	   9.8372145e-01	   2.8414413e-03	
   8.5030000e+01	   1.0035307e+00	  -4.9488168e-03	
   8.5085000e+01	   1.0210107e+00	  -1.2657716e-02	
   8.5140000e+01	   1.0359589e+00	  -2.0188789e-02	
   8.5195000e+01	   1.0482744e+00	  -2.7434990e-02	
   8.5250000e+01	   1.0579492e+00	  -3.4288957e-02	
   8.5305000e+01	   1.0650558e+00	  -4.0652677e-02	
   8.5360000e+01	   1.0697313e+00	  -4.6444091e-02	
   8.5415000e+01	   1.0721656e+00	  -5.1598946e-02	
   8.5470000e+01	   1.0725946e+00	  -5.6067983e-02	
   8.5525000e+01	   1.0712990e+00	  -5.9811532e-02	
   8.5580000e+01	   1.0686029e+00	  -6.2794227e-02	
   8.5635000e+01	   1.0648694e+00	  -6.4981711e-02	
   8.5690000e+01	   1.0604912e+00	  -6.6340235e-02	
   8.5745000e+01	   1.0558750e+00	  -6.6839704e-02	
   8.5800000e+01	   1.0514192e+00	  -6.6459738e-02	
   8.5855000e+01	   1.0474903e+00	  -6.5196772e-02	
   8.5910000e+01	   1.0444003e+00	  -6.3069776e-02	
   8.5965000e+01	   1.0423892e+00	  -6.0123267e-02	
   8.6020000e+01	   1.0416116e+00	  -5.6427345e-02	
   8.6075000e+01	   1.0421314e+00	  -5.2074246e-02	
   8.6130000e+01	   1.0439246e+00	  -4.7170768e-02	
   8.6185000e+01	   1.0468905e+00	  -4.1827810e-02	
   8.6240000e+01	   1.0508650e+00	  -3.6150276e-02	
   8.6295000e+01	   1.0556342e+00	  -3.0229879e-02	
   8.6350000e+01	   1.0609476e+00	  -2.4141127e-02	
   8.6405000e+01	   1.0665317e+00	  -1.7940194e-02	
   8.6460000e+01	   1.0721005e+00	  -1.1666890e-02	
   8.6515000e+01	   1.0773603e+00	  -5.3493071e-03	
   8.6570000e+01	   1.0820129e+00	   9.9049333e-04	
   8.6625000e+01	   1.0857586e+00	   7.3311251e-03	
   8.6680000e+01	   1.0883021e+00	   1.3647259e-02	
   8.6735000e+01	   1.0893592e+00	   1.9906434e-02	
   8.6790000e+01	   1.0886687e+00	   2.6068976e-02	
   8.6845000e+01	   1.0860103e+00	   3.2092262e-02	
   8.6900000e+01	   1.0812267e+00	   3.7938676e-02	
   8.6955000e+01	   1.0742445e+00	   4.3585016e-02	
   8.7010000e+01	   1.0650882e+00	   4.9030863e-02	
   8.7065000e+01	   1.0538871e+00	   5.4303676e-02	
   8.7120000e+01	   1.0408743e+00	   5.9458691e-02	
   8.7175000e+01	   1.0263778e+00	   6.4572702e-02	
   8.7230000e+01	   1.0108015e+00	   6.9732718e-02	
   8.7285000e+01	   9.9459553e-01	   7.5022128e-02	
   8.7340000e+01	   9.7821982e-01	   8.0507062e-02	
   8.7395000e+01	   9.6210736e-01	   8.6224998e-02	
   8.7450000e+01	   9.4663543e-01	   9.2177550e-02	
   8.7505000e+01	   9.3211120e-01	   9.8329447e-02	
   8.7560000e+01	   9.1877220e-01	   1.0461451e-01	
   8.7615000e+01	   9.0679622e-01	   1.1094685e-01	
   8.7670000e+01	   8.9631328e-01	   1.1723352e-01	
   8.7725000e+01	   8.8741620e-01	   1.2338553e-01	
   8.7780000e+01	   8.8016896e-01	   1.2932511e-01	
   8.7835000e+01	   8.7461072e-01	   1.3498842e-01	
   8.7890000e+01	   8.7075332e-01	   1.4032336e-01	
   8.7945000e+01	   8.6857312e-01	   1.4528406e-01	
   8.8000000e+01	   8.6800075e-01	   1.4982425e-01	
   8.8055000e+01	   8.6891239e-01	   1.5389089e-01	
   8.8110000e+01	   8.7112412e-01	   1.5741877e-01	
   8.8165000e+01	   8.7439147e-01	   1.6032731e-01	
   8.8220000e+01	   8.7841629e-01	   1.6252141e-01	
   8.8275000e+01	   8.8286227e-01	   1.6389745e-01	
   8.8330000e+01	   8.8737675e-01	   1.6435396e-01	
   8.8385000e+01	   8.9161489e-01	   1.6380536e-01	
   8.8440000e+01	   8.9526206e-01	   1.6219594e-01	
   8.8495000e+01	   8.9805169e-01	   1.5951029e-01	
   8.8550000e+01	   8.9977666e-01	   1.5577805e-01	
   8.8605000e+01	   9.0029440e-01	   1.5107277e-01	
   8.8660000e+01	   8.9952707e-01	   1.4550626e-01	
   8.8715000e+01	   8.9745645e-01	   1.3921936e-01	
   8.8770000e+01	   8.9411195e-01	   1.3236952e-01	
   8.8825000e+01	   8.8955335e-01	   1.2511618e-01	
   8.8880000e+01	   8.8385372e-01	   1.1760659e-01	
   8.8935000e+01	   8.7708872e-01	   1.0996493e-01	
   8.8990000e+01	   8.6933401e-01	   1.0228716e-01	
   8.9045000e+01	   8.6066940e-01	   9.4642760e-02	
   8.9100000e+01	   8.5118650e-01	   8.7081640e-02	
   8.9155000e+01	   8.4099618e-01	   7.9642798e-02	
   8.9210000e+01	   8.3023235e-01	   7.2360751e-02	
   8.9265000e+01	   8.1904938e-01	   6.5268238e-02	
   8.9320000e+01	   8.0761216e-01	   5.8395908e-02	
   8.9375000e+01	   7.9608018e-01	   5.1770554e-02	
   8.9430000e+01	   7.8458775e-01	   4.5412615e-02	
   8.9485000e+01	   7.7322337e-01	   3.9332934e-02	
   8.9540000e+01	   7.6201231e-01	   3.3529196e-02	
   8.9595000e+01	   7.5090642e-01	   2.7983441e-02	
   8.9650000e+01	   7.3978328e-01	   2.2662298e-02	
   8.9705000e+01	   7.2845483e-01	   1.7521197e-02	
   8.9760000e+01	   7.1668476e-01	   1.2512805e-02	
   8.9815000e+01	   7.0421264e-01	   7.5982258e-03	
   8.9870000e+01	   6.9078105e-01	   2.7579181e-03	
   8.9925000e+01	   6.7616110e-01	  -2.0006366e-03	
   8.9980000e+01	   6.6017115e-01	  -6.6400616e-03	
   9.0035000e+01	   6.4268604e-01	  -1.1095254e-02	
   9.0090000e+01	   6.2363688e-01	  -1.5280267e-02	
   9.0145000e+01	   6.0300478e-01	  -1.9098974e-02	
   9.0200000e+01	   5.8081163e-01	  -2.2457736e-02	
   9.0255000e+01	   5.5711056e-01	  -2.5277680e-02	
   9.0310000e+01	   5.3197825e-01	  -2.7504557e-02	
   9.0365000e+01	   5.0551157e-01	  -2.9114971e-02	
   9.0420000e+01	   4.7783060e-01	  -3.0118098e-02	
   9.0475000e+01	   4.4908928e-01	  -3.0552091e-02	
   9.0530000e+01	   4.1949145e-01	  -3.0475841e-02	
   9.0585000e+01	   3.8930592e-01	  -2.9958967e-02	
   9.0640000e+01	   3.5887426e-01	  -2.9073078e-02	
   9.0695000e+01	   3.2860912e-01	  -2.7885497e-02	
   9.0750000e+01	   2.9898362e-01	  -2.6455666e-02	
   9.0805000e+01	   2.7051406e-01	  -2.4834832e-02	
   9.0860000e+01	   2.4373829e-01	  -2.3069051e-02	
   9.0915000e+01	   2.1919268e-01	  -2.1204032e-02	
   9.0970000e+01	   1.9739036e-01	  -1.9289592e-02	
   9.1025000e+01	   1.7880180e-01	  -1.7382356e-02	
   9.1080000e+01	   1.6383784e-01	  -1.5546552e-02	
   9.1135000e+01	   1.5283676e-01	  -1.3852980e-02	
   9.1190000e+01	   1.4605895e-01	  -1.2375305e-02	
   9.1245000e+01	   1.4369064e-01	  -1.1182895e-02	
   9.1300000e+01	   1.4585301e-01	  -1.0331364e-02	
   9.1355000e+01	   1.5261202e-01	  -9.8538206e-03	
   9.1410000e+01	   1.6398646e-01	  -9.7555140e-03	
   9.1465000e+01	   1.7995170e-01	  -1.0013224e-02	
   9.1520000e+01	   2.0043650e-01	  -1.0579627e-02	
   9.1575000e+01	   2.2531228e-01	  -1.1392111e-02	
   9.1630000e+01	   2.5437701e-01	  -1.2384466e-02	
   9.1685000e+01	   2.8733733e-01	  -1.3498949e-02	
   9.1740000e+01	   3.2379326e-01	  -1.4696423e-02	
   9.1795000e+01	   3.6322944e-01	  -1.5963142e-02	
   9.1850000e+01	   4.0501620e-01	  -1.7313084e-02	
   9.1905000e+01	   4.4842254e-01	  -1.8784843e-02	
   9.1960000e+01	   4.9264172e-01	  -2.0433267e-02	
   9.2015000e+01	   5.3682710e-01	  -2.2317954e-02	
   9.2070000e+01	   5.8013302e-01	  -2.4491770e-02	
   9.2125000e+01	   6.2175517e-01	  -2.6991432e-02	
   9.2180000e+01	   6.6096597e-01	  -2.9830888e-02	
   9.2235000e+01	   6.9714048e-01	  -3.2998184e-02	
   9.2290000e+01	   7.2976930e-01	  -3.6456743e-02	
   9.2345000e+01	   7.5845881e-01	  -4.0150955e-02	
   9.2400000e+01	   7.8292429e-01	  -4.4014459e-02	
   9.2455000e+01	   8.0298141e-01	  -4.7979071e-02	
   9.2510000e+01	   8.1853773e-01	  -5.1983124e-02	
   9.2565000e+01	   8.2958397e-01	  -5.5978152e-02	
   9.2620000e+01	   8.3618789e-01	  -5.9932259e-02	
   9.2675000e+01	   8.3849350e-01	  -6.3829128e-02	
   9.2730000e+01	   8.3672389e-01	  -6.7663566e-02	
   9.2785000e+01	   8.3118304e-01	  -7.1435545e-02	
   9.2840000e+01	   8.2225394e-01	  -7.5144216e-02	
   9.2895000e+01	   8.1039267e-01	  -7.8782781e-02	
   9.2950000e+01	   7.9611775e-01	  -8.2335026e-02	
   9.3005000e+01	   7.7999343e-01	  -8.5774271e-02	
   9.3060000e+01	   7.6260752e-01	  -8.9064857e-02	
   9.3115000e+01	   7.4454631e-01	  -9.2165558e-02	
   9.3170000e+01	   7.2636931e-01	  -9.5034094e-02	
   9.3225000e+01	   7.0858558e-01	  -9.7631725e-02	
   9.3280000e+01	   6.9163544e-01	  -9.9926516e-02	
   9.3335000e+01	   6.7588151e-01	  -1.0189383e-01	
   9.3390000e+01	   6.6161013e-01	  -1.0351376e-01	
   9.3445000e+01	   6.4903976e-01	  -1.0476650e-01	
   9.3500000e+01	   6.3833277e-01	  -1.0562739e-01	
   9.3555000e+01	   6.2960794e-01	  -1.0606315e-01	
   9.3610000e+01	   6.2295048e-01	  -1.0603131e-01	
   9.3665000e+01	   6.1841664e-01	  -1.0548375e-01	
   9.3720000e+01	   6.1603187e-01	  -1.0437425e-01	
   9.3775000e+01	   6.1578478e-01	  -1.0266730e-01	
   9.3830000e+01	   6.1762054e-01	  -1.0034623e-01	
   9.3885000e+01	   6.2143595e-01	  -9.7419222e-02	
   9.3940000e+01	   6.2707897e-01	  -9.3922551e-02	
   9.3995000e+01	   6.3435619e-01	  -8.9919331e-02	
   9.4050000e+01	   6.4305066e-01	  -8.5492944e-02	
   9.4105000e+01	   6.5294682e-01	  -8.0736818e-02	
   9.4160000e+01	   6.6385608e-01	  -7.5743740e-02	
   9.4215000e+01	   6.7563673e-01	  -7.0597315e-02	
   9.4270000e+01	   6.8820471e-01	  -6.5366679e-02	
   9.4325000e+01	   7.0153420e-01	  -6.0104604e-02	
   9.4380000e+01	   7.1564809e-01	  -5.4849106e-02	
   9.4435000e+01	   7.3060033e-01	  -4.9628405e-02	
   9.4490000e+01	   7.4645305e-01	  -4.4468135e-02	
   9.4545000e+01	   7.6325179e-01	  -3.9399062e-02	
   9.4600000e+01	   7.8100278e-01	  -3.4463242e-02	
   9.4655000e+01	   7.9965732e-01	  -2.9716368e-02	
   9.4710000e+01	   8.1910716e-01	  -2.5224873e-02	
   9.4765000e+01	   8.3919080e-01	  -2.1058720e-02	
   9.4820000e+01	   8.5970818e-01	  -1.7282613e-02	
   9.4875000e+01	   8.8043950e-01	  -1.3947996e-02	
   9.4930000e+01	   9.0116406e-01	  -1.1086997e-02	
   9.4985000e+01	   9.2167582e-01	  -8.7091187e-03	
   9.5040000e+01	   9.4179371e-01	  -6.8018382e-03	
   9.5095000e+01	   9.6136628e-01	  -5.3356815e-03	
   9.5150000e+01	   9.8027177e-01	  -4.2724048e-03	
   9.5205000e+01	   9.9841493e-01	  -3.5737574e-03	
   9.5260000e+01	   1.0157208e+00	  -3.2091739e-03	
   9.5315000e+01	   1.0321257e+00	  -3.1618808e-03	
   9.5370000e+01	   1.0475686e+00	  -3.4325015e-03	
   9.5425000e+01	   1.0619874e+00	  -4.0387173e-03	
   9.5480000e+01	   1.0753218e+00	  -5.0106996e-03	
   9.5535000e+01	   1.0875200e+00	  -6.3837139e-03	
   9.5590000e+01	   1.0985451e+00	  -8.1897902e-03	
   9.5645000e+01	   1.1083814e+00	  -1.0450221e-02	
   9.5700000e+01	   1.1170388e+00	  -1.3170772e-02	
   9.5755000e+01	   1.1245556e+00	  -1.6341216e-02	
   9.5810000e+01	   1.1309986e+00	  -1.9939336e-02	
   9.5865000e+01	   1.1364610e+00	  -2.3937617e-02	
   9.5920000e+01	   1.1410565e+00	  -2.8310191e-02	
   9.5975000e+01	   1.1449124e+00	  -3.3038357e-02	
   9.6030000e+01	   1.1481602e+00	  -3.8113696e-02	
   9.6085000e+01	   1.1509282e+00	  -4.3538029e-02	
   9.6140000e+01	   1.1533357e+00	  -4.9320217e-02	
   9.6195000e+01	   1.1554888e+00	  -5.5471197e-02	
   9.6250000e+01	   1.1574785e+00	  -6.1999031e-02	
   9.6305000e+01	   1.1593806e+00	  -6.8904677e-02	
   9.6360000e+01	   1.1612573e+00	  -7.6178299e-02	
   9.6415000e+01	   1.1631596e+00	  -8.3796466e-02	
   9.6470000e+01	   1.1651271e+00	  -9.1721440e-02	
   9.6525000e+01	   1.1671860e+00	  -9.9903563e-02	
   9.6580000e+01	   1.1693443e+00	  -1.0828707e-01	
   9.6635000e+01	   1.1715850e+00	  -1.1681884e-01	
   9.6690000e+01	   1.1738598e+00	  -1.2545801e-01	
   9.6745000e+01	   1.1760856e+00	  -1.3418329e-01	
   9.6800000e+01	   1.1781471e+00	  -1.4299558e-01	
   9.6855000e+01	   1.1799055e+00	  -1.5191497e-01	
   9.6910000e+01	   1.1812109e+00	  -1.6097347e-01	
   9.6965000e+01	   1.1819147e+00	  -1.7020470e-01	
   9.7020000e+01	   1.1818825e+00	  -1.7963365e-01	
   9.7075000e+01	   1.1810028e+00	  -1.8926920e-01	
   9.7130000e+01	   1.1791905e+00	  -1.9910173e-01	
   9.7185000e+01	   1.1763876e+00	  -2.0910510e-01	
   9.7240000e+01	   1.1725613e+00	  -2.1924165e-01	
   9.7295000e+01	   1.1677017e+00	  -2.2946861e-01	
   9.7350000e+01	   1.1618190e+00	  -2.3974505e-01	
   9.7405000e+01	   1.1549390e+00	  -2.5003816e-01	
   9.7460000e+01	   1.1471011e+00	  -2.6032722e-01	
   9.7515000e+01	   1.1383620e+00	  -2.7060369e-01	
   9.7570000e+01	   1.1288047e+00	  -2.8086730e-01	
   9.7625000e+01	   1.1185497e+00	  -2.9111977e-01	
   9.7680000e+01	   1.1077640e+00	  -3.0135850e-01	
   9.7735000e+01	   1.0966643e+00	  -3.1157168e-01	
   9.7790000e+01	   1.0855167e+00	  -3.2173548e-01	
   9.7845000e+01	   1.0746294e+00	  -3.3181364e-01	
   9.7900000e+01	   1.0643401e+00	  -3.4175966e-01	
   9.7955000e+01	   1.0549965e+00	  -3.5152091e-01	
   9.8010000e+01	   1.0469351e+00	  -3.6104378e-01	
   9.8065000e+01	   1.0404587e+00	  -3.7027888e-01	
   9.8120000e+01	   1.0358155e+00	  -3.7918578e-01	
   9.8175000e+01	   1.0331824e+00	  -3.8773590e-01	
   9.8230000e+01	   1.0326553e+00	  -3.9591236e-01	
   9.8285000e+01	   1.0342466e+00	  -4.0370684e-01	
   9.8340000e+01	   1.0378898e+00	  -4.1111476e-01	
   9.8395000e+01	   1.0434493e+00	  -4.1813033e-01	
   9.8450000e+01	   1.0507349e+00	  -4.2474235e-01	
   9.8505000e+01	   1.0595172e+00	  -4.3093181e-01	
   9.8560000e+01	   1.0695381e+00	  -4.3667235e-01	
   9.8615000e+01	   1.0805180e+00	  -4.4193329e-01	
   9.8670000e+01	   1.0921570e+00	  -4.4668426e-01	
   9.8725000e+01	   1.1041339e+00	  -4.5090043e-01	
   9.8780000e+01	   1.1161029e+00	  -4.5456784e-01	
   9.8835000e+01	   1.1276941e+00	  -4.5768740e-01	
   9.8890000e+01	   1.1385201e+00	  -4.6027568e-01	
   9.8945000e+01	   1.1481896e+00	  -4.6236149e-01	
   9.9000000e+01	   1.1563244e+00	  -4.6397951e-01	
   9.9055000e+01	   1.1625797e+00	  -4.6516305e-01	
   9.9110000e+01	   1.1666647e+00	  -4.6593781e-01	
   9.9165000e+01	   1.1683628e+00	  -4.6631786e-01	
   9.9220000e+01	   1.1675471e+00	  -4.6630519e-01	
   9.9275000e+01	   1.1641894e+00	  -4.6589298e-01	
   9.9330000e+01	   1.1583600e+00	  -4.6507127e-01	
   9.9385000e+01	   1.1502187e+00	  -4.6383405e-01	
   9.9440000e+01	   1.1399992e+00	  -4.6218749e-01	
   9.9495000e+01	   1.1279895e+00	  -4.6015807e-01	
   9.9550000e+01	   1.1145114e+00	  -4.5779742e-01	
   9.9605000e+01	   1.0999045e+00	  -4.5518098e-01	
   9.9660000e+01	   1.0845146e+00	  -4.5239987e-01	
   9.9715000e+01	   1.0686877e+00	  -4.4954844e-01	
   9.9770000e+01	   1.0527650e+00	  -4.4671138e-01	
   9.9825000e+01	   1.0370796e+00	  -4.4395334e-01	
   9.9880000e+01	   1.0219520e+00	  -4.4131241e-01	
   9.9935000e+01	   1.0076822e+00	  -4.3879798e-01	
   9.9990000e+01	   9.9453711e-01	  -4.3639274e-01	
   1.0004500e+02	   9.8273705e-01	  -4.3405810e-01	
   1.0010000e+02	   9.7244131e-01	  -4.3174253e-01	
   1.0015500e+02	   9.6373519e-01	  -4.2939187e-01	
   1.0021000e+02	   9.5662145e-01	  -4.2695949e-01	
   1.0026500e+02	   9.5102087e-01	  -4.2441355e-01	
   1.0032000e+02	   9.4678446e-01	  -4.2173936e-01	
   1.0037500e+02	   9.4371512e-01	  -4.1893704e-01	
   1.0043000e+02	   9.4159390e-01	  -4.1601599e-01	
   1.0048500e+02	   9.4020495e-01	  -4.1298830e-01	
   1.0054000e+02	   9.3935437e-01	  -4.0986278e-01	
   1.0059500e+02	   9.3888007e-01	  -4.0664095e-01	
   1.0065000e+02	   9.3865303e-01	  -4.0331529e-01	
   1.0070500e+02	   9.3857252e-01	  -3.9986975e-01	
   1.0076000e+02	   9.3855894e-01	  -3.9628259e-01	
   1.0081500e+02	   9.3854570e-01	  -3.9253126e-01	
   1.0087000e+02	   9.3847032e-01	  -3.8859889e-01	
   1.0092500e+02	   9.3826540e-01	  -3.8448045e-01	
   1.0098000e+02	   9.3785133e-01	  -3.8018649e-01	
   1.0103500e+02	   9.3713263e-01	  -3.7574266e-01	
   1.0109000e+02	   9.3599887e-01	  -3.7118463e-01	
   1.0114500e+02	   9.3433000e-01	  -3.6654977e-01	
   1.0120000e+02	   9.3200418e-01	  -3.6186849e-01	
   1.0125500e+02	   9.2890516e-01	  -3.5715806e-01	
   1.0131000e+02	   9.2492559e-01	  -3.5242078e-01	
   1.0136500e+02	   9.1996593e-01	  -3.4764668e-01	
   1.0142000e+02	   9.1393089e-01	  -3.4281961e-01	
   1.0147500e+02	   9.0672602e-01	  -3.3792418e-01	
   1.0153000e+02	   8.9825494e-01	  -3.3295127e-01	
   1.0158500e+02	   8.8841777e-01	  -3.2790077e-01	
   1.0164000e+02	   8.7711360e-01	  -3.2278085e-01	
   1.0169500e+02	   8.6425065e-01	  -3.1760356e-01	
   1.0175000e+02	   8.4976368e-01	  -3.1237753e-01	
   1.0180500e+02	   8.3363298e-01	  -3.0709968e-01	
   1.0186000e+02	   8.1589951e-01	  -3.0174775e-01	
   1.0191500e+02	   7.9667362e-01	  -2.9627530e-01	
   1.0197000e+02	   7.7613714e-01	  -2.9061046e-01	
   1.0202500e+02	   7.5453999e-01	  -2.8465955e-01	
   1.0208000e+02	   7.3219183e-01	  -2.7831559e-01	
   1.0213500e+02	   7.0944835e-01	  -2.7147028e-01	
   1.0219000e+02	   6.8669170e-01	  -2.6402717e-01	
   1.0224500e+02	   6.6430724e-01	  -2.5591352e-01	
   1.0230000e+02	   6.4266224e-01	  -2.4708835e-01	
   1.0235500e+02	   6.2209204e-01	  -2.3754472e-01	
   1.0241000e+02	   6.0289472e-01	  -2.2730650e-01	
   1.0246500e+02	   5.8533214e-01	  -2.1642226e-01	
   1.0252000e+02	   5.6963432e-01	  -2.0495914e-01	
   1.0257500e+02	   5.5600424e-01	  -1.9299761e-01	
   1.0263000e+02	   5.4461975e-01	  -1.8062682e-01	
   1.0268500e+02	   5.3563030e-01	  -1.6794159e-01	
   1.0274000e+02	   5.2914779e-01	  -1.5504220e-01	
   1.0279500e+02	   5.2523459e-01	  -1.4203662e-01	
   1.0285000e+02	   5.2389222e-01	  -1.2904294e-01	
   1.0290500e+02	   5.2505287e-01	  -1.1619040e-01	
   1.0296000e+02	   5.2857490e-01	  -1.0361794e-01	
   1.0301500e+02	   5.3424496e-01	  -9.1469047e-02	
   1.0307000e+02	   5.4178868e-01	  -7.9882174e-02	
   1.0312500e+02	   5.5088885e-01	  -6.8979001e-02	
   1.0318000e+02	   5.6120747e-01	  -5.8853831e-02	
   1.0323500e+02	   5.7240910e-01	  -4.9566306e-02	
   1.0329000e+02	   5.8418303e-01	  -4.1138014e-02	
   1.0334500e+02	   5.9626040e-01	  -3.3553647e-02	
   1.0340000e+02	   6.0842155e-01	  -2.6767235e-02	
   1.0345500e+02	   6.2049172e-01	  -2.0712315e-02	
   1.0351000e+02	   6.3232752e-01	  -1.5313332e-02	
   1.0356500e+02	   6.4379861e-01	  -1.0495973e-02	
   1.0362000e+02	   6.5476915e-01	  -6.1951546e-03	
   1.0367500e+02	   6.6508375e-01	  -2.3591852e-03	
   1.0373000e+02	   6.7456212e-01	   1.0515202e-03	
   1.0378500e+02	   6.8300294e-01	   4.0704812e-03	
   1.0384000e+02	   6.9019387e-01	   6.7326533e-03	
   1.0389500e+02	   6.9592331e-01	   9.0804717e-03	
   1.0395000e+02	   6.9999279e-01	   1.1167722e-02	
   1.0400500e+02	   7.0222965e-01	   1.3061141e-02	
   1.0406000e+02	   7.0249907e-01	   1.4838697e-02	
   1.0411500e+02	   7.0071358e-01	   1.6583736e-02	
   1.0417000e+02	   6.9683969e-01	   1.8376324e-02	
   1.0422500e+02	   6.9090170e-01	   2.0284593e-02	
   1.0428000e+02	   6.8298258e-01	   2.2358681e-02	
   1.0433500e+02	   6.7322238e-01	   2.4628881e-02	
   1.0439000e+02	   6.6181578e-01	   2.7109023e-02	
   1.0444500e+02	   6.4900989e-01	   2.9804743e-02	
   1.0450000e+02	   6.3510072e-01	   3.2723863e-02	
   1.0455500e+02	   6.2042589e-01	   3.5884994e-02	
   1.0461000e+02	   6.0535317e-01	   3.9322283e-02	
   1.0466500e+02	   5.9026613e-01	   4.3086330e-02	
   1.0472000e+02	   5.7554765e-01	   4.7241576e-02	
   1.0477500e+02	   5.6156027e-01	   5.1860288e-02	
   1.0483000e+02	   5.4862402e-01	   5.7014353e-02	
   1.0488500e+02	   5.3699413e-01	   6.2766891e-02	
   1.0494000e+02	   5.2684242e-01	   6.9165424e-02	
   1.0499500e+02	   5.1824598e-01	   7.6238223e-02	
   1.0505000e+02	   5.1118587e-01	   8.3995319e-02	
   1.0510500e+02	   5.0555656e-01	   9.2434020e-02	
   1.0516000e+02	   5.0118448e-01	   1.0154592e-01	
   1.0521500e+02	   4.9785248e-01	   1.1132123e-01	
   1.0527000e+02	   4.9532581e-01	   1.2174808e-01	
   1.0532500e+02	   4.9337609e-01	   1.3280754e-01	
   1.0538000e+02	   4.9180072e-01	   1.4446635e-01	
   1.0543500e+02	   4.9043485e-01	   1.5666901e-01	
   1.0549000e+02	   4.8915432e-01	   1.6933103e-01	
   1.0554500e+02	   4.8787110e-01	   1.8233551e-01	
   1.0560000e+02	   4.8652608e-01	   1.9553537e-01	
   1.0565500e+02	   4.8508319e-01	   2.0876205e-01	
   1.0571000e+02	   4.8352691e-01	   2.2183932e-01	
   1.0576500e+02	   4.8186311e-01	   2.3459885e-01	
   1.0582000e+02	   4.8012124e-01	   2.4689428e-01	
   1.0587500e+02	   4.7835464e-01	   2.5861107e-01	
   1.0593000e+02	   4.7663606e-01	   2.6967092e-01	
   1.0598500e+02	   4.7504858e-01	   2.8003062e-01	
   1.0604000e+02	   4.7367402e-01	   2.8967653e-01	
   1.0609500e+02	   4.7258121e-01	   2.9861646e-01	
   1.0615000e+02	   4.7181575e-01	   3.0687003e-01	
   1.0620500e+02	   4.7139344e-01	   3.1445886e-01	
   1.0626000e+02	   4.7129974e-01	   3.2139876e-01	
   1.0631500e+02	   4.7149582e-01	   3.2769628e-01	
   1.0637000e+02	   4.7192896e-01	   3.3335083e-01	
   1.0642500e+02	   4.7254316e-01	   3.3836078e-01	
   1.0648000e+02	   4.7328678e-01	   3.4273118e-01	
   1.0653500e+02	   4.7411685e-01	   3.4648029e-01	
   1.0659000e+02	   4.7500098e-01	   3.4964316e-01	
   1.0664500e+02	   4.7591752e-01	   3.5227139e-01	
   1.0670000e+02	   4.7685369e-01	   3.5442981e-01	
   1.0675500e+02	   4.7780082e-01	   3.5619079e-01	
   1.0681000e+02	   4.7874586e-01	   3.5762687e-01	
   1.0686500e+02	   4.7966098e-01	   3.5880201e-01	
   1.0692000e+02	   4.8049441e-01	   3.5976261e-01	
   1.0697500e+02	   4.8116634e-01	   3.6053000e-01	
   1.0703000e+02	   4.8157198e-01	   3.6109648e-01	
   1.0708500e+02	   4.8159212e-01	   3.6142690e-01	
   1.0714000e+02	   4.8110848e-01	   3.6146629e-01	
   1.0719500e+02	   4.8001818e-01	   3.6115218e-01	
   1.0725000e+02	   4.7824217e-01	   3.6042775e-01	
   1.0730500e+02	   4.7572643e-01	   3.5925227e-01	
   1.0736000e+02	   4.7243849e-01	   3.5760663e-01	
   1.0741500e+02	   4.6836311e-01	   3.5549444e-01	
   1.0747000e+02	   4.6349901e-01	   3.5293944e-01	
   1.0752500e+02	   4.5785553e-01	   3.4998018e-01	
   1.0758000e+02	   4.5144772e-01	   3.4666300e-01	
   1.0763500e+02	   4.4428954e-01	   3.4303401e-01	
   1.0769000e+02	   4.3638704e-01	   3.3913203e-01	
   1.0774500e+02	   4.2773486e-01	   3.3498380e-01	
   1.0780000e+02	   4.1831850e-01	   3.3060325e-01	
   1.0785500e+02	   4.0812301e-01	   3.2599503e-01	
   1.0791000e+02	   3.9714548e-01	   3.2116200e-01	
   1.0796500e+02	   3.8540739e-01	   3.1611417e-01	
   1.0802000e+02	   3.7296246e-01	   3.1087597e-01	
   1.0807500e+02	   3.5989815e-01	   3.0548894e-01	
   1.0813000e+02	   3.4633219e-01	   3.0000991e-01	
   1.0818500e+02	   3.3240663e-01	   2.9450585e-01	
   1.0824000e+02	   3.1828027e-01	   2.8904680e-01	
   1.0829500e+02	   3.0411926e-01	   2.8369782e-01	
   1.0835000e+02	   2.9008635e-01	   2.7851101e-01	
   1.0840500e+02	   2.7632917e-01	   2.7351898e-01	
   1.0846000e+02	   2.6296813e-01	   2.6873105e-01	
   1.0851500e+02	   2.5008684e-01	   2.6413358e-01	
   1.0857000e+02	   2.3772888e-01	   2.5969506e-01	
   1.0862500e+02	   2.2590291e-01	   2.5537448e-01	
   1.0868000e+02	   2.1459366e-01	   2.5113039e-01	
   1.0873500e+02	   2.0377478e-01	   2.4692808e-01	
   1.0879000e+02	   1.9342076e-01	   2.4274381e-01	
   1.0884500e+02	   1.8351741e-01	   2.3856617e-01	
   1.0890000e+02	   1.7407024e-01	   2.3439489e-01	
   1.0895500e+02	   1.6510888e-01	   2.3023720e-01	
   1.0901000e+02	   1.5668575e-01	   2.2610217e-01	
   1.0906500e+02	   1.4886949e-01	   2.2199413e-01	
   1.0912000e+02	   1.4173542e-01	   2.1790818e-01	
   1.0917500e+02	   1.3535619e-01	   2.1382956e-01	
   1.0923000e+02	   1.2979648e-01	   2.0973803e-01	
   1.0928500e+02	   1.2511400e-01	   2.0561584e-01	
   1.0934000e+02	   1.2136329e-01	   2.0145622e-01	
   1.0939500e+02	   1.1859703e-01	   1.9726900e-01	
   1.0945000e+02	   1.1686257e-01	   1.9308165e-01	
   1.0950500e+02	   1.1619573e-01	   1.8893615e-01	
   1.0956000e+02	   1.1661407e-01	   1.8488308e-01	
   1.0961500e+02	   1.1811047e-01	   1.8097379e-01	
   1.0967000e+02	   1.2064751e-01	   1.7725181e-01	
   1.0972500e+02	   1.2415388e-01	   1.7374511e-01	
   1.0978000e+02	   1.2852386e-01	   1.7046098e-01	
   1.0983500e+02	   1.3362042e-01	   1.6738525e-01	
   1.0989000e+02	   1.3928266e-01	   1.6448640e-01	
   1.0994500e+02	   1.4533702e-01	   1.6172336e-01	
   1.1000000e+02	   1.5161070e-01	   1.5905371e-01	
   1.1005500e+02	   1.5794448e-01	   1.5643941e-01	
   1.1011000e+02	   1.6420295e-01	   1.5384943e-01	
   1.1016500e+02	   1.7028109e-01	   1.5126081e-01	
   1.1022000e+02	   1.7610582e-01	   1.4865907e-01	
   1.1027500e+02	   1.8163142e-01	   1.4603707e-01	
   1.1033000e+02	   1.8682950e-01	   1.4339052e-01	
   1.1038500e+02	   1.9167759e-01	   1.4071003e-01	
   1.1044000e+02	   1.9615094e-01	   1.3797272e-01	
   1.1049500e+02	   2.0021931e-01	   1.3513759e-01	
   1.1055000e+02	   2.0384760e-01	   1.3214693e-01	
   1.1060500e+02	   2.0699915e-01	   1.2893328e-01	
   1.1066000e+02	   2.0964236e-01	   1.2542956e-01	
   1.1071500e+02	   2.1176056e-01	   1.2157979e-01	
   1.1077000e+02	   2.1336187e-01	   1.1734756e-01	
   1.1082500e+02	   2.1448453e-01	   1.1271988e-01	
   1.1088000e+02	   2.1519557e-01	   1.0770649e-01	
   1.1093500e+02	   2.1558304e-01	   1.0233635e-01	
   1.1099000e+02	   2.1574232e-01	   9.6652125e-02	
   1.1104500e+02	   2.1575869e-01	   9.0702684e-02	
   1.1110000e+02	   2.1569021e-01	   8.4534185e-02	
   1.1115500e+02	   2.1555554e-01	   7.8181498e-02	
   1.1121000e+02	   2.1532905e-01	   7.1661684e-02	
   1.1126500e+02	   2.1494384e-01	   6.4971231e-02	
   1.1132000e+02	   2.1430297e-01	   5.8089115e-02	
   1.1137500e+02	   2.1329699e-01	   5.0985870e-02	
   1.1143000e+02	   2.1182226e-01	   4.3635228e-02	
   1.1148500e+02	   2.0979308e-01	   3.6023507e-02	
   1.1154000e+02	   2.0714565e-01	   2.8153950e-02	
   1.1159500e+02	   2.0383719e-01	   2.0046340e-02	
   1.1165000e+02	   1.9984458e-01	   1.1733620e-02	
   1.1170500e+02	   1.9516356e-01	   3.2567618e-03	
   1.1176000e+02	   1.8980679e-01	  -5.3418845e-03	
   1.1181500e+02	   1.8379953e-01	  -1.4026252e-02	
   1.1187000e+02	   1.7717314e-01	  -2.2773832e-02	
   1.1192500e+02	   1.6995804e-01	  -3.1580895e-02	
   1.1198000e+02	   1.6217887e-01	  -4.0464015e-02	
   1.1203500e+02	   1.5385442e-01	  -4.9456370e-02	
   1.1209000e+02	   1.4500291e-01	  -5.8598789e-02	
   1.1214500e+02	   1.3564971e-01	  -6.7928003e-02	
   1.1220000e+02	   1.2583492e-01	  -7.7465520e-02	
   1.1225500e+02	   1.1562111e-01	  -8.7209320e-02	
   1.1231000e+02	   1.0510132e-01	  -9.7129204e-02	
   1.1236500e+02	   9.4403108e-02	  -1.0716635e-01	
   1.1242000e+02	   8.3683544e-02	  -1.1723735e-01	
   1.1247500e+02	   7.3114076e-02	  -1.2724195e-01	
   1.1253000e+02	   6.2859730e-02	  -1.3707286e-01	
   1.1258500e+02	   5.3059223e-02	  -1.4662524e-01	
   1.1264000e+02	   4.3811378e-02	  -1.5580396e-01	
   1.1269500e+02	   3.5170624e-02	  -1.6452720e-01	
   1.1275000e+02	   2.7151759e-02	  -1.7272589e-01	
   1.1280500e+02	   1.9741113e-02	  -1.8034052e-01	
   1.1286000e+02	   1.2908802e-02	  -1.8731765e-01	
   1.1291500e+02	   6.6178478e-03	  -1.9360795e-01	
   1.1297000e+02	   8.2948655e-04	  -1.9916579e-01	
   1.1302500e+02	  -4.4941766e-03	  -2.0395060e-01	
   1.1308000e+02	  -9.3896440e-03	  -2.0793100e-01	
   1.1313500e+02	  -1.3893052e-02	  -2.1109171e-01	
   1.1319000e+02	  -1.8040943e-02	  -2.1344135e-01	
   1.1324500e+02	  -2.1868918e-02	  -2.1501807e-01	
   1.1330000e+02	  -2.5407569e-02	  -2.1589086e-01	
   1.1335500e+02	  -2.8676026e-02	  -2.1615523e-01	
   1.1341000e+02	  -3.1674129e-02	  -2.1592388e-01	
   1.1346500e+02	  -3.4375131e-02	  -2.1531490e-01	
   1.1352000e+02	  -3.6721560e-02	  -2.1444066e-01	
   1.1357500e+02	  -3.8626242e-02	  -2.1340025e-01	
   1.1363000e+02	  -3.9978309e-02	  -2.1227594e-01	
   1.1368500e+02	  -4.0652609e-02	  -2.1113308e-01	
   1.1374000e+02	  -4.0522365e-02	  -2.1002291e-01	
   1.1379500e+02	  -3.9476568e-02	  -2.0898758e-01	
   1.1385000e+02	  -3.7441219e-02	  -2.0806635e-01	
   1.1390500e+02	  -3.4398672e-02	  -2.0730030e-01	
   1.1396000e+02	  -3.0397156e-02	  -2.0673376e-01	
   1.1401500e+02	  -2.5546018e-02	  -2.0641212e-01	
   1.1407000e+02	  -1.9998530e-02	  -2.0637617e-01	
   1.1412500e+02	  -1.3928037e-02	  -2.0665432e-01	
   1.1418000e+02	  -7.5036766e-03	  -2.0725480e-01	
   1.1423500e+02	  -8.7104125e-04	  -2.0816073e-01	
   1.1429000e+02	   5.8597308e-03	  -2.0932936e-01	
   1.1434500e+02	   1.2620276e-02	  -2.1069496e-01	
   1.1440000e+02	   1.9387543e-02	  -2.1217364e-01	
   1.1445500e+02	   2.6183864e-02	  -2.1366967e-01	
   1.1451000e+02	   3.3070679e-02	  -2.1508407e-01	
   1.1456500e+02	   4.0135187e-02	  -2.1632504e-01	
   1.1462000e+02	   4.7472204e-02	  -2.1731864e-01	
   1.1467500e+02	   5.5164934e-02	  -2.1801742e-01	
   1.1473000e+02	   6.3269282e-02	  -2.1840522e-01	
   1.1478500e+02	   7.1806609e-02	  -2.1849646e-01	
   1.1484000e+02	   8.0767316e-02	  -2.1832927e-01	
   1.1489500e+02	   9.0122102e-02	  -2.1795385e-01	
   1.1495000e+02	   9.9833624e-02	  -2.1741910e-01	
   1.1500500e+02	   1.0986270e-01	  -2.1676102e-01	
   1.1506000e+02	   1.2016871e-01	  -2.1599571e-01	
   1.1511500e+02	   1.3070740e-01	  -2.1511846e-01	
   1.1517000e+02	   1.4142794e-01	  -2.1410856e-01	
   1.1522500e+02	   1.5226809e-01	  -2.1293811e-01	
   1.1528000e+02	   1.6314560e-01	  -2.1158260e-01	
   1.1533500e+02	   1.7394591e-01	  -2.1003178e-01	
   1.1539000e+02	   1.8450787e-01	  -2.0829937e-01	
   1.1544500e+02	   1.9461221e-01	  -2.0643026e-01	
   1.1550000e+02	   2.0397852e-01	  -2.0450302e-01	
   1.1555500e+02	   2.1227478e-01	  -2.0262618e-01	
   1.1561000e+02	   2.1913872e-01	  -2.0092800e-01	
   1.1566500e+02	   2.2420610e-01	  -1.9954236e-01	
   1.1572000e+02	   2.2714025e-01	  -1.9859390e-01	
   1.1577500e+02	   2.2765903e-01	  -1.9818557e-01	
   1.1583000e+02	   2.2555686e-01	  -1.9839030e-01	
   1.1588500e+02	   2.2072048e-01	  -1.9924778e-01	
   1.1594000e+02	   2.1313811e-01	  -2.0076598e-01	
   1.1599500e+02	   2.0290067e-01	  -2.0292655e-01	
   1.1605000e+02	   1.9019264e-01	  -2.0569271e-01	
   1.1610500e+02	   1.7527151e-01	  -2.0901855e-01	
   1.1616000e+02	   1.5843992e-01	  -2.1285797e-01	
   1.1621500e+02	   1.4001764e-01	  -2.1717152e-01	
   1.1627000e+02	   1.2031996e-01	  -2.2193003e-01	
   1.1632500e+02	   9.9646165e-02	  -2.2711490e-01	
   1.1638000e+02	   7.8278322e-02	  -2.3271516e-01	
   1.1643500e+02	   5.6488322e-02	  -2.3872183e-01	
   1.1649000e+02	   3.4548552e-02	  -2.4512155e-01	
   1.1654500e+02	   1.2740921e-02	  -2.5189161e-01	
   1.1660000e+02	  -8.6395012e-03	  -2.5899792e-01	
   1.1665500e+02	  -2.9286807e-02	  -2.6639540e-01	
   1.1671000e+02	  -4.8891337e-02	  -2.7403009e-01	
   1.1676500e+02	  -6.7150674e-02	  -2.8184306e-01	
   1.1682000e+02	  -8.3784076e-02	  -2.8977585e-01	
   1.1687500e+02	  -9.8549440e-02	  -2.9777636e-01	
   1.1693000e+02	  -1.1126067e-01	  -3.0580321e-01	
   1.1698500e+02	  -1.2180204e-01	  -3.1382717e-01	
   1.1704000e+02	  -1.3013567e-01	  -3.2182861e-01	
   1.1709500e+02	  -1.3629986e-01	  -3.2979073e-01	
   1.1715000e+02	  -1.4039878e-01	  -3.3769011e-01	
   1.1720500e+02	  -1.4258713e-01	  -3.4548851e-01	
   1.1726000e+02	  -1.4305446e-01	  -3.5312951e-01	
   1.1731500e+02	  -1.4201243e-01	  -3.6054093e-01	
   1.1737000e+02	  -1.3968611e-01	  -3.6764096e-01	
   1.1742500e+02	  -1.3630944e-01	  -3.7434558e-01	
   1.1748000e+02	  -1.3212375e-01	  -3.8057603e-01	
   1.1753500e+02	  -1.2737646e-01	  -3.8626522e-01	
   1.1759000e+02	  -1.2231692e-01	  -3.9136226e-01	
   1.1764500e+02	  -1.1718823e-01	  -3.9583437e-01	
   1.1770000e+02	  -1.1221700e-01	  -3.9966652e-01	
   1.1775500e+02	  -1.0760302e-01	  -4.0285841e-01	
   1.1781000e+02	  -1.0350874e-01	  -4.0541858e-01	
   1.1786500e+02	  -1.0004858e-01	  -4.0735638e-01	
   1.1792000e+02	  -9.7280000e-02	  -4.0867443e-01	
   1.1797500e+02	  -9.5199334e-02	  -4.0936392e-01	
   1.1803000e+02	  -9.3743521e-02	  -4.0940406e-01	
   1.1808500e+02	  -9.2797154e-02	  -4.0876539e-01	
   1.1814000e+02	  -9.2204416e-02	  -4.0741652e-01	
   1.1819500e+02	  -9.1786071e-02	  -4.0533364e-01	
   1.1825000e+02	  -9.1360113e-02	  -4.0251087e-01	
   1.1830500e+02	  -9.0762415e-02	  -3.9896858e-01	
   1.1836000e+02	  -8.9863139e-02	  -3.9475785e-01	
   1.1841500e+02	  -8.8575511e-02	  -3.8996034e-01	
   1.1847000e+02	  -8.6854864e-02	  -3.8468316e-01	
   1.1852500e+02	  -8.4688271e-02	  -3.7904827e-01	
   1.1858000e+02	  -8.2078745e-02	  -3.7317864e-01	
   1.1863500e+02	  -7.9029460e-02	  -3.6718576e-01	
   1.1869000e+02	  -7.5530754e-02	  -3.6116139e-01	
   1.1874500e+02	  -7.1549548e-02	  -3.5517394e-01	
   1.1880000e+02	  -6.7021255e-02	  -3.4926854e-01	
   1.1885500e+02	  -6.1846082e-02	  -3.4347079e-01	
   1.1891000e+02	  -5.5891158e-02	  -3.3779364e-01	
   1.1896500e+02	  -4.8997349e-02	  -3.3224598e-01	
   1.1902000e+02	  -4.0987922e-02	  -3.2684046e-01	
   1.1907500e+02	  -3.1676819e-02	  -3.2159903e-01	
   1.1913000e+02	  -2.0875425e-02	  -3.1655520e-01	
   1.1918500e+02	  -8.3967451e-03	  -3.1175242e-01	
   1.1924000e+02	   5.9433755e-03	  -3.0723815e-01	
   1.1929500e+02	   2.2325723e-02	  -3.0305566e-01	
   1.1935000e+02	   4.0924492e-02	  -2.9923658e-01	
   1.1940500e+02	   6.1899811e-02	  -2.9579634e-01	
   1.1946000e+02	   8.5386465e-02	  -2.9273237e-01	
   1.1951500e+02	   1.1147943e-01	  -2.9002469e-01	
   1.1957000e+02	   1.4021698e-01	  -2.8763932e-01	
   1.1962500e+02	   1.7156313e-01	  -2.8553436e-01	
   1.1968000e+02	   2.0539212e-01	  -2.8366693e-01	
   1.1973500e+02	   2.4147721e-01	  -2.8199840e-01	
   1.1979000e+02	   2.7948557e-01	  -2.8049763e-01	
   1.1984500e+02	   3.1898238e-01	  -2.7914215e-01	
   1.1990000e+02	   3.5944670e-01	  -2.7791643e-01	
   1.1995500e+02	   4.0029888e-01	  -2.7680658e-01	
   1.2001000e+02	   4.4093521e-01	  -2.7579276e-01	
   1.2006500e+02	   4.8076489e-01	  -2.7484148e-01	
   1.2012000e+02	   5.1924528e-01	  -2.7389980e-01	
   1.2017500e+02	   5.5591081e-01	  -2.7289278e-01	
   1.2023000e+02	   5.9039153e-01	  -2.7172468e-01	
   1.2028500e+02	   6.2241956e-01	  -2.7028406e-01	
   1.2034000e+02	   6.5182667e-01	  -2.6845206e-01	
   1.2039500e+02	   6.7853632e-01	  -2.6611167e-01	
   1.2045000e+02	   7.0255252e-01	  -2.6315606e-01	
   1.2050500e+02	   7.2394599e-01	  -2.5949468e-01	
   1.2056000e+02	   7.4283921e-01	  -2.5505661e-01	
   1.2061500e+02	   7.5939215e-01	  -2.4979116e-01	
   1.2067000e+02	   7.7378987e-01	  -2.4366742e-01	
   1.2072500e+02	   7.8623167e-01	  -2.3667438e-01	
   1.2078000e+02	   7.9692038e-01	  -2.2882248e-01	
   1.2083500e+02	   8.0605078e-01	  -2.2014563e-01	
   1.2089000e+02	   8.1379618e-01	  -2.1070332e-01	
   1.2094500e+02	   8.2029311e-01	  -2.0058341e-01	
   1.2100000e+02	   8.2562578e-01	  -1.8990473e-01	
   1.2105500e+02	   8.2981455e-01	  -1.7881675e-01	
   1.2111000e+02	   8.3281352e-01	  -1.6749412e-01	
   1.2116500e+02	   8.3451914e-01	  -1.5612580e-01	
   1.2122000e+02	   8.3478810e-01	  -1.4490110e-01	
   1.2127500e+02	   8.3346054e-01	  -1.3399494e-01	
   1.2133000e+02	   8.3038363e-01	  -1.2355521e-01	
   1.2138500e+02	   8.2543143e-01	  -1.1369471e-01	
   1.2144000e+02	   8.1851862e-01	  -1.0448867e-01	
   1.2149500e+02	   8.0960781e-01	  -9.5976949e-02	
   1.2155000e+02	   7.9871138e-01	  -8.8168912e-02	
   1.2160500e+02	   7.8589013e-01	  -8.1049986e-02	
   1.2166000e+02	   7.7125066e-01	  -7.4588761e-02	
   1.2171500e+02	   7.5494260e-01	  -6.8743346e-02	
   1.2177000e+02	   7.3715695e-01	  -6.3465310e-02	
   1.2182500e+02	   7.1812636e-01	  -5.8700300e-02	
   1.2188000e+02	   6.9812623e-01	  -5.4386154e-02	
   1.2193500e+02	   6.7747342e-01	  -5.0450828e-02	
   1.2199000e+02	   6.5652182e-01	  -4.6812294e-02	
   1.2204500e+02	   6.3565620e-01	  -4.3381168e-02	
   1.2210000e+02	   6.1528432e-01	  -4.0065751e-02	
   1.2215500e+02	   5.9582707e-01	  -3.6778640e-02	
   1.2221000e+02	   5.7770694e-01	  -3.3443474e-02	
   1.2226500e+02	   5.6133540e-01	  -3.0000279e-02	
   1.2232000e+02	   5.4709977e-01	  -2.6408658e-02	
   1.2237500e+02	   5.3535077e-01	  -2.2648829e-02	
   1.2243000e+02	   5.2639322e-01	  -1.8720163e-02	
   1.2248500e+02	   5.2047981e-01	  -1.4636898e-02	
   1.2254000e+02	   5.1780512e-01	  -1.0421886e-02	
   1.2259500e+02	   5.1849795e-01	  -6.1004964e-03	
   1.2265000e+02	   5.2261285e-01	  -1.6966718e-03	
   1.2270500e+02	   5.3012340e-01	   2.7680978e-03	
   1.2276000e+02	   5.4091748e-01	   7.2732632e-03	
   1.2281500e+02	   5.5479359e-01	   1.1795797e-02	
   1.2287000e+02	   5.7145881e-01	   1.6305805e-02	
   1.2292500e+02	   5.9053100e-01	   2.0762771e-02	
   1.2298000e+02	   6.1154746e-01	   2.5113729e-02	
   1.2303500e+02	   6.3398146e-01	   2.9293536e-02	
   1.2309000e+02	   6.5726706e-01	   3.3227112e-02	
   1.2314500e+02	   6.8083230e-01	   3.6834346e-02	
   1.2320000e+02	   7.0413840e-01	   4.0038230e-02	
   1.2325500e+02	   7.2671961e-01	   4.2774748e-02	
   1.2331000e+02	   7.4821793e-01	   4.5001256e-02	
   1.2336500e+02	   7.6840663e-01	   4.6700953e-02	
   1.2342000e+02	   7.8719836e-01	   4.7883636e-02	
   1.2347500e+02	   8.0463600e-01	   4.8583696e-02	
   1.2353000e+02	   8.2086874e-01	   4.8855310e-02	
   1.2358500e+02	   8.3611777e-01	   4.8764824e-02	
   1.2364000e+02	   8.5063630e-01	   4.8381376e-02	
   1.2369500e+02	   8.6466772e-01	   4.7767183e-02	
   1.2375000e+02	   8.7840737e-01	   4.6969296e-02	
   1.2380500e+02	   8.9197558e-01	   4.6015505e-02	
   1.2386000e+02	   9.0540761e-01	   4.4916461e-02	
   1.2391500e+02	   9.1865850e-01	   4.3672764e-02	
   1.2397000e+02	   9.3161544e-01	   4.2282729e-02	
   1.2402500e+02	   9.4411225e-01	   4.0747030e-02	
   1.2408000e+02	   9.5594521e-01	   3.9069301e-02	
   1.2413500e+02	   9.6689054e-01	   3.7253924e-02	
   1.2419000e+02	   9.7672163e-01	   3.5302767e-02	
   1.2424500e+02	   9.8522294e-01	   3.3212473e-02	
   1.2430000e+02	   9.9219927e-01	   3.0973257e-02	
   1.2435500e+02	   9.9748098e-01	   2.8569231e-02	
   1.2441000e+02	   1.0009262e+00	   2.5979997e-02	
   1.2446500e+02	   1.0024218e+00	   2.3183887e-02	
   1.2452000e+02	   1.0018841e+00	   2.0163430e-02	
   1.2457500e+02	   9.9925986e-01	   1.6912157e-02	
   1.2463000e+02	   9.9452367e-01	   1.3440176e-02	
   1.2468500e+02	   9.8766981e-01	   9.7762860e-03	
   1.2474000e+02	   9.7870161e-01	   5.9661745e-03	
   1.2479500e+02	   9.6762170e-01	   2.0676687e-03	
   1.2485000e+02	   9.5442463e-01	  -1.8557532e-03	
   1.2490500e+02	   9.3909126e-01	  -5.7419705e-03	
   1.2496000e+02	   9.2158545e-01	  -9.5362211e-03	
   1.2501500e+02	   9.0185381e-01	  -1.3194676e-02	
   1.2507000e+02	   8.7982938e-01	  -1.6684837e-02	
   1.2512500e+02	   8.5544005e-01	  -1.9982463e-02	
   1.2518000e+02	   8.2862192e-01	  -2.3065435e-02	
   1.2523500e+02	   7.9933543e-01	  -2.5906581e-02	
   1.2529000e+02	   7.6758101e-01	  -2.8468383e-02	
   1.2534500e+02	   7.3341135e-01	  -3.0701294e-02	
   1.2540000e+02	   6.9693925e-01	  -3.2545594e-02	
   1.2545500e+02	   6.5834127e-01	  -3.3935912e-02	
   1.2551000e+02	   6.1785801e-01	  -3.4807790e-02	
   1.2556500e+02	   5.7579035e-01	  -3.5106152e-02	
   1.2562000e+02	   5.3248991e-01	  -3.4795255e-02	
   1.2567500e+02	   4.8834367e-01	  -3.3868060e-02	
   1.2573000e+02	   4.4375587e-01	  -3.2352394e-02	
   1.2578500e+02	   3.9913279e-01	  -3.0312444e-02	
   1.2584000e+02	   3.5487316e-01	  -2.7845136e-02	
   1.2589500e+02	   3.1136394e-01	  -2.5071490e-02	
   1.2595000e+02	   2.6897790e-01	  -2.2124495e-02	
   1.2600500e+02	   2.2806983e-01	  -1.9136715e-02	
   1.2606000e+02	   1.8897030e-01	  -1.6230660e-02	
   1.2611500e+02	   1.5197829e-01	  -1.3512935e-02	
   1.2617000e+02	   1.1735521e-01	  -1.1071810e-02	
   1.2622500e+02	   8.5319720e-02	  -8.9780833e-03	
   1.2628000e+02	   5.6040451e-02	  -7.2894713e-03	
   1.2633500e+02	   2.9625879e-02	  -6.0576945e-03	
   1.2639000e+02	   6.1145503e-03	  -5.3358583e-03	
   1.2644500e+02	  -1.4531109e-02	  -5.1832685e-03	
   1.2650000e+02	  -3.2425584e-02	  -5.6655509e-03	
   1.2655500e+02	  -4.7754252e-02	  -6.8494489e-03	
   1.2661000e+02	  -6.0761130e-02	  -8.7937236e-03	
   1.2666500e+02	  -7.1733905e-02	  -1.1539267e-02	
   1.2672000e+02	  -8.0989676e-02	  -1.5101613e-02	
   1.2677500e+02	  -8.8861936e-02	  -1.9467496e-02	
   1.2683000e+02	  -9.5687725e-02	  -2.4595354e-02	
