	
0   5   7
   0.0000000e+00	   9.9358748e-02	   1.6654095e-01	
   5.5000000e-02	   6.3160764e-02	   1.5606826e-01	
   1.1000000e-01	   2.6415323e-02	   1.4528199e-01	
   1.6500000e-01	  -1.0157524e-02	   1.3440920e-01	
   2.2000000e-01	  -4.5901992e-02	   1.2364929e-01	
   2.7500000e-01	  -8.0256125e-02	   1.1316328e-01	
   3.3000000e-01	  -1.1277148e-01	   1.0306665e-01	
   3.8500000e-01	  -1.4312221e-01	   9.3427049e-02	
   4.4000000e-01	  -1.7110282e-01	   8.4267464e-02	
   4.9500000e-01	  -1.9661502e-01	   7.5575162e-02	
   5.5000000e-01	  -2.1964699e-01	   6.7314047e-02	
   6.0500000e-01	  -2.4025008e-01	   5.9437354e-02	
   6.6000000e-01	  -2.5851773e-01	   5.1898095e-02	
   7.1500000e-01	  -2.7456881e-01	   4.4655835e-02	
   7.7000000e-01	  -2.8853675e-01	   3.7679305e-02	
   8.2500000e-01	  -3.0056481e-01	   3.0945019e-02	
   8.8000000e-01	  -3.1080645e-01	   2.4433003e-02	
   9.3500000e-01	  -3.1942770e-01	   1.8122012e-02	
   9.9000000e-01	  -3.2660755e-01	   1.1986836e-02	
   1.0450000e+00	  -3.3253345e-01	   5.9989145e-03	
   1.1000000e+00	  -3.3739165e-01	   1.2978532e-04	
   1.1550000e+00	  -3.4135406e-01	  -5.6439129e-03	
   1.2100000e+00	  -3.4456542e-01	  -1.1335592e-02	
   1.2650000e+00	  -3.4713484e-01	  -1.6945805e-02	
   1.3200000e+00	  -3.4913473e-01	  -2.2462259e-02	
   1.3750000e+00	  -3.5060734e-01	  -2.7862517e-02	
   1.4300000e+00	  -3.5157640e-01	  -3.3118503e-02	
   1.4850000e+00	  -3.5206088e-01	  -3.8202208e-02	
   1.5400000e+00	  -3.5208805e-01	  -4.3092082e-02	
   1.5950000e+00	  -3.5170253e-01	  -4.7778781e-02	
   1.6500000e+00	  -3.5096714e-01	  -5.2267776e-02	
   1.7050000e+00	  -3.4995439e-01	  -5.6577113e-02	
   1.7600000e+00	  -3.4873260e-01	  -6.0731207e-02	
   1.8150000e+00	  -3.4735308e-01	  -6.4753592e-02	
   1.8700000e+00	  -3.4584286e-01	  -6.8661221e-02	
   1.9250000e+00	  -3.4420418e-01	  -7.2461667e-02	
   1.9800000e+00	  -3.4242055e-01	  -7.6153692e-02	
   2.0350000e+00	  -3.4046832e-01	  -7.9730894e-02	
   2.0900000e+00	  -3.3833087e-01	  -8.3187180e-02	
   2.1450000e+00	  -3.3601180e-01	  -8.6522364e-02	
   2.2000000e+00	  -3.3354394e-01	  -8.9746383e-02	
   2.2550000e+00	  -3.3099231e-01	  -9.2880917e-02	
   2.3100000e+00	  -3.2844998e-01	  -9.5957744e-02	
   2.3650000e+00	  -3.2602798e-01	  -9.9014336e-02	
   2.4200000e+00	  -3.2384268e-01	  -1.0208840e-01	
   2.4750000e+00	  -3.2200482e-01	  -1.0521319e-01	
   2.5300000e+00	  -3.2061231e-01	  -1.0841446e-01	
   2.5850000e+00	  -3.1974743e-01	  -1.1170920e-01	
   2.6400000e+00	  -3.1947810e-01	  -1.1510635e-01	
   2.6950000e+00	  -3.1986279e-01	  -1.1860975e-01	
   2.7500000e+00	  -3.2095663e-01	  -1.2222264e-01	
   2.8050000e+00	  -3.2281482e-01	  -1.2595132e-01	
   2.8600000e+00	  -3.2549054e-01	  -1.2980589e-01	
   2.9150000e+00	  -3.2902648e-01	  -1.3379745e-01	
   2.9700000e+00	  -3.3344233e-01	  -1.3793265e-01	
   3.0250000e+00	  -3.3872261e-01	  -1.4220732e-01	
   3.0800000e+00	  -3.4480969e-01	  -1.4660178e-01	
   3.1350000e+00	  -3.5160450e-01	  -1.5107990e-01	
   3.1900000e+00	  -3.5897398e-01	  -1.5559186e-01	
   3.2450000e+00	  -3.6676297e-01	  -1.6007927e-01	
   3.3000000e+00	  -3.7480928e-01	  -1.6448167e-01	
   3.3550000e+00	  -3.8296091e-01	  -1.6874437e-01	
   3.4100000e+00	  -3.9109376e-01	  -1.7282698e-01	
   3.4650000e+00	  -3.9912586e-01	  -1.7671081e-01	
   3.5200000e+00	  -4.0702333e-01	  -1.8040209e-01	
   3.5750000e+00	  -4.1479551e-01	  -1.8392937e-01	
   3.6300000e+00	  -4.2248173e-01	  -1.8733573e-01	
   3.6850000e+00	  -4.3013539e-01	  -1.9066882e-01	
   3.7400000e+00	  -4.3781035e-01	  -1.9397214e-01	
   3.7950000e+00	  -4.4555190e-01	  -1.9727958e-01	
   3.8500000e+00	  -4.5339336e-01	  -2.0061357e-01	
   3.9050000e+00	  -4.6135796e-01	  -2.0398617e-01	
   3.9600000e+00	  -4.6946439e-01	  -2.0740203e-01	
   4.0150000e+00	  -4.7773392e-01	  -2.1086238e-01	
   4.0700000e+00	  -4.8619622e-01	  -2.1436883e-01	
   4.1250000e+00	  -4.9489101e-01	  -2.1792539e-01	
   4.1800000e+00	  -5.0386356e-01	  -2.2153732e-01	
   4.2350000e+00	  -5.1315462e-01	  -2.2520696e-01	
   4.2900000e+00	  -5.2278879e-01	  -2.2892840e-01	
   4.3450000e+00	  -5.3276567e-01	  -2.3268385e-01	
   4.4000000e+00	  -5.4305654e-01	  -2.3644286e-01	
   4.4550000e+00	  -5.5360660e-01	  -2.4016418e-01	
   4.5100000e+00	  -5.6434169e-01	  -2.4379970e-01	
   4.5650000e+00	  -5.7517783e-01	  -2.4729930e-01	
   4.6200000e+00	  -5.8603159e-01	  -2.5061559e-01	
   4.6750000e+00	  -5.9682907e-01	  -2.5370754e-01	
   4.7300000e+00	  -6.0751133e-01	  -2.5654234e-01	
   4.7850000e+00	  -6.1803461e-01	  -2.5909508e-01	
   4.8400000e+00	  -6.2836506e-01	  -2.6134569e-01	
   4.8950000e+00	  -6.3847035e-01	  -2.6327396e-01	
   4.9500000e+00	  -6.4831242e-01	  -2.6485485e-01	
   5.0050000e+00	  -6.5784483e-01	  -2.6605654e-01	
   5.0600000e+00	  -6.6701514e-01	  -2.6684208e-01	
   5.1150000e+00	  -6.7577101e-01	  -2.6717391e-01	
   5.1700000e+00	  -6.8406808e-01	  -2.6701968e-01	
   5.2250000e+00	  -6.9187793e-01	  -2.6635819e-01	
   5.2800000e+00	  -6.9919385e-01	  -2.6518430e-01	
   5.3350000e+00	  -7.0603116e-01	  -2.6351088e-01	
   5.3900000e+00	  -7.1242038e-01	  -2.6136619e-01	
   5.4450000e+00	  -7.1839526e-01	  -2.5878689e-01	
   5.5000000e+00	  -7.2397997e-01	  -2.5580911e-01	
   5.5550000e+00	  -7.2917875e-01	  -2.5246049e-01	
   5.6100000e+00	  -7.3397021e-01	  -2.4875511e-01	
   5.6650000e+00	  -7.3830771e-01	  -2.4469305e-01	
   5.7200000e+00	  -7.4212691e-01	  -2.4026492e-01	
   5.7750000e+00	  -7.4535928e-01	  -2.3546041e-01	
   5.8300000e+00	  -7.4794851e-01	  -2.3027895e-01	
   5.8850000e+00	  -7.4986513e-01	  -2.2473927e-01	
   5.9400000e+00	  -7.5111527e-01	  -2.1888506e-01	
   5.9950000e+00	  -7.5174159e-01	  -2.1278483e-01	
   6.0500000e+00	  -7.5181653e-01	  -2.0652637e-01	
   6.1050000e+00	  -7.5143099e-01	  -2.0020755e-01	
   6.1600000e+00	  -7.5068272e-01	  -1.9392632e-01	
   6.2150000e+00	  -7.4966812e-01	  -1.8777302e-01	
   6.2700000e+00	  -7.4847792e-01	  -1.8182600e-01	
   6.3250000e+00	  -7.4719659e-01	  -1.7614999e-01	
   6.3800000e+00	  -7.4590475e-01	  -1.7079660e-01	
   6.4350000e+00	  -7.4468396e-01	  -1.6580688e-01	
   6.4900000e+00	  -7.4362194e-01	  -1.6121503e-01	
   6.5450000e+00	  -7.4281595e-01	  -1.5705193e-01	
   6.6000000e+00	  -7.4237232e-01	  -1.5334691e-01	
   6.6550000e+00	  -7.4240075e-01	  -1.5012740e-01	
   6.7100000e+00	  -7.4300362e-01	  -1.4741580e-01	
   6.7650000e+00	  -7.4426322e-01	  -1.4522483e-01	
   6.8200000e+00	  -7.4623153e-01	  -1.4355311e-01	
   6.8750000e+00	  -7.4892575e-01	  -1.4238272e-01	
   6.9300000e+00	  -7.5232966e-01	  -1.4167893e-01	
   6.9850000e+00	  -7.5639948e-01	  -1.4139168e-01	
   7.0400000e+00	  -7.6107277e-01	  -1.4145918e-01	
   7.0950000e+00	  -7.6627996e-01	  -1.4181353e-01	
   7.1500000e+00	  -7.7195600e-01	  -1.4238724e-01	
   7.2050000e+00	  -7.7804906e-01	  -1.4311861e-01	
   7.2600000e+00	  -7.8452346e-01	  -1.4395461e-01	
   7.3150000e+00	  -7.9135599e-01	  -1.4485072e-01	
   7.3700000e+00	  -7.9852711e-01	  -1.4576828e-01	
   7.4250000e+00	  -8.0601027e-01	  -1.4667000e-01	
   7.4800000e+00	  -8.1376263e-01	  -1.4751569e-01	
   7.5350000e+00	  -8.2171876e-01	  -1.4825970e-01	
   7.5900000e+00	  -8.2978831e-01	  -1.4885114e-01	
   7.6450000e+00	  -8.3785736e-01	  -1.4923612e-01	
   7.7000000e+00	  -8.4579281e-01	  -1.4936090e-01	
   7.7550000e+00	  -8.5344917e-01	  -1.4917537e-01	
   7.8100000e+00	  -8.6067719e-01	  -1.4863703e-01	
   7.8650000e+00	  -8.6733176e-01	  -1.4771473e-01	
   7.9200000e+00	  -8.7327539e-01	  -1.4639014e-01	
   7.9750000e+00	  -8.7837603e-01	  -1.4465605e-01	
   8.0300000e+00	  -8.8250220e-01	  -1.4251236e-01	
   8.0850000e+00	  -8.8552062e-01	  -1.3996177e-01	
   8.1400000e+00	  -8.8729933e-01	  -1.3700670e-01	
   8.1950000e+00	  -8.8771660e-01	  -1.3364884e-01	
   8.2500000e+00	  -8.8667403e-01	  -1.2989181e-01	
   8.3050000e+00	  -8.8411091e-01	  -1.2574587e-01	
   8.3600000e+00	  -8.8001645e-01	  -1.2123286e-01	
   8.4150000e+00	  -8.7443615e-01	  -1.1638923e-01	
   8.4700000e+00	  -8.6746957e-01	  -1.1126605e-01	
   8.5250000e+00	  -8.5925928e-01	  -1.0592506e-01	
   8.5800000e+00	  -8.4997297e-01	  -1.0043087e-01	
   8.6350000e+00	  -8.3978338e-01	  -9.4841732e-02	
   8.6900000e+00	  -8.2885128e-01	  -8.9201573e-02	
   8.7450000e+00	  -8.1731535e-01	  -8.3535537e-02	
   8.8000000e+00	  -8.0528980e-01	  -7.7849407e-02	
   8.8550000e+00	  -7.9286785e-01	  -7.2132442e-02	
   8.9100000e+00	  -7.8012919e-01	  -6.6363087e-02	
   8.9650000e+00	  -7.6714942e-01	  -6.0516675e-02	
   9.0200000e+00	  -7.5400910e-01	  -5.4572913e-02	
   9.0750000e+00	  -7.4079880e-01	  -4.8520467e-02	
   9.1300000e+00	  -7.2761758e-01	  -4.2357289e-02	
   9.1850000e+00	  -7.1456494e-01	  -3.6087179e-02	
   9.2400000e+00	  -7.0172865e-01	  -2.9714210e-02	
   9.2950000e+00	  -6.8917176e-01	  -2.3237110e-02	
   9.3500000e+00	  -6.7692291e-01	  -1.6645874e-02	
   9.4050000e+00	  -6.6497338e-01	  -9.9219168e-03	
   9.4600000e+00	  -6.5328164e-01	  -3.0412646e-03	
   9.5150000e+00	  -6.4178286e-01	   4.0206752e-03	
   9.5700000e+00	  -6.3040027e-01	   1.1283633e-02	
   9.6250000e+00	  -6.1905621e-01	   1.8756623e-02	
   9.6800000e+00	  -6.0768145e-01	   2.6432943e-02	
   9.7350000e+00	  -5.9622087e-01	   3.4288277e-02	
   9.7900000e+00	  -5.8463369e-01	   4.2283477e-02	
   9.8450000e+00	  -5.7288871e-01	   5.0371039e-02	
   9.9000000e+00	  -5.6095830e-01	   5.8502379e-02	
   9.9550000e+00	  -5.4881513e-01	   6.6633417e-02	
   1.0010000e+01	  -5.3643318e-01	   7.4727184e-02	
   1.0065000e+01	  -5.2379267e-01	   8.2752853e-02	
   1.0120000e+01	  -5.1088761e-01	   9.0681331e-02	
   1.0175000e+01	  -4.9773434e-01	   9.8478743e-02	
   1.0230000e+01	  -4.8437973e-01	   1.0609975e-01	
   1.0285000e+01	  -4.7090699e-01	   1.1348260e-01	
   1.0340000e+01	  -4.5743696e-01	   1.2054794e-01	
   1.0395000e+01	  -4.4412191e-01	   1.2720284e-01	
   1.0450000e+01	  -4.3113135e-01	   1.3334995e-01	
   1.0505000e+01	  -4.1863271e-01	   1.3889956e-01	
   1.0560000e+01	  -4.0677192e-01	   1.4378135e-01	
   1.0615000e+01	  -3.9565815e-01	   1.4795332e-01	
   1.0670000e+01	  -3.8535522e-01	   1.5140705e-01	
   1.0725000e+01	  -3.7588084e-01	   1.5416866e-01	
   1.0780000e+01	  -3.6721377e-01	   1.5629522e-01	
   1.0835000e+01	  -3.5930644e-01	   1.5786695e-01	
   1.0890000e+01	  -3.5209919e-01	   1.5897635e-01	
   1.0945000e+01	  -3.4553221e-01	   1.5971649e-01	
   1.1000000e+01	  -3.3955300e-01	   1.6017050e-01	
   1.1055000e+01	  -3.3411815e-01	   1.6040528e-01	
   1.1110000e+01	  -3.2918905e-01	   1.6047093e-01	
   1.1165000e+01	  -3.2472453e-01	   1.6040421e-01	
   1.1220000e+01	  -3.2067497e-01	   1.6023242e-01	
   1.1275000e+01	  -3.1698146e-01	   1.5997540e-01	
   1.1330000e+01	  -3.1358030e-01	   1.5964575e-01	
   1.1385000e+01	  -3.1041080e-01	   1.5924851e-01	
   1.1440000e+01	  -3.0742347e-01	   1.5878144e-01	
   1.1495000e+01	  -3.0458701e-01	   1.5823542e-01	
   1.1550000e+01	  -3.0189323e-01	   1.5759520e-01	
   1.1605000e+01	  -2.9935828e-01	   1.5684157e-01	
   1.1660000e+01	  -2.9701820e-01	   1.5595560e-01	
   1.1715000e+01	  -2.9491845e-01	   1.5492455e-01	
   1.1770000e+01	  -2.9310019e-01	   1.5374762e-01	
   1.1825000e+01	  -2.9158747e-01	   1.5244021e-01	
   1.1880000e+01	  -2.9037869e-01	   1.5103561e-01	
   1.1935000e+01	  -2.8944457e-01	   1.4958328e-01	
   1.1990000e+01	  -2.8873286e-01	   1.4814392e-01	
   1.2045000e+01	  -2.8817818e-01	   1.4678286e-01	
   1.2100000e+01	  -2.8771472e-01	   1.4556279e-01	
   1.2155000e+01	  -2.8728854e-01	   1.4453672e-01	
   1.2210000e+01	  -2.8686593e-01	   1.4374243e-01	
   1.2265000e+01	  -2.8643509e-01	   1.4320032e-01	
   1.2320000e+01	  -2.8600128e-01	   1.4291524e-01	
   1.2375000e+01	  -2.8557801e-01	   1.4288058e-01	
   1.2430000e+01	  -2.8517836e-01	   1.4308208e-01	
   1.2485000e+01	  -2.8480884e-01	   1.4349996e-01	
   1.2540000e+01	  -2.8446634e-01	   1.4410957e-01	
   1.2595000e+01	  -2.8413828e-01	   1.4488118e-01	
   1.2650000e+01	  -2.8380653e-01	   1.4577855e-01	
   1.2705000e+01	  -2.8345525e-01	   1.4675622e-01	
   1.2760000e+01	  -2.8308101e-01	   1.4775567e-01	
   1.2815000e+01	  -2.8270282e-01	   1.4870167e-01	
   1.2870000e+01	  -2.8236962e-01	   1.4950000e-01	
   1.2925000e+01	  -2.8216188e-01	   1.5003873e-01	
   1.2980000e+01	  -2.8218523e-01	   1.5019435e-01	
   1.3035000e+01	  -2.8255690e-01	   1.4984240e-01	
   1.3090000e+01	  -2.8338949e-01	   1.4886957e-01	
   1.3145000e+01	  -2.8477686e-01	   1.4718433e-01	
   1.3200000e+01	  -2.8678498e-01	   1.4472405e-01	
   1.3255000e+01	  -2.8944822e-01	   1.4145801e-01	
   1.3310000e+01	  -2.9277118e-01	   1.3738614e-01	
   1.3365000e+01	  -2.9673621e-01	   1.3253387e-01	
   1.3420000e+01	  -3.0131483e-01	   1.2694472e-01	
   1.3475000e+01	  -3.0647990e-01	   1.2067211e-01	
   1.3530000e+01	  -3.1221544e-01	   1.1377203e-01	
   1.3585000e+01	  -3.1852161e-01	   1.0629781e-01	
   1.3640000e+01	  -3.2541253e-01	   9.8298576e-02	
   1.3695000e+01	  -3.3290640e-01	   8.9821732e-02	
   1.3750000e+01	  -3.4101142e-01	   8.0917882e-02	
   1.3805000e+01	  -3.4971349e-01	   7.1645091e-02	
   1.3860000e+01	  -3.5897000e-01	   6.2070302e-02	
   1.3915000e+01	  -3.6871092e-01	   5.2267409e-02	
   1.3970000e+01	  -3.7884573e-01	   4.2312812e-02	
   1.4025000e+01	  -3.8927407e-01	   3.2279013e-02	
   1.4080000e+01	  -3.9989870e-01	   2.2226646e-02	
   1.4135000e+01	  -4.1063870e-01	   1.2196473e-02	
   1.4190000e+01	  -4.2143971e-01	   2.2037296e-03	
   1.4245000e+01	  -4.3227864e-01	  -7.7633479e-03	
   1.4300000e+01	  -4.4316130e-01	  -1.7739912e-02	
   1.4355000e+01	  -4.5411288e-01	  -2.7775547e-02	
   1.4410000e+01	  -4.6516306e-01	  -3.7921483e-02	
   1.4465000e+01	  -4.7633008e-01	  -4.8217756e-02	
   1.4520000e+01	  -4.8760861e-01	  -5.8684147e-02	
   1.4575000e+01	  -4.9896437e-01	  -6.9316558e-02	
   1.4630000e+01	  -5.1033566e-01	  -8.0088478e-02	
   1.4685000e+01	  -5.2164101e-01	  -9.0956629e-02	
   1.4740000e+01	  -5.3279177e-01	  -1.0186963e-01	
   1.4795000e+01	  -5.4370676e-01	  -1.1277785e-01	
   1.4850000e+01	  -5.5432478e-01	  -1.2364219e-01	
   1.4905000e+01	  -5.6460986e-01	  -1.3443924e-01	
   1.4960000e+01	  -5.7454735e-01	  -1.4516165e-01	
   1.5015000e+01	  -5.8413300e-01	  -1.5581366e-01	
   1.5070000e+01	  -5.9336023e-01	  -1.6640379e-01	
   1.5125000e+01	  -6.0221064e-01	  -1.7693757e-01	
   1.5180000e+01	  -6.1065100e-01	  -1.8741292e-01	
   1.5235000e+01	  -6.1863652e-01	  -1.9781913e-01	
   1.5290000e+01	  -6.2611829e-01	  -2.0813879e-01	
   1.5345000e+01	  -6.3305210e-01	  -2.1835099e-01	
   1.5400000e+01	  -6.3940786e-01	  -2.2843534e-01	
   1.5455000e+01	  -6.4517880e-01	  -2.3837624e-01	
   1.5510000e+01	  -6.5038796e-01	  -2.4816607e-01	
   1.5565000e+01	  -6.5508766e-01	  -2.5780531e-01	
   1.5620000e+01	  -6.5935020e-01	  -2.6729922e-01	
   1.5675000e+01	  -6.6325211e-01	  -2.7665239e-01	
   1.5730000e+01	  -6.6685693e-01	  -2.8586303e-01	
   1.5785000e+01	  -6.7020133e-01	  -2.9491855e-01	
   1.5840000e+01	  -6.7328797e-01	  -3.0379357e-01	
   1.5895000e+01	  -6.7608599e-01	  -3.1245108e-01	
   1.5950000e+01	  -6.7853823e-01	  -3.2084672e-01	
   1.6005000e+01	  -6.8057284e-01	  -3.2893512e-01	
   1.6060000e+01	  -6.8211689e-01	  -3.3667663e-01	
   1.6115000e+01	  -6.8311038e-01	  -3.4404393e-01	
   1.6170000e+01	  -6.8351801e-01	  -3.5102705e-01	
   1.6225000e+01	  -6.8333520e-01	  -3.5763511e-01	
   1.6280000e+01	  -6.8258641e-01	  -3.6389348e-01	
   1.6335000e+01	  -6.8131754e-01	  -3.6983743e-01	
   1.6390000e+01	  -6.7958627e-01	  -3.7550459e-01	
   1.6445000e+01	  -6.7745368e-01	  -3.8092823e-01	
   1.6500000e+01	  -6.7497888e-01	  -3.8613264e-01	
   1.6555000e+01	  -6.7221695e-01	  -3.9113169e-01	
   1.6610000e+01	  -6.6922020e-01	  -3.9593137e-01	
   1.6665000e+01	  -6.6604206e-01	  -4.0053499e-01	
   1.6720000e+01	  -6.6274240e-01	  -4.0494909e-01	
   1.6775000e+01	  -6.5939200e-01	  -4.0918799e-01	
   1.6830000e+01	  -6.5607429e-01	  -4.1327601e-01	
   1.6885000e+01	  -6.5288231e-01	  -4.1724612e-01	
   1.6940000e+01	  -6.4990974e-01	  -4.2113463e-01	
   1.6995000e+01	  -6.4723752e-01	  -4.2497324e-01	
   1.7050000e+01	  -6.4492137e-01	  -4.2878174e-01	
   1.7105000e+01	  -6.4298435e-01	  -4.3256422e-01	
   1.7160000e+01	  -6.4141590e-01	  -4.3630912e-01	
   1.7215000e+01	  -6.4017675e-01	  -4.3999261e-01	
   1.7270000e+01	  -6.3920827e-01	  -4.4358381e-01	
   1.7325000e+01	  -6.3844410e-01	  -4.4705053e-01	
   1.7380000e+01	  -6.3782057e-01	  -4.5036355e-01	
   1.7435000e+01	  -6.3728287e-01	  -4.5349874e-01	
   1.7490000e+01	  -6.3678526e-01	  -4.5643662e-01	
   1.7545000e+01	  -6.3628586e-01	  -4.5915940e-01	
   1.7600000e+01	  -6.3573834e-01	  -4.6164604e-01	
   1.7655000e+01	  -6.3508436e-01	  -4.6386689e-01	
   1.7710000e+01	  -6.3424995e-01	  -4.6577993e-01	
   1.7765000e+01	  -6.3314722e-01	  -4.6733045e-01	
   1.7820000e+01	  -6.3168055e-01	  -4.6845459e-01	
   1.7875000e+01	  -6.2975611e-01	  -4.6908567e-01	
   1.7930000e+01	  -6.2729345e-01	  -4.6916191e-01	
   1.7985000e+01	  -6.2423790e-01	  -4.6863446e-01	
   1.8040000e+01	  -6.2057054e-01	  -4.6747409e-01	
   1.8095000e+01	  -6.1631092e-01	  -4.6567430e-01	
   1.8150000e+01	  -6.1150998e-01	  -4.6324978e-01	
   1.8205000e+01	  -6.0623534e-01	  -4.6023031e-01	
   1.8260000e+01	  -6.0055412e-01	  -4.5665219e-01	
   1.8315000e+01	  -5.9451815e-01	  -4.5254949e-01	
   1.8370000e+01	  -5.8815453e-01	  -4.4794770e-01	
   1.8425000e+01	  -5.8146270e-01	  -4.4286162e-01	
   1.8480000e+01	  -5.7441763e-01	  -4.3729733e-01	
   1.8535000e+01	  -5.6697767e-01	  -4.3125720e-01	
   1.8590000e+01	  -5.5909508e-01	  -4.2474648e-01	
   1.8645000e+01	  -5.5072694e-01	  -4.1777991e-01	
   1.8700000e+01	  -5.4184419e-01	  -4.1038679e-01	
   1.8755000e+01	  -5.3243616e-01	  -4.0261272e-01	
   1.8810000e+01	  -5.2250905e-01	  -3.9451735e-01	
   1.8865000e+01	  -5.1208025e-01	  -3.8616949e-01	
   1.8920000e+01	  -5.0117245e-01	  -3.7764239e-01	
   1.8975000e+01	  -4.8980997e-01	  -3.6901021e-01	
   1.9030000e+01	  -4.7801727e-01	  -3.6034526e-01	
   1.9085000e+01	  -4.6581982e-01	  -3.5171579e-01	
   1.9140000e+01	  -4.5324816e-01	  -3.4318531e-01	
   1.9195000e+01	  -4.4034439e-01	  -3.3481410e-01	
   1.9250000e+01	  -4.2716866e-01	  -3.2666101e-01	
   1.9305000e+01	  -4.1380146e-01	  -3.1878332e-01	
   1.9360000e+01	  -4.0033915e-01	  -3.1123336e-01	
   1.9415000e+01	  -3.8688222e-01	  -3.0405250e-01	
   1.9470000e+01	  -3.7351980e-01	  -2.9726431e-01	
   1.9525000e+01	  -3.6031567e-01	  -2.9086915e-01	
   1.9580000e+01	  -3.4730076e-01	  -2.8484227e-01	
   1.9635000e+01	  -3.3447430e-01	  -2.7913637e-01	
   1.9690000e+01	  -3.2181202e-01	  -2.7368798e-01	
   1.9745000e+01	  -3.0927847e-01	  -2.6842645e-01	
   1.9800000e+01	  -2.9684123e-01	  -2.6328437e-01	
   1.9855000e+01	  -2.8448466e-01	  -2.5820763e-01	
   1.9910000e+01	  -2.7222008e-01	  -2.5316320e-01	
   1.9965000e+01	  -2.6008866e-01	  -2.4814226e-01	
   2.0020000e+01	  -2.4815499e-01	  -2.4315775e-01	
   2.0075000e+01	  -2.3649404e-01	  -2.3823686e-01	
   2.0130000e+01	  -2.2517636e-01	  -2.3341112e-01	
   2.0185000e+01	  -2.1425735e-01	  -2.2870725e-01	
   2.0240000e+01	  -2.0377317e-01	  -2.2414086e-01	
   2.0295000e+01	  -1.9374321e-01	  -2.1971429e-01	
   2.0350000e+01	  -1.8417727e-01	  -2.1541850e-01	
   2.0405000e+01	  -1.7508450e-01	  -2.1123795e-01	
   2.0460000e+01	  -1.6648240e-01	  -2.0715726e-01	
   2.0515000e+01	  -1.5840465e-01	  -2.0316806e-01	
   2.0570000e+01	  -1.5090588e-01	  -1.9927421e-01	
   2.0625000e+01	  -1.4405986e-01	  -1.9549329e-01	
   2.0680000e+01	  -1.3794978e-01	  -1.9185347e-01	
   2.0735000e+01	  -1.3265299e-01	  -1.8838734e-01	
   2.0790000e+01	  -1.2822483e-01	  -1.8512558e-01	
   2.0845000e+01	  -1.2468581e-01	  -1.8209203e-01	
   2.0900000e+01	  -1.2201539e-01	  -1.7930139e-01	
   2.0955000e+01	  -1.2015417e-01	  -1.7675974e-01	
   2.1010000e+01	  -1.1901354e-01	  -1.7446824e-01	
   2.1065000e+01	  -1.1848971e-01	  -1.7242864e-01	
   2.1120000e+01	  -1.1847825e-01	  -1.7064956e-01	
   2.1175000e+01	  -1.1888698e-01	  -1.6915233e-01	
   2.1230000e+01	  -1.1964524e-01	  -1.6797495e-01	
   2.1285000e+01	  -1.2070770e-01	  -1.6717243e-01	
   2.1340000e+01	  -1.2205122e-01	  -1.6681204e-01	
   2.1395000e+01	  -1.2366520e-01	  -1.6696430e-01	
   2.1450000e+01	  -1.2553962e-01	  -1.6769262e-01	
   2.1505000e+01	  -1.2765591e-01	  -1.6904455e-01	
   2.1560000e+01	  -1.2998332e-01	  -1.7104610e-01	
   2.1615000e+01	  -1.3248054e-01	  -1.7369919e-01	
   2.1670000e+01	  -1.3510140e-01	  -1.7698249e-01	
   2.1725000e+01	  -1.3780331e-01	  -1.8085528e-01	
   2.1780000e+01	  -1.4055679e-01	  -1.8526318e-01	
   2.1835000e+01	  -1.4335404e-01	  -1.9014440e-01	
   2.1890000e+01	  -1.4621500e-01	  -1.9543599e-01	
   2.1945000e+01	  -1.4918913e-01	  -2.0107905e-01	
   2.2000000e+01	  -1.5235087e-01	  -2.0702075e-01	
   2.2055000e+01	  -1.5578862e-01	  -2.1321249e-01	
   2.2110000e+01	  -1.5959052e-01	  -2.1960593e-01	
   2.2165000e+01	  -1.6383158e-01	  -2.2614972e-01	
   2.2220000e+01	  -1.6856533e-01	  -2.3278822e-01	
   2.2275000e+01	  -1.7382046e-01	  -2.3946234e-01	
   2.2330000e+01	  -1.7960191e-01	  -2.4611278e-01	
   2.2385000e+01	  -1.8589626e-01	  -2.5268565e-01	
   2.2440000e+01	  -1.9268038e-01	  -2.5913937e-01	
   2.2495000e+01	  -1.9993030e-01	  -2.6545105e-01	
   2.2550000e+01	  -2.0762681e-01	  -2.7162049e-01	
   2.2605000e+01	  -2.1575474e-01	  -2.7767049e-01	
   2.2660000e+01	  -2.2429539e-01	  -2.8364235e-01	
   2.2715000e+01	  -2.3321445e-01	  -2.8958681e-01	
   2.2770000e+01	  -2.4245071e-01	  -2.9555350e-01	
   2.2825000e+01	  -2.5191073e-01	  -3.0158234e-01	
   2.2880000e+01	  -2.6147084e-01	  -3.0769861e-01	
   2.2935000e+01	  -2.7098424e-01	  -3.1391120e-01	
   2.2990000e+01	  -2.8029074e-01	  -3.2021327e-01	
   2.3045000e+01	  -2.8922884e-01	  -3.2658490e-01	
   2.3100000e+01	  -2.9764876e-01	  -3.3299732e-01	
   2.3155000e+01	  -3.0542421e-01	  -3.3941681e-01	
   2.3210000e+01	  -3.1245996e-01	  -3.4580679e-01	
   2.3265000e+01	  -3.1869317e-01	  -3.5212727e-01	
   2.3320000e+01	  -3.2408847e-01	  -3.5833217e-01	
   2.3375000e+01	  -3.2862875e-01	  -3.6436604e-01	
   2.3430000e+01	  -3.3230538e-01	  -3.7016176e-01	
   2.3485000e+01	  -3.3511217e-01	  -3.7564101e-01	
   2.3540000e+01	  -3.3704520e-01	  -3.8071873e-01	
   2.3595000e+01	  -3.3810788e-01	  -3.8531109e-01	
   2.3650000e+01	  -3.3831860e-01	  -3.8934496e-01	
   2.3705000e+01	  -3.3771808e-01	  -3.9276691e-01	
   2.3760000e+01	  -3.3637476e-01	  -3.9554982e-01	
   2.3815000e+01	  -3.3438607e-01	  -3.9769592e-01	
   2.3870000e+01	  -3.3187329e-01	  -3.9923483e-01	
   2.3925000e+01	  -3.2896966e-01	  -4.0021662e-01	
   2.3980000e+01	  -3.2580403e-01	  -4.0070164e-01	
   2.4035000e+01	  -3.2248516e-01	  -4.0075015e-01	
   2.4090000e+01	  -3.1909052e-01	  -4.0041450e-01	
   2.4145000e+01	  -3.1566164e-01	  -3.9973509e-01	
   2.4200000e+01	  -3.1220654e-01	  -3.9874003e-01	
   2.4255000e+01	  -3.0870879e-01	  -3.9744799e-01	
   2.4310000e+01	  -3.0514023e-01	  -3.9587272e-01	
   2.4365000e+01	  -3.0147372e-01	  -3.9402772e-01	
   2.4420000e+01	  -2.9769289e-01	  -3.9192965e-01	
   2.4475000e+01	  -2.9379671e-01	  -3.8959984e-01	
   2.4530000e+01	  -2.8979701e-01	  -3.8706273e-01	
   2.4585000e+01	  -2.8570945e-01	  -3.8434115e-01	
   2.4640000e+01	  -2.8154183e-01	  -3.8145025e-01	
   2.4695000e+01	  -2.7728491e-01	  -3.7839287e-01	
   2.4750000e+01	  -2.7290839e-01	  -3.7515782e-01	
   2.4805000e+01	  -2.6836246e-01	  -3.7172178e-01	
   2.4860000e+01	  -2.6358335e-01	  -3.6805435e-01	
   2.4915000e+01	  -2.5850190e-01	  -3.6412560e-01	
   2.4970000e+01	  -2.5305388e-01	  -3.5991460e-01	
   2.5025000e+01	  -2.4719032e-01	  -3.5541737e-01	
   2.5080000e+01	  -2.4088554e-01	  -3.5065265e-01	
   2.5135000e+01	  -2.3414071e-01	  -3.4566411e-01	
   2.5190000e+01	  -2.2698148e-01	  -3.4051807e-01	
   2.5245000e+01	  -2.1945080e-01	  -3.3529695e-01	
   2.5300000e+01	  -2.1160003e-01	  -3.3009057e-01	
   2.5355000e+01	  -2.0348194e-01	  -3.2498800e-01	
   2.5410000e+01	  -1.9514675e-01	  -3.2007172e-01	
   2.5465000e+01	  -1.8664113e-01	  -3.1541472e-01	
   2.5520000e+01	  -1.7801050e-01	  -3.1108028e-01	
   2.5575000e+01	  -1.6930443e-01	  -3.0712413e-01	
   2.5630000e+01	  -1.6058399e-01	  -3.0359828e-01	
   2.5685000e+01	  -1.5192748e-01	  -3.0055454e-01	
   2.5740000e+01	  -1.4343137e-01	  -2.9804578e-01	
   2.5795000e+01	  -1.3520446e-01	  -2.9612359e-01	
   2.5850000e+01	  -1.2735693e-01	  -2.9483288e-01	
   2.5905000e+01	  -1.1998748e-01	  -2.9420474e-01	
   2.5960000e+01	  -1.1317134e-01	  -2.9424906e-01	
   2.6015000e+01	  -1.0695082e-01	  -2.9494809e-01	
   2.6070000e+01	  -1.0133060e-01	  -2.9625286e-01	
   2.6125000e+01	  -9.6279755e-02	  -2.9808415e-01	
   2.6180000e+01	  -9.1740323e-02	  -3.0033794e-01	
   2.6235000e+01	  -8.7640332e-02	  -3.0289438e-01	
   2.6290000e+01	  -8.3908024e-02	  -3.0562864e-01	
   2.6345000e+01	  -8.0484143e-02	  -3.0842116e-01	
   2.6400000e+01	  -7.7328754e-02	  -3.1116487e-01	
   2.6455000e+01	  -7.4420117e-02	  -3.1376761e-01	
   2.6510000e+01	  -7.1746411e-02	  -3.1615011e-01	
   2.6565000e+01	  -6.9294509e-02	  -3.1824168e-01	
   2.6620000e+01	  -6.7040618e-02	  -3.1997595e-01	
   2.6675000e+01	  -6.4945609e-02	  -3.2128860e-01	
   2.6730000e+01	  -6.2955293e-02	  -3.2211746e-01	
   2.6785000e+01	  -6.1004671e-02	  -3.2240512e-01	
   2.6840000e+01	  -5.9024820e-02	  -3.2210308e-01	
   2.6895000e+01	  -5.6950535e-02	  -3.2117671e-01	
   2.6950000e+01	  -5.4726705e-02	  -3.1961014e-01	
   2.7005000e+01	  -5.2311670e-02	  -3.1741020e-01	
   2.7060000e+01	  -4.9675923e-02	  -3.1460782e-01	
   2.7115000e+01	  -4.6795723e-02	  -3.1125532e-01	
   2.7170000e+01	  -4.3644327e-02	  -3.0742020e-01	
   2.7225000e+01	  -4.0185477e-02	  -3.0317801e-01	
   2.7280000e+01	  -3.6372020e-02	  -2.9860672e-01	
   2.7335000e+01	  -3.2149632e-02	  -2.9378286e-01	
   2.7390000e+01	  -2.7464083e-02	  -2.8877952e-01	
   2.7445000e+01	  -2.2270593e-02	  -2.8366632e-01	
   2.7500000e+01	  -1.6544047e-02	  -2.7851130e-01	
   2.7555000e+01	  -1.0287972e-02	  -2.7338342e-01	
   2.7610000e+01	  -3.5394543e-03	  -2.6835384e-01	
   2.7665000e+01	   3.6322861e-03	  -2.6349452e-01	
   2.7720000e+01	   1.1134648e-02	  -2.5887320e-01	
   2.7775000e+01	   1.8866370e-02	  -2.5454571e-01	
   2.7830000e+01	   2.6733578e-02	  -2.5054779e-01	
   2.7885000e+01	   3.4661392e-02	  -2.4688992e-01	
   2.7940000e+01	   4.2598187e-02	  -2.4355697e-01	
   2.7995000e+01	   5.0513363e-02	  -2.4051227e-01	
   2.8050000e+01	   5.8390548e-02	  -2.3770494e-01	
   2.8105000e+01	   6.6217596e-02	  -2.3507914e-01	
   2.8160000e+01	   7.3974847e-02	  -2.3258424e-01	
   2.8215000e+01	   8.1624518e-02	  -2.3018410e-01	
   2.8270000e+01	   8.9105386e-02	  -2.2786271e-01	
   2.8325000e+01	   9.6336391e-02	  -2.2562423e-01	
   2.8380000e+01	   1.0322901e-01	  -2.2348720e-01	
   2.8435000e+01	   1.0970356e-01	  -2.2147469e-01	
   2.8490000e+01	   1.1570284e-01	  -2.1960393e-01	
   2.8545000e+01	   1.2119899e-01	  -2.1787868e-01	
   2.8600000e+01	   1.2619201e-01	  -2.1628660e-01	
   2.8655000e+01	   1.3070146e-01	  -2.1480173e-01	
   2.8710000e+01	   1.3475438e-01	  -2.1339045e-01	
   2.8765000e+01	   1.3837283e-01	  -2.1201885e-01	
   2.8820000e+01	   1.4156290e-01	  -2.1066021e-01	
   2.8875000e+01	   1.4430698e-01	  -2.0930086e-01	
   2.8930000e+01	   1.4656116e-01	  -2.0794291e-01	
   2.8985000e+01	   1.4826006e-01	  -2.0660262e-01	
   2.9040000e+01	   1.4932897e-01	  -2.0530535e-01	
   2.9095000e+01	   1.4970008e-01	  -2.0407858e-01	
   2.9150000e+01	   1.4932788e-01	  -2.0294506e-01	
   2.9205000e+01	   1.4819903e-01	  -2.0191832e-01	
   2.9260000e+01	   1.4633453e-01	  -2.0100149e-01	
   2.9315000e+01	   1.4378436e-01	  -2.0018979e-01	
   2.9370000e+01	   1.4061678e-01	  -1.9947555e-01	
   2.9425000e+01	   1.3690465e-01	  -1.9885452e-01	
   2.9480000e+01	   1.3271107e-01	  -1.9833205e-01	
   2.9535000e+01	   1.2807585e-01	  -1.9792831e-01	
   2.9590000e+01	   1.2300547e-01	  -1.9768107e-01	
   2.9645000e+01	   1.1747064e-01	  -1.9764482e-01	
   2.9700000e+01	   1.1141352e-01	  -1.9788537e-01	
   2.9755000e+01	   1.0476247e-01	  -1.9847170e-01	
   2.9810000e+01	   9.7449459e-02	  -1.9946755e-01	
   2.9865000e+01	   8.9426198e-02	  -2.0092431e-01	
   2.9920000e+01	   8.0676457e-02	  -2.0287553e-01	
   2.9975000e+01	   7.1222201e-02	  -2.0533400e-01	
   3.0030000e+01	   6.1122462e-02	  -2.0829240e-01	
   3.0085000e+01	   5.0466395e-02	  -2.1172718e-01	
   3.0140000e+01	   3.9362580e-02	  -2.1560450e-01	
   3.0195000e+01	   2.7926325e-02	  -2.1988705e-01	
   3.0250000e+01	   1.6267943e-02	  -2.2454007e-01	
   3.0305000e+01	   4.4862936e-03	  -2.2953440e-01	
   3.0360000e+01	  -7.3294276e-03	  -2.3484456e-01	
   3.0415000e+01	  -1.9090810e-02	  -2.4044235e-01	
   3.0470000e+01	  -3.0699042e-02	  -2.4628858e-01	
   3.0525000e+01	  -4.2036230e-02	  -2.5232600e-01	
   3.0580000e+01	  -5.2961650e-02	  -2.5847611e-01	
   3.0635000e+01	  -6.3313713e-02	  -2.6464064e-01	
   3.0690000e+01	  -7.2917683e-02	  -2.7070736e-01	
   3.0745000e+01	  -8.1597894e-02	  -2.7655829e-01	
   3.0800000e+01	  -8.9191834e-02	  -2.8207820e-01	
   3.0855000e+01	  -9.5563404e-02	  -2.8716200e-01	
   3.0910000e+01	  -1.0061339e-01	  -2.9172025e-01	
   3.0965000e+01	  -1.0428507e-01	  -2.9568165e-01	
   3.1020000e+01	  -1.0656275e-01	  -2.9899143e-01	
   3.1075000e+01	  -1.0746332e-01	  -3.0160627e-01	
   3.1130000e+01	  -1.0702412e-01	  -3.0348816e-01	
   3.1185000e+01	  -1.0529246e-01	  -3.0459981e-01	
   3.1240000e+01	  -1.0232065e-01	  -3.0490324e-01	
   3.1295000e+01	  -9.8167411e-02	  -3.0436189e-01	
   3.1350000e+01	  -9.2903993e-02	  -3.0294610e-01	
   3.1405000e+01	  -8.6622082e-02	  -3.0064109e-01	
   3.1460000e+01	  -7.9440272e-02	  -2.9745531e-01	
   3.1515000e+01	  -7.1507327e-02	  -2.9342713e-01	
   3.1570000e+01	  -6.3001793e-02	  -2.8862894e-01	
   3.1625000e+01	  -5.4127249e-02	  -2.8316826e-01	
   3.1680000e+01	  -4.5101955e-02	  -2.7718453e-01	
   3.1735000e+01	  -3.6143018e-02	  -2.7084104e-01	
   3.1790000e+01	  -2.7447867e-02	  -2.6431360e-01	
   3.1845000e+01	  -1.9176959e-02	  -2.5777899e-01	
   3.1900000e+01	  -1.1440692e-02	  -2.5140496e-01	
   3.1955000e+01	  -4.2921221e-03	  -2.4534235e-01	
   3.2010000e+01	   2.2734412e-03	  -2.3971960e-01	
   3.2065000e+01	   8.3113110e-03	  -2.3464048e-01	
   3.2120000e+01	   1.3913750e-02	  -2.3018500e-01	
   3.2175000e+01	   1.9192852e-02	  -2.2641235e-01	
   3.2230000e+01	   2.4264012e-02	  -2.2336430e-01	
   3.2285000e+01	   2.9233964e-02	  -2.2106753e-01	
   3.2340000e+01	   3.4197080e-02	  -2.1953322e-01	
   3.2395000e+01	   3.9241084e-02	  -2.1875338e-01	
   3.2450000e+01	   4.4458462e-02	  -2.1869546e-01	
   3.2505000e+01	   4.9956862e-02	  -2.1929831e-01	
   3.2560000e+01	   5.5863331e-02	  -2.2047167e-01	
   3.2615000e+01	   6.2320864e-02	  -2.2209896e-01	
   3.2670000e+01	   6.9478346e-02	  -2.2404286e-01	
   3.2725000e+01	   7.7476597e-02	  -2.2615332e-01	
   3.2780000e+01	   8.6433687e-02	  -2.2827779e-01	
   3.2835000e+01	   9.6432256e-02	  -2.3027198e-01	
   3.2890000e+01	   1.0751078e-01	  -2.3200919e-01	
   3.2945000e+01	   1.1966041e-01	  -2.3338654e-01	
   3.3000000e+01	   1.3282902e-01	  -2.3432647e-01	
   3.3055000e+01	   1.4693263e-01	  -2.3477304e-01	
   3.3110000e+01	   1.6187151e-01	  -2.3468487e-01	
   3.3165000e+01	   1.7754598e-01	  -2.3402805e-01	
   3.3220000e+01	   1.9386829e-01	  -2.3277153e-01	
   3.3275000e+01	   2.1076928e-01	  -2.3088516e-01	
   3.3330000e+01	   2.2819992e-01	  -2.2833961e-01	
   3.3385000e+01	   2.4612849e-01	  -2.2510800e-01	
   3.3440000e+01	   2.6453413e-01	  -2.2116989e-01	
   3.3495000e+01	   2.8339849e-01	  -2.1651663e-01	
   3.3550000e+01	   3.0269781e-01	  -2.1115611e-01	
   3.3605000e+01	   3.2239836e-01	  -2.0511477e-01	
   3.3660000e+01	   3.4245619e-01	  -1.9843625e-01	
   3.3715000e+01	   3.6282008e-01	  -1.9117791e-01	
   3.3770000e+01	   3.8343540e-01	  -1.8340634e-01	
   3.3825000e+01	   4.0424729e-01	  -1.7519349e-01	
   3.3880000e+01	   4.2520217e-01	  -1.6661468e-01	
   3.3935000e+01	   4.4624743e-01	  -1.5774877e-01	
   3.3990000e+01	   4.6732918e-01	  -1.4867955e-01	
   3.4045000e+01	   4.8838867e-01	  -1.3949754e-01	
   3.4100000e+01	   5.0935876e-01	  -1.3030184e-01	
   3.4155000e+01	   5.3016276e-01	  -1.2120061e-01	
   3.4210000e+01	   5.5071812e-01	  -1.1230849e-01	
   3.4265000e+01	   5.7094502e-01	  -1.0373986e-01	
   3.4320000e+01	   5.9077704e-01	  -9.5599984e-02	
   3.4375000e+01	   6.1016973e-01	  -8.7976901e-02	
   3.4430000e+01	   6.2910427e-01	  -8.0936410e-02	
   3.4485000e+01	   6.4758638e-01	  -7.4520658e-02	
   3.4540000e+01	   6.6564237e-01	  -6.8750072e-02	
   3.4595000e+01	   6.8331378e-01	  -6.3627367e-02	
   3.4650000e+01	   7.0065150e-01	  -5.9141738e-02	
   3.4705000e+01	   7.1771103e-01	  -5.5271807e-02	
   3.4760000e+01	   7.3455033e-01	  -5.1986997e-02	
   3.4815000e+01	   7.5123178e-01	  -4.9247511e-02	
   3.4870000e+01	   7.6782818e-01	  -4.7002806e-02	
   3.4925000e+01	   7.8443113e-01	  -4.5188933e-02	
   3.4980000e+01	   8.0115866e-01	  -4.3726361e-02	
   3.5035000e+01	   8.1815833e-01	  -4.2520215e-02	
   3.5090000e+01	   8.3560328e-01	  -4.1463292e-02	
   3.5145000e+01	   8.5368154e-01	  -4.0440730e-02	
   3.5200000e+01	   8.7258105e-01	  -3.9335564e-02	
   3.5255000e+01	   8.9247253e-01	  -3.8035654e-02	
   3.5310000e+01	   9.1349232e-01	  -3.6441803e-02	
   3.5365000e+01	   9.3572796e-01	  -3.4474897e-02	
   3.5420000e+01	   9.5921002e-01	  -3.2079207e-02	
   3.5475000e+01	   9.8391253e-01	  -2.9221002e-02	
   3.5530000e+01	   1.0097612e+00	  -2.5884228e-02	
   3.5585000e+01	   1.0366460e+00	  -2.2065693e-02	
   3.5640000e+01	   1.0644338e+00	  -1.7771277e-02	
   3.5695000e+01	   1.0929790e+00	  -1.3013654e-02	
   3.5750000e+01	   1.1221292e+00	  -7.8115737e-03	
   3.5805000e+01	   1.1517250e+00	  -2.1905743e-03	
   3.5860000e+01	   1.1815959e+00	   3.8150882e-03	
   3.5915000e+01	   1.2115546e+00	   1.0159661e-02	
   3.5970000e+01	   1.2413938e+00	   1.6783135e-02	
   3.6025000e+01	   1.2708863e+00	   2.3610214e-02	
   3.6080000e+01	   1.2997934e+00	   3.0552858e-02	
   3.6135000e+01	   1.3278788e+00	   3.7516755e-02	
   3.6190000e+01	   1.3549259e+00	   4.4409801e-02	
   3.6245000e+01	   1.3807504e+00	   5.1150056e-02	
   3.6300000e+01	   1.4052087e+00	   5.7671770e-02	
   3.6355000e+01	   1.4281992e+00	   6.3928806e-02	
   3.6410000e+01	   1.4496599e+00	   6.9894737e-02	
   3.6465000e+01	   1.4695614e+00	   7.5559540e-02	
   3.6520000e+01	   1.4878982e+00	   8.0923783e-02	
   3.6575000e+01	   1.5046777e+00	   8.5991438e-02	
   3.6630000e+01	   1.5199095e+00	   9.0762566e-02	
   3.6685000e+01	   1.5335978e+00	   9.5227919e-02	
   3.6740000e+01	   1.5457396e+00	   9.9367464e-02	
   3.6795000e+01	   1.5563301e+00	   1.0315285e-01	
   3.6850000e+01	   1.5653733e+00	   1.0655193e-01	
   3.6905000e+01	   1.5728929e+00	   1.0953347e-01	
   3.6960000e+01	   1.5789399e+00	   1.1207127e-01	
   3.7015000e+01	   1.5835965e+00	   1.1414700e-01	
   3.7070000e+01	   1.5869736e+00	   1.1575086e-01	
   3.7125000e+01	   1.5892029e+00	   1.1687959e-01	
   3.7180000e+01	   1.5904248e+00	   1.1753235e-01	
   3.7235000e+01	   1.5907750e+00	   1.1770608e-01	
   3.7290000e+01	   1.5903740e+00	   1.1739171e-01	
   3.7345000e+01	   1.5893216e+00	   1.1657228e-01	
   3.7400000e+01	   1.5876970e+00	   1.1522406e-01	
   3.7455000e+01	   1.5855653e+00	   1.1332173e-01	
   3.7510000e+01	   1.5829884e+00	   1.1084718e-01	
   3.7565000e+01	   1.5800365e+00	   1.0779896e-01	
   3.7620000e+01	   1.5767948e+00	   1.0419911e-01	
   3.7675000e+01	   1.5733640e+00	   1.0009536e-01	
   3.7730000e+01	   1.5698558e+00	   9.5558436e-02	
   3.7785000e+01	   1.5663830e+00	   9.0675163e-02	
   3.7840000e+01	   1.5630463e+00	   8.5538742e-02	
   3.7895000e+01	   1.5599222e+00	   8.0238709e-02	
   3.7950000e+01	   1.5570515e+00	   7.4852808e-02	
   3.8005000e+01	   1.5544334e+00	   6.9441818e-02	
   3.8060000e+01	   1.5520250e+00	   6.4048152e-02	
   3.8115000e+01	   1.5497497e+00	   5.8699205e-02	
   3.8170000e+01	   1.5475141e+00	   5.3414649e-02	
   3.8225000e+01	   1.5452269e+00	   4.8214651e-02	
   3.8280000e+01	   1.5428155e+00	   4.3126404e-02	
   3.8335000e+01	   1.5402357e+00	   3.8188220e-02	
   3.8390000e+01	   1.5374751e+00	   3.3450723e-02	
   3.8445000e+01	   1.5345502e+00	   2.8974360e-02	
   3.8500000e+01	   1.5314982e+00	   2.4823674e-02	
   3.8555000e+01	   1.5283664e+00	   2.1060561e-02	
   3.8610000e+01	   1.5252040e+00	   1.7738970e-02	
   3.8665000e+01	   1.5220571e+00	   1.4902215e-02	
   3.8720000e+01	   1.5189700e+00	   1.2582809e-02	
   3.8775000e+01	   1.5159911e+00	   1.0804014e-02	
   3.8830000e+01	   1.5131786e+00	   9.5818054e-03	
   3.8885000e+01	   1.5106025e+00	   8.9258582e-03	
   3.8940000e+01	   1.5083406e+00	   8.8390062e-03	
   3.8995000e+01	   1.5064702e+00	   9.3156135e-03	
   3.9050000e+01	   1.5050575e+00	   1.0339502e-02	
   3.9105000e+01	   1.5041463e+00	   1.1881404e-02	
   3.9160000e+01	   1.5037477e+00	   1.3895682e-02	
   3.9215000e+01	   1.5038325e+00	   1.6317256e-02	
   3.9270000e+01	   1.5043305e+00	   1.9060967e-02	
   3.9325000e+01	   1.5051372e+00	   2.2025331e-02	
   3.9380000e+01	   1.5061281e+00	   2.5100840e-02	
   3.9435000e+01	   1.5071787e+00	   2.8181172e-02	
   3.9490000e+01	   1.5081835e+00	   3.1174607e-02	
   3.9545000e+01	   1.5090714e+00	   3.4012878e-02	
   3.9600000e+01	   1.5098121e+00	   3.6655501e-02	
   3.9655000e+01	   1.5104139e+00	   3.9089189e-02	
   3.9710000e+01	   1.5109157e+00	   4.1323668e-02	
   3.9765000e+01	   1.5113741e+00	   4.3385614e-02	
   3.9820000e+01	   1.5118495e+00	   4.5311491e-02	
   3.9875000e+01	   1.5123906e+00	   4.7139704e-02	
   3.9930000e+01	   1.5130215e+00	   4.8903419e-02	
   3.9985000e+01	   1.5137346e+00	   5.0626341e-02	
   4.0040000e+01	   1.5144927e+00	   5.2323016e-02	
   4.0095000e+01	   1.5152391e+00	   5.4003013e-02	
   4.0150000e+01	   1.5159107e+00	   5.5676577e-02	
   4.0205000e+01	   1.5164524e+00	   5.7359311e-02	
   4.0260000e+01	   1.5168289e+00	   5.9074418e-02	
   4.0315000e+01	   1.5170311e+00	   6.0851709e-02	
   4.0370000e+01	   1.5170757e+00	   6.2723452e-02	
   4.0425000e+01	   1.5169973e+00	   6.4718142e-02	
   4.0480000e+01	   1.5168356e+00	   6.6853597e-02	
   4.0535000e+01	   1.5166222e+00	   6.9130500e-02	
   4.0590000e+01	   1.5163701e+00	   7.1527722e-02	
   4.0645000e+01	   1.5160689e+00	   7.4001242e-02	
   4.0700000e+01	   1.5156857e+00	   7.6487867e-02	
   4.0755000e+01	   1.5151724e+00	   7.8913140e-02	
   4.0810000e+01	   1.5144762e+00	   8.1201004e-02	
   4.0865000e+01	   1.5135499e+00	   8.3282520e-02	
   4.0920000e+01	   1.5123601e+00	   8.5101696e-02	
   4.0975000e+01	   1.5108891e+00	   8.6617337e-02	
   4.1030000e+01	   1.5091321e+00	   8.7800973e-02	
   4.1085000e+01	   1.5070894e+00	   8.8631967e-02	
   4.1140000e+01	   1.5047563e+00	   8.9091074e-02	
   4.1195000e+01	   1.5021126e+00	   8.9153586e-02	
   4.1250000e+01	   1.4991144e+00	   8.8783524e-02	
   4.1305000e+01	   1.4956920e+00	   8.7930887e-02	
   4.1360000e+01	   1.4917561e+00	   8.6533770e-02	
   4.1415000e+01	   1.4872119e+00	   8.4525816e-02	
   4.1470000e+01	   1.4819773e+00	   8.1847295e-02	
   4.1525000e+01	   1.4759989e+00	   7.8456560e-02	
   4.1580000e+01	   1.4692619e+00	   7.4339084e-02	
   4.1635000e+01	   1.4617931e+00	   6.9512826e-02	
   4.1690000e+01	   1.4536584e+00	   6.4029803e-02	
   4.1745000e+01	   1.4449555e+00	   5.7974108e-02	
   4.1800000e+01	   1.4358051e+00	   5.1456763e-02	
   4.1855000e+01	   1.4263406e+00	   4.4607772e-02	
   4.1910000e+01	   1.4166979e+00	   3.7565847e-02	
   4.1965000e+01	   1.4070044e+00	   3.0467434e-02	
   4.2020000e+01	   1.3973725e+00	   2.3438092e-02	
   4.2075000e+01	   1.3878975e+00	   1.6588577e-02	
   4.2130000e+01	   1.3786609e+00	   1.0015205e-02	
   4.2185000e+01	   1.3697353e+00	   3.8021386e-03	
   4.2240000e+01	   1.3611874e+00	  -1.9766047e-03	
   4.2295000e+01	   1.3530800e+00	  -7.2565288e-03	
   4.2350000e+01	   1.3454694e+00	  -1.1983641e-02	
   4.2405000e+01	   1.3384012e+00	  -1.6116618e-02	
   4.2460000e+01	   1.3319038e+00	  -1.9629557e-02	
   4.2515000e+01	   1.3259825e+00	  -2.2514660e-02	
   4.2570000e+01	   1.3206167e+00	  -2.4783907e-02	
   4.2625000e+01	   1.3157607e+00	  -2.6468617e-02	
   4.2680000e+01	   1.3113508e+00	  -2.7615739e-02	
   4.2735000e+01	   1.3073173e+00	  -2.8280614e-02	
   4.2790000e+01	   1.3036002e+00	  -2.8517863e-02	
   4.2845000e+01	   1.3001620e+00	  -2.8373348e-02	
   4.2900000e+01	   1.2969948e+00	  -2.7879195e-02	
   4.2955000e+01	   1.2941208e+00	  -2.7052147e-02	
   4.3010000e+01	   1.2915849e+00	  -2.5895068e-02	
   4.3065000e+01	   1.2894441e+00	  -2.4401501e-02	
   4.3120000e+01	   1.2877529e+00	  -2.2562454e-02	
   4.3175000e+01	   1.2865519e+00	  -2.0373492e-02	
   4.3230000e+01	   1.2858604e+00	  -1.7839963e-02	
   4.3285000e+01	   1.2856779e+00	  -1.4978717e-02	
   4.3340000e+01	   1.2859939e+00	  -1.1815425e-02	
   4.3395000e+01	   1.2868022e+00	  -8.3780355e-03	
   4.3450000e+01	   1.2881164e+00	  -4.6887253e-03	
   4.3505000e+01	   1.2899815e+00	  -7.5755226e-04	
   4.3560000e+01	   1.2924770e+00	   3.4202267e-03	
   4.3615000e+01	   1.2957134e+00	   7.8632112e-03	
   4.3670000e+01	   1.2998216e+00	   1.2600046e-02	
   4.3725000e+01	   1.3049387e+00	   1.7662902e-02	
   4.3780000e+01	   1.3111915e+00	   2.3078694e-02	
   4.3835000e+01	   1.3186821e+00	   2.8859943e-02	
   4.3890000e+01	   1.3274782e+00	   3.4997994e-02	
   4.3945000e+01	   1.3376119e+00	   4.1460959e-02	
   4.4000000e+01	   1.3490846e+00	   4.8197766e-02	
   4.4055000e+01	   1.3618775e+00	   5.5147564e-02	
   4.4110000e+01	   1.3759608e+00	   6.2251173e-02	
   4.4165000e+01	   1.3912997e+00	   6.9460307e-02	
   4.4220000e+01	   1.4078530e+00	   7.6741633e-02	
   4.4275000e+01	   1.4255647e+00	   8.4075489e-02	
   4.4330000e+01	   1.4443503e+00	   9.1451012e-02	
   4.4385000e+01	   1.4640825e+00	   9.8859755e-02	
   4.4440000e+01	   1.4845772e+00	   1.0628908e-01	
   4.4495000e+01	   1.5055847e+00	   1.1371644e-01	
   4.4550000e+01	   1.5267861e+00	   1.2110608e-01	
   4.4605000e+01	   1.5477988e+00	   1.2840977e-01	
   4.4660000e+01	   1.5681902e+00	   1.3557137e-01	
   4.4715000e+01	   1.5874982e+00	   1.4253367e-01	
   4.4770000e+01	   1.6052522e+00	   1.4924513e-01	
   4.4825000e+01	   1.6209905e+00	   1.5566465e-01	
   4.4880000e+01	   1.6342736e+00	   1.6176324e-01	
   4.4935000e+01	   1.6446925e+00	   1.6752276e-01	
   4.4990000e+01	   1.6518722e+00	   1.7293194e-01	
   4.5045000e+01	   1.6554734e+00	   1.7798012e-01	
   4.5100000e+01	   1.6551928e+00	   1.8264969e-01	
   4.5155000e+01	   1.6507656e+00	   1.8690980e-01	
   4.5210000e+01	   1.6419740e+00	   1.9071374e-01	
   4.5265000e+01	   1.6286630e+00	   1.9400134e-01	
   4.5320000e+01	   1.6107629e+00	   1.9670599e-01	
   4.5375000e+01	   1.5883177e+00	   1.9876507e-01	
   4.5430000e+01	   1.5615131e+00	   2.0013091e-01	
   4.5485000e+01	   1.5307002e+00	   2.0077980e-01	
   4.5540000e+01	   1.4964102e+00	   2.0071701e-01	
   4.5595000e+01	   1.4593592e+00	   1.9997709e-01	
   4.5650000e+01	   1.4204398e+00	   1.9861976e-01	
   4.5705000e+01	   1.3807034e+00	   1.9672269e-01	
   4.5760000e+01	   1.3413319e+00	   1.9437242e-01	
   4.5815000e+01	   1.3036042e+00	   1.9165512e-01	
   4.5870000e+01	   1.2688558e+00	   1.8864902e-01	
   4.5925000e+01	   1.2384359e+00	   1.8542065e-01	
   4.5980000e+01	   1.2136599e+00	   1.8202564e-01	
   4.6035000e+01	   1.1957514e+00	   1.7851296e-01	
   4.6090000e+01	   1.1857695e+00	   1.7493052e-01	
   4.6145000e+01	   1.1845211e+00	   1.7133020e-01	
   4.6200000e+01	   1.1924744e+00	   1.6777119e-01	
   4.6255000e+01	   1.2097054e+00	   1.6432145e-01	
   4.6310000e+01	   1.2359001e+00	   1.6105710e-01	
   4.6365000e+01	   1.2704082e+00	   1.5805957e-01	
   4.6420000e+01	   1.3123180e+00	   1.5541011e-01	
   4.6475000e+01	   1.3605270e+00	   1.5318216e-01	
   4.6530000e+01	   1.4138027e+00	   1.5143360e-01	
   4.6585000e+01	   1.4708357e+00	   1.5020168e-01	
   4.6640000e+01	   1.5302886e+00	   1.4950210e-01	
   4.6695000e+01	   1.5908429e+00	   1.4933191e-01	
   4.6750000e+01	   1.6512389e+00	   1.4967439e-01	
   4.6805000e+01	   1.7103068e+00	   1.5050431e-01	
   4.6860000e+01	   1.7669897e+00	   1.5179228e-01	
   4.6915000e+01	   1.8203552e+00	   1.5350723e-01	
   4.6970000e+01	   1.8695978e+00	   1.5561633e-01	
   4.7025000e+01	   1.9140327e+00	   1.5808305e-01	
   4.7080000e+01	   1.9530846e+00	   1.6086460e-01	
   4.7135000e+01	   1.9862766e+00	   1.6391043e-01	
   4.7190000e+01	   2.0132210e+00	   1.6716322e-01	
   4.7245000e+01	   2.0336169e+00	   1.7056321e-01	
   4.7300000e+01	   2.0472519e+00	   1.7405473e-01	
   4.7355000e+01	   2.0540082e+00	   1.7759226e-01	
   4.7410000e+01	   2.0538665e+00	   1.8114420e-01	
   4.7465000e+01	   2.0469092e+00	   1.8469402e-01	
   4.7520000e+01	   2.0333210e+00	   1.8823998e-01	
   4.7575000e+01	   2.0133875e+00	   1.9179344e-01	
   4.7630000e+01	   1.9874894e+00	   1.9537488e-01	
   4.7685000e+01	   1.9560942e+00	   1.9900797e-01	
   4.7740000e+01	   1.9197475e+00	   2.0271349e-01	
   4.7795000e+01	   1.8790677e+00	   2.0650496e-01	
   4.7850000e+01	   1.8347460e+00	   2.1038690e-01	
   4.7905000e+01	   1.7875504e+00	   2.1435652e-01	
   4.7960000e+01	   1.7383293e+00	   2.1840819e-01	
   4.8015000e+01	   1.6880099e+00	   2.2253864e-01	
   4.8070000e+01	   1.6375836e+00	   2.2674985e-01	
   4.8125000e+01	   1.5880769e+00	   2.3104872e-01	
   4.8180000e+01	   1.5405085e+00	   2.3544374e-01	
   4.8235000e+01	   1.4958405e+00	   2.3994008e-01	
   4.8290000e+01	   1.4549455e+00	   2.4453467e-01	
   4.8345000e+01	   1.4186033e+00	   2.4921243e-01	
   4.8400000e+01	   1.3875222e+00	   2.5394527e-01	
   4.8455000e+01	   1.3623659e+00	   2.5869511e-01	
   4.8510000e+01	   1.3437745e+00	   2.6342040e-01	
   4.8565000e+01	   1.3323671e+00	   2.6808452e-01	
   4.8620000e+01	   1.3287233e+00	   2.7266301e-01	
   4.8675000e+01	   1.3333362e+00	   2.7714754e-01	
   4.8730000e+01	   1.3465369e+00	   2.8154495e-01	
   4.8785000e+01	   1.3683908e+00	   2.8587127e-01	
   4.8840000e+01	   1.3985783e+00	   2.9014217e-01	
   4.8895000e+01	   1.4362902e+00	   2.9436232e-01	
   4.8950000e+01	   1.4801785e+00	   2.9851580e-01	
   4.9005000e+01	   1.5283843e+00	   3.0255899e-01	
   4.9060000e+01	   1.5786309e+00	   3.0641697e-01	
   4.9115000e+01	   1.6283476e+00	   3.0998499e-01	
   4.9170000e+01	   1.6747994e+00	   3.1313540e-01	
   4.9225000e+01	   1.7152065e+00	   3.1572876e-01	
   4.9280000e+01	   1.7468495e+00	   3.1762702e-01	
   4.9335000e+01	   1.7671576e+00	   3.1870593e-01	
   4.9390000e+01	   1.7737764e+00	   3.1886553e-01	
   4.9445000e+01	   1.7646159e+00	   3.1803704e-01	
   4.9500000e+01	   1.7378775e+00	   3.1618515e-01	
   4.9555000e+01	   1.6920615e+00	   3.1330606e-01	
   4.9610000e+01	   1.6259671e+00	   3.0942216e-01	
   4.9665000e+01	   1.5387060e+00	   3.0457492e-01	
   4.9720000e+01	   1.4297498e+00	   2.9881729e-01	
   4.9775000e+01	   1.2990079e+00	   2.9220778e-01	
   4.9830000e+01	   1.1469138e+00	   2.8480871e-01	
   4.9885000e+01	   9.7449745e-01	   2.7668880e-01	
   4.9940000e+01	   7.8342793e-01	   2.6792829e-01	
   4.9995000e+01	   5.7601854e-01	   2.5862383e-01	
   5.0050000e+01	   3.5518793e-01	   2.4889106e-01	
   5.0105000e+01	   1.2437318e-01	   2.3886422e-01	
   5.0160000e+01	  -1.1260792e-01	   2.2869211e-01	
   5.0215000e+01	  -3.5173925e-01	   2.1853134e-01	
   5.0270000e+01	  -5.8900989e-01	   2.0853848e-01	
   5.0325000e+01	  -8.2060579e-01	   1.9886186e-01	
   5.0380000e+01	  -1.0430650e+00	   1.8963365e-01	
   5.0435000e+01	  -1.2533868e+00	   1.8096328e-01	
   5.0490000e+01	  -1.4490956e+00	   1.7293456e-01	
   5.0545000e+01	  -1.6282634e+00	   1.6560777e-01	
   5.0600000e+01	  -1.7895036e+00	   1.5902554e-01	
   5.0655000e+01	  -1.9319436e+00	   1.5322016e-01	
   5.0710000e+01	  -2.0551849e+00	   1.4822030e-01	
   5.0765000e+01	  -2.1592562e+00	   1.4405571e-01	
   5.0820000e+01	  -2.2445639e+00	   1.4075843e-01	
   5.0875000e+01	  -2.3118428e+00	   1.3836032e-01	
   5.0930000e+01	  -2.3621076e+00	   1.3688813e-01	
   5.0985000e+01	  -2.3966040e+00	   1.3635817e-01	
   5.1040000e+01	  -2.4167581e+00	   1.3677219e-01	
   5.1095000e+01	  -2.4241249e+00	   1.3811601e-01	
   5.1150000e+01	  -2.4203335e+00	   1.4036174e-01	
   5.1205000e+01	  -2.4070323e+00	   1.4347266e-01	
   5.1260000e+01	  -2.3858377e+00	   1.4740803e-01	
   5.1315000e+01	  -2.3582928e+00	   1.5212526e-01	
   5.1370000e+01	  -2.3258367e+00	   1.5757893e-01	
   5.1425000e+01	  -2.2897857e+00	   1.6371798e-01	
   5.1480000e+01	  -2.2513217e+00	   1.7048225e-01	
   5.1535000e+01	  -2.2114884e+00	   1.7779856e-01	
   5.1590000e+01	  -2.1711914e+00	   1.8557683e-01	
   5.1645000e+01	  -2.1312018e+00	   1.9370791e-01	
   5.1700000e+01	  -2.0921589e+00	   2.0206467e-01	
   5.1755000e+01	  -2.0545728e+00	   2.1050748e-01	
   5.1810000e+01	  -2.0188230e+00	   2.1889408e-01	
   5.1865000e+01	  -1.9851562e+00	   2.2709193e-01	
   5.1920000e+01	  -1.9536860e+00	   2.3498991e-01	
   5.1975000e+01	  -1.9243990e+00	   2.4250592e-01	
   5.2030000e+01	  -1.8971678e+00	   2.4958963e-01	
   5.2085000e+01	  -1.8717690e+00	   2.5622153e-01	
   5.2140000e+01	  -1.8479055e+00	   2.6240888e-01	
   5.2195000e+01	  -1.8252334e+00	   2.6817864e-01	
   5.2250000e+01	  -1.8033885e+00	   2.7356833e-01	
   5.2305000e+01	  -1.7820101e+00	   2.7861702e-01	
   5.2360000e+01	  -1.7607591e+00	   2.8335867e-01	
   5.2415000e+01	  -1.7393278e+00	   2.8781973e-01	
   5.2470000e+01	  -1.7174429e+00	   2.9202147e-01	
   5.2525000e+01	  -1.6948627e+00	   2.9598572e-01	
   5.2580000e+01	  -1.6713746e+00	   2.9974078e-01	
   5.2635000e+01	  -1.6467960e+00	   3.0332407e-01	
   5.2690000e+01	  -1.6209819e+00	   3.0678051e-01	
   5.2745000e+01	  -1.5938383e+00	   3.1015747e-01	
   5.2800000e+01	  -1.5653364e+00	   3.1349809e-01	
   5.2855000e+01	  -1.5355275e+00	   3.1683406e-01	
   5.2910000e+01	  -1.5045541e+00	   3.2017829e-01	
   5.2965000e+01	  -1.4726547e+00	   3.2351893e-01	
   5.3020000e+01	  -1.4401607e+00	   3.2681703e-01	
   5.3075000e+01	  -1.4074806e+00	   3.3000953e-01	
   5.3130000e+01	  -1.3750751e+00	   3.3301720e-01	
   5.3185000e+01	  -1.3434260e+00	   3.3575503e-01	
   5.3240000e+01	  -1.3130065e+00	   3.3814244e-01	
   5.3295000e+01	  -1.2842577e+00	   3.4011121e-01	
   5.3350000e+01	  -1.2575724e+00	   3.4160978e-01	
   5.3405000e+01	  -1.2332872e+00	   3.4260408e-01	
   5.3460000e+01	  -1.2116814e+00	   3.4307547e-01	
   5.3515000e+01	  -1.1929783e+00	   3.4301685e-01	
   5.3570000e+01	  -1.1773480e+00	   3.4242772e-01	
   5.3625000e+01	  -1.1649096e+00	   3.4130991e-01	
   5.3680000e+01	  -1.1557284e+00	   3.3966521e-01	
   5.3735000e+01	  -1.1498105e+00	   3.3749603e-01	
   5.3790000e+01	  -1.1470955e+00	   3.3480820e-01	
   5.3845000e+01	  -1.1474516e+00	   3.3161502e-01	
   5.3900000e+01	  -1.1506761e+00	   3.2794140e-01	
   5.3955000e+01	  -1.1565011e+00	   3.2382685e-01	
   5.4010000e+01	  -1.1646068e+00	   3.1932567e-01	
   5.4065000e+01	  -1.1746387e+00	   3.1450373e-01	
   5.4120000e+01	  -1.1862298e+00	   3.0943291e-01	
   5.4175000e+01	  -1.1990186e+00	   3.0418533e-01	
   5.4230000e+01	  -1.2126650e+00	   2.9882870e-01	
   5.4285000e+01	  -1.2268584e+00	   2.9342322e-01	
   5.4340000e+01	  -1.2413207e+00	   2.8802070e-01	
   5.4395000e+01	  -1.2558022e+00	   2.8266666e-01	
   5.4450000e+01	  -1.2700734e+00	   2.7740449e-01	
   5.4505000e+01	  -1.2839167e+00	   2.7227951e-01	
   5.4560000e+01	  -1.2971199e+00	   2.6734179e-01	
   5.4615000e+01	  -1.3094744e+00	   2.6264737e-01	
   5.4670000e+01	  -1.3207761e+00	   2.5825685e-01	
   5.4725000e+01	  -1.3308293e+00	   2.5423058e-01	
   5.4780000e+01	  -1.3394538e+00	   2.5062092e-01	
   5.4835000e+01	  -1.3464930e+00	   2.4746448e-01	
   5.4890000e+01	  -1.3518192e+00	   2.4477687e-01	
   5.4945000e+01	  -1.3553356e+00	   2.4255155e-01	
   5.5000000e+01	  -1.3569734e+00	   2.4076305e-01	
   5.5055000e+01	  -1.3566854e+00	   2.3937365e-01	
   5.5110000e+01	  -1.3544398e+00	   2.3834111e-01	
   5.5165000e+01	  -1.3502165e+00	   2.3762517e-01	
   5.5220000e+01	  -1.3440069e+00	   2.3719185e-01	
   5.5275000e+01	  -1.3358158e+00	   2.3701589e-01	
   5.5330000e+01	  -1.3256657e+00	   2.3708101e-01	
   5.5385000e+01	  -1.3136040e+00	   2.3737775e-01	
   5.5440000e+01	  -1.2997084e+00	   2.3789970e-01	
   5.5495000e+01	  -1.2840880e+00	   2.3864060e-01	
   5.5550000e+01	  -1.2668783e+00	   2.3959420e-01	
   5.5605000e+01	  -1.2482294e+00	   2.4075678e-01	
   5.5660000e+01	  -1.2282936e+00	   2.4213052e-01	
   5.5715000e+01	  -1.2072140e+00	   2.4372618e-01	
   5.5770000e+01	  -1.1851180e+00	   2.4556383e-01	
   5.5825000e+01	  -1.1621156e+00	   2.4767126e-01	
   5.5880000e+01	  -1.1383039e+00	   2.5007948e-01	
   5.5935000e+01	  -1.1137739e+00	   2.5281586e-01	
   5.5990000e+01	  -1.0886190e+00	   2.5589606e-01	
   5.6045000e+01	  -1.0629416e+00	   2.5931605e-01	
   5.6100000e+01	  -1.0368583e+00	   2.6304608e-01	
   5.6155000e+01	  -1.0105001e+00	   2.6702876e-01	
   5.6210000e+01	  -9.8400698e-01	   2.7118257e-01	
   5.6265000e+01	  -9.5751818e-01	   2.7540984e-01	
   5.6320000e+01	  -9.3116318e-01	   2.7960638e-01	
   5.6375000e+01	  -9.0505528e-01	   2.8367029e-01	
   5.6430000e+01	  -8.7928836e-01	   2.8750858e-01	
   5.6485000e+01	  -8.5393682e-01	   2.9104078e-01	
   5.6540000e+01	  -8.2905944e-01	   2.9419902e-01	
   5.6595000e+01	  -8.0470777e-01	   2.9692574e-01	
   5.6650000e+01	  -7.8093694e-01	   2.9917052e-01	
   5.6705000e+01	  -7.5781629e-01	   3.0088759e-01	
   5.6760000e+01	  -7.3543690e-01	   3.0203465e-01	
   5.6815000e+01	  -7.1391394e-01	   3.0257390e-01	
   5.6870000e+01	  -6.9338230e-01	   3.0247616e-01	
   5.6925000e+01	  -6.7398674e-01	   3.0172751e-01	
   5.6980000e+01	  -6.5587080e-01	   3.0033611e-01	
   5.7035000e+01	  -6.3916867e-01	   2.9833617e-01	
   5.7090000e+01	  -6.2400122e-01	   2.9578803e-01	
   5.7145000e+01	  -6.1047465e-01	   2.9277464e-01	
   5.7200000e+01	  -5.9868130e-01	   2.8939518e-01	
   5.7255000e+01	  -5.8870257e-01	   2.8575652e-01	
   5.7310000e+01	  -5.8061274e-01	   2.8196322e-01	
   5.7365000e+01	  -5.7448077e-01	   2.7810830e-01	
   5.7420000e+01	  -5.7036780e-01	   2.7426679e-01	
   5.7475000e+01	  -5.6831883e-01	   2.7049393e-01	
   5.7530000e+01	  -5.6834799e-01	   2.6682814e-01	
   5.7585000e+01	  -5.7042049e-01	   2.6329734e-01	
   5.7640000e+01	  -5.7443685e-01	   2.5992578e-01	
   5.7695000e+01	  -5.8022546e-01	   2.5673871e-01	
   5.7750000e+01	  -5.8754587e-01	   2.5376398e-01	
   5.7805000e+01	  -5.9610239e-01	   2.5103083e-01	
   5.7860000e+01	  -6.0556573e-01	   2.4856656e-01	
   5.7915000e+01	  -6.1560050e-01	   2.4639091e-01	
   5.7970000e+01	  -6.2589477e-01	   2.4450872e-01	
   5.8025000e+01	  -6.3618610e-01	   2.4290293e-01	
   5.8080000e+01	  -6.4627853e-01	   2.4153073e-01	
   5.8135000e+01	  -6.5604711e-01	   2.4032475e-01	
   5.8190000e+01	  -6.6542986e-01	   2.3919923e-01	
   5.8245000e+01	  -6.7441120e-01	   2.3805939e-01	
   5.8300000e+01	  -6.8300265e-01	   2.3681166e-01	
   5.8355000e+01	  -6.9122619e-01	   2.3537259e-01	
   5.8410000e+01	  -6.9910302e-01	   2.3367489e-01	
   5.8465000e+01	  -7.0664821e-01	   2.3167060e-01	
   5.8520000e+01	  -7.1387035e-01	   2.2933134e-01	
   5.8575000e+01	  -7.2077543e-01	   2.2664579e-01	
   5.8630000e+01	  -7.2737322e-01	   2.2361511e-01	
   5.8685000e+01	  -7.3368381e-01	   2.2024756e-01	
   5.8740000e+01	  -7.3974073e-01	   2.1655468e-01	
   5.8795000e+01	  -7.4558801e-01	   2.1255020e-01	
   5.8850000e+01	  -7.5127073e-01	   2.0825269e-01	
   5.8905000e+01	  -7.5682147e-01	   2.0369117e-01	
   5.8960000e+01	  -7.6224709e-01	   1.9891150e-01	
   5.9015000e+01	  -7.6751988e-01	   1.9398034e-01	
   5.9070000e+01	  -7.7257501e-01	   1.8898477e-01	
   5.9125000e+01	  -7.7731399e-01	   1.8402753e-01	
   5.9180000e+01	  -7.8161280e-01	   1.7921893e-01	
   5.9235000e+01	  -7.8533283e-01	   1.7466648e-01	
   5.9290000e+01	  -7.8833227e-01	   1.7046446e-01	
   5.9345000e+01	  -7.9047421e-01	   1.6668627e-01	
   5.9400000e+01	  -7.9162876e-01	   1.6338217e-01	
   5.9455000e+01	  -7.9166983e-01	   1.6058261e-01	
   5.9510000e+01	  -7.9047027e-01	   1.5830459e-01	
   5.9565000e+01	  -7.8789912e-01	   1.5655815e-01	
   5.9620000e+01	  -7.8382215e-01	   1.5535085e-01	
   5.9675000e+01	  -7.7810562e-01	   1.5468947e-01	
   5.9730000e+01	  -7.7062284e-01	   1.5457873e-01	
   5.9785000e+01	  -7.6126265e-01	   1.5501821e-01	
   5.9840000e+01	  -7.4993823e-01	   1.5599849e-01	
   5.9895000e+01	  -7.3659444e-01	   1.5749753e-01	
   5.9950000e+01	  -7.2121240e-01	   1.5947791e-01	
   6.0005000e+01	  -7.0380977e-01	   1.6188634e-01	
   6.0060000e+01	  -6.8443568e-01	   1.6465754e-01	
   6.0115000e+01	  -6.6316109e-01	   1.6772270e-01	
   6.0170000e+01	  -6.4006892e-01	   1.7101898e-01	
   6.0225000e+01	  -6.1524785e-01	   1.7449696e-01	
   6.0280000e+01	  -5.8879156e-01	   1.7812383e-01	
   6.0335000e+01	  -5.6080258e-01	   1.8188243e-01	
   6.0390000e+01	  -5.3139964e-01	   1.8576613e-01	
   6.0445000e+01	  -5.0072637e-01	   1.8977145e-01	
   6.0500000e+01	  -4.6895950e-01	   1.9389114e-01	
   6.0555000e+01	  -4.3631469e-01	   1.9810984e-01	
   6.0610000e+01	  -4.0304770e-01	   2.0240333e-01	
   6.0665000e+01	  -3.6944963e-01	   2.0674122e-01	
   6.0720000e+01	  -3.3583647e-01	   2.1109230e-01	
   6.0775000e+01	  -3.0253514e-01	   2.1543088e-01	
   6.0830000e+01	  -2.6986940e-01	   2.1974237e-01	
   6.0885000e+01	  -2.3814943e-01	   2.2402589e-01	
   6.0940000e+01	  -2.0766679e-01	   2.2829303e-01	
   6.0995000e+01	  -1.7869415e-01	   2.3256331e-01	
   6.1050000e+01	  -1.5148859e-01	   2.3685711e-01	
   6.1105000e+01	  -1.2629793e-01	   2.4118703e-01	
   6.1160000e+01	  -1.0336823e-01	   2.4554881e-01	
   6.1215000e+01	  -8.2948186e-02	   2.4991417e-01	
   6.1270000e+01	  -6.5286644e-02	   2.5422812e-01	
   6.1325000e+01	  -5.0622098e-02	   2.5841213e-01	
   6.1380000e+01	  -3.9165581e-02	   2.6237291e-01	
   6.1435000e+01	  -3.1080668e-02	   2.6601432e-01	
   6.1490000e+01	  -2.6465571e-02	   2.6924918e-01	
   6.1545000e+01	  -2.5341121e-02	   2.7200830e-01	
   6.1600000e+01	  -2.7645564e-02	   2.7424583e-01	
   6.1655000e+01	  -3.3235890e-02	   2.7594130e-01	
   6.1710000e+01	  -4.1895554e-02	   2.7709826e-01	
   6.1765000e+01	  -5.3348136e-02	   2.7773877e-01	
   6.1820000e+01	  -6.7275444e-02	   2.7789408e-01	
   6.1875000e+01	  -8.3337628e-02	   2.7759401e-01	
   6.1930000e+01	  -1.0119224e-01	   2.7685840e-01	
   6.1985000e+01	  -1.2050913e-01	   2.7569305e-01	
   6.2040000e+01	  -1.4097889e-01	   2.7409096e-01	
   6.2095000e+01	  -1.6231448e-01	   2.7203808e-01	
   6.2150000e+01	  -1.8424707e-01	   2.6952168e-01	
   6.2205000e+01	  -2.0651892e-01	   2.6653883e-01	
   6.2260000e+01	  -2.2887716e-01	   2.6310286e-01	
   6.2315000e+01	  -2.5107226e-01	   2.5924601e-01	
   6.2370000e+01	  -2.7286195e-01	   2.5501708e-01	
   6.2425000e+01	  -2.9401879e-01	   2.5047452e-01	
   6.2480000e+01	  -3.1433846e-01	   2.4567687e-01	
   6.2535000e+01	  -3.3364584e-01	   2.4067358e-01	
   6.2590000e+01	  -3.5179703e-01	   2.3549835e-01	
   6.2645000e+01	  -3.6867645e-01	   2.3016609e-01	
   6.2700000e+01	  -3.8418938e-01	   2.2467373e-01	
   6.2755000e+01	  -3.9825121e-01	   2.1900466e-01	
   6.2810000e+01	  -4.1077622e-01	   2.1313606e-01	
   6.2865000e+01	  -4.2167010e-01	   2.0704749e-01	
   6.2920000e+01	  -4.3082862e-01	   2.0072785e-01	
   6.2975000e+01	  -4.3814289e-01	   1.9417883e-01	
   6.3030000e+01	  -4.4350949e-01	   1.8741452e-01	
   6.3085000e+01	  -4.4684320e-01	   1.8045803e-01	
   6.3140000e+01	  -4.4809015e-01	   1.7333710e-01	
   6.3195000e+01	  -4.4723906e-01	   1.6608001e-01	
   6.3250000e+01	  -4.4432808e-01	   1.5871262e-01	
   6.3305000e+01	  -4.3944473e-01	   1.5125746e-01	
   6.3360000e+01	  -4.3271875e-01	   1.4373545e-01	
   6.3415000e+01	  -4.2431024e-01	   1.3616983e-01	
   6.3470000e+01	  -4.1439738e-01	   1.2859064e-01	
   6.3525000e+01	  -4.0316634e-01	   1.2103822e-01	
   6.3580000e+01	  -3.9080454e-01	   1.1356466e-01	
   6.3635000e+01	  -3.7749769e-01	   1.0623268e-01	
   6.3690000e+01	  -3.6343053e-01	   9.9112339e-02	
   6.3745000e+01	  -3.4878970e-01	   9.2276416e-02	
   6.3800000e+01	  -3.3376689e-01	   8.5795031e-02	
   6.3855000e+01	  -3.1856121e-01	   7.9730061e-02	
   6.3910000e+01	  -3.0337957e-01	   7.4130741e-02	
   6.3965000e+01	  -2.8843228e-01	   6.9032421e-02	
   6.4020000e+01	  -2.7392297e-01	   6.4459037e-02	
   6.4075000e+01	  -2.6003604e-01	   6.0427656e-02	
   6.4130000e+01	  -2.4692711e-01	   5.6952603e-02	
   6.4185000e+01	  -2.3471970e-01	   5.4047354e-02	
   6.4240000e+01	  -2.2350859e-01	   5.1723341e-02	
   6.4295000e+01	  -2.1336843e-01	   4.9985822e-02	
   6.4350000e+01	  -2.0436530e-01	   4.8828164e-02	
   6.4405000e+01	  -1.9656762e-01	   4.8226292e-02	
   6.4460000e+01	  -1.9005479e-01	   4.8134156e-02	
   6.4515000e+01	  -1.8492303e-01	   4.8480253e-02	
   6.4570000e+01	  -1.8128818e-01	   4.9165978e-02	
   6.4625000e+01	  -1.7928317e-01	   5.0067703e-02	
   6.4680000e+01	  -1.7904843e-01	   5.1043992e-02	
   6.4735000e+01	  -1.8071606e-01	   5.1947393e-02	
   6.4790000e+01	  -1.8439223e-01	   5.2638049e-02	
   6.4845000e+01	  -1.9014267e-01	   5.2995666e-02	
   6.4900000e+01	  -1.9798449e-01	   5.2927215e-02	
   6.4955000e+01	  -2.0788426e-01	   5.2369355e-02	
   6.5010000e+01	  -2.1976171e-01	   5.1286027e-02	
   6.5065000e+01	  -2.3349781e-01	   4.9662818e-02	
   6.5120000e+01	  -2.4894517e-01	   4.7499831e-02	
   6.5175000e+01	  -2.6593922e-01	   4.4804035e-02	
   6.5230000e+01	  -2.8430893e-01	   4.1581921e-02	
   6.5285000e+01	  -3.0388535e-01	   3.7834022e-02	
   6.5340000e+01	  -3.2450596e-01	   3.3553011e-02	
   6.5395000e+01	  -3.4601327e-01	   2.8725812e-02	
   6.5450000e+01	  -3.6824978e-01	   2.3338588e-02	
   6.5505000e+01	  -3.9105182e-01	   1.7382889e-02	
   6.5560000e+01	  -4.1424481e-01	   1.0861943e-02	
   6.5615000e+01	  -4.3764116e-01	   3.7965166e-03	
   6.5670000e+01	  -4.6104245e-01	  -3.7708535e-03	
   6.5725000e+01	  -4.8424661e-01	  -1.1774608e-02	
   6.5780000e+01	  -5.0705877e-01	  -2.0128309e-02	
   6.5835000e+01	  -5.2930365e-01	  -2.8729748e-02	
   6.5890000e+01	  -5.5083723e-01	  -3.7468282e-02	
   6.5945000e+01	  -5.7155478e-01	  -4.6232895e-02	
   6.6000000e+01	  -5.9139152e-01	  -5.4918870e-02	
   6.6055000e+01	  -6.1031462e-01	  -6.3431455e-02	
   6.6110000e+01	  -6.2830948e-01	  -7.1686370e-02	
   6.6165000e+01	  -6.4536605e-01	  -7.9608360e-02	
   6.6220000e+01	  -6.6146904e-01	  -8.7129474e-02	
   6.6275000e+01	  -6.7659341e-01	  -9.4188051e-02	
   6.6330000e+01	  -6.9070389e-01	  -1.0072863e-01	
   6.6385000e+01	  -7.0375784e-01	  -1.0670300e-01	
   6.6440000e+01	  -7.1571072e-01	  -1.1207258e-01	
   6.6495000e+01	  -7.2652365e-01	  -1.1681181e-01	
   6.6550000e+01	  -7.3617166e-01	  -1.2091223e-01	
   6.6605000e+01	  -7.4465080e-01	  -1.2438657e-01	
   6.6660000e+01	  -7.5198130e-01	  -1.2727151e-01	
   6.6715000e+01	  -7.5820328e-01	  -1.2962695e-01	
   6.6770000e+01	  -7.6336422e-01	  -1.3153026e-01	
   6.6825000e+01	  -7.6750193e-01	  -1.3306640e-01	
   6.6880000e+01	  -7.7062863e-01	  -1.3431653e-01	
   6.6935000e+01	  -7.7271974e-01	  -1.3534760e-01	
   6.6990000e+01	  -7.7370952e-01	  -1.3620519e-01	
   6.7045000e+01	  -7.7349504e-01	  -1.3691121e-01	
   6.7100000e+01	  -7.7194814e-01	  -1.3746610e-01	
   6.7155000e+01	  -7.6893295e-01	  -1.3785412e-01	
   6.7210000e+01	  -7.6432497e-01	  -1.3805044e-01	
   6.7265000e+01	  -7.5802908e-01	  -1.3802933e-01	
   6.7320000e+01	  -7.4999471e-01	  -1.3777228e-01	
   6.7375000e+01	  -7.4022632e-01	  -1.3727350e-01	
   6.7430000e+01	  -7.2878729e-01	  -1.3654127e-01	
   6.7485000e+01	  -7.1579611e-01	  -1.3559506e-01	
   6.7540000e+01	  -7.0141654e-01	  -1.3446014e-01	
   6.7595000e+01	  -6.8584530e-01	  -1.3316196e-01	
   6.7650000e+01	  -6.6930138e-01	  -1.3172219e-01	
   6.7705000e+01	  -6.5201942e-01	  -1.3015732e-01	
   6.7760000e+01	  -6.3424792e-01	  -1.2848010e-01	
   6.7815000e+01	  -6.1625098e-01	  -1.2670298e-01	
   6.7870000e+01	  -5.9831081e-01	  -1.2484230e-01	
   6.7925000e+01	  -5.8072884e-01	  -1.2292260e-01	
   6.7980000e+01	  -5.6382447e-01	  -1.2098090e-01	
   6.8035000e+01	  -5.4793093e-01	  -1.1906995e-01	
   6.8090000e+01	  -5.3338717e-01	  -1.1725903e-01	
   6.8145000e+01	  -5.2052460e-01	  -1.1563119e-01	
   6.8200000e+01	  -5.0964907e-01	  -1.1427695e-01	
   6.8255000e+01	  -5.0102047e-01	  -1.1328496e-01	
   6.8310000e+01	  -4.9483367e-01	  -1.1273079e-01	
   6.8365000e+01	  -4.9120433e-01	  -1.1266639e-01	
   6.8420000e+01	  -4.9016330e-01	  -1.1311318e-01	
   6.8475000e+01	  -4.9166103e-01	  -1.1406086e-01	
   6.8530000e+01	  -4.9558113e-01	  -1.1547140e-01	
   6.8585000e+01	  -5.0176031e-01	  -1.1728700e-01	
   6.8640000e+01	  -5.1001100e-01	  -1.1944034e-01	
   6.8695000e+01	  -5.2014184e-01	  -1.2186481e-01	
   6.8750000e+01	  -5.3197134e-01	  -1.2450262e-01	
   6.8805000e+01	  -5.4533300e-01	  -1.2730964e-01	
   6.8860000e+01	  -5.6007281e-01	  -1.3025669e-01	
   6.8915000e+01	  -5.7604059e-01	  -1.3332691e-01	
   6.8970000e+01	  -5.9307766e-01	  -1.3651024e-01	
   6.9025000e+01	  -6.1100482e-01	  -1.3979686e-01	
   6.9080000e+01	  -6.2961552e-01	  -1.4317187e-01	
   6.9135000e+01	  -6.4867607e-01	  -1.4661240e-01	
   6.9190000e+01	  -6.6793176e-01	  -1.5008721e-01	
   6.9245000e+01	  -6.8711694e-01	  -1.5355875e-01	
   6.9300000e+01	  -7.0596774e-01	  -1.5698733e-01	
   6.9355000e+01	  -7.2423660e-01	  -1.6033667e-01	
   6.9410000e+01	  -7.4170676e-01	  -1.6357893e-01	
   6.9465000e+01	  -7.5820426e-01	  -1.6669758e-01	
   6.9520000e+01	  -7.7360415e-01	  -1.6968726e-01	
   6.9575000e+01	  -7.8782831e-01	  -1.7255015e-01	
   6.9630000e+01	  -8.0083484e-01	  -1.7528932e-01	
   6.9685000e+01	  -8.1260237e-01	  -1.7790041e-01	
   6.9740000e+01	  -8.2311451e-01	  -1.8036487e-01	
   6.9795000e+01	  -8.3234870e-01	  -1.8264715e-01	
   6.9850000e+01	  -8.4027093e-01	  -1.8469612e-01	
   6.9905000e+01	  -8.4683630e-01	  -1.8644980e-01	
   6.9960000e+01	  -8.5199448e-01	  -1.8784266e-01	
   7.0015000e+01	  -8.5569900e-01	  -1.8881503e-01	
   7.0070000e+01	  -8.5791881e-01	  -1.8932277e-01	
   7.0125000e+01	  -8.5864970e-01	  -1.8934448e-01	
   7.0180000e+01	  -8.5792216e-01	  -1.8888447e-01	
   7.0235000e+01	  -8.5580255e-01	  -1.8797044e-01	
   7.0290000e+01	  -8.5238600e-01	  -1.8664579e-01	
   7.0345000e+01	  -8.4778271e-01	  -1.8495807e-01	
   7.0400000e+01	  -8.4210221e-01	  -1.8294728e-01	
   7.0455000e+01	  -8.3544120e-01	  -1.8063767e-01	
   7.0510000e+01	  -8.2787943e-01	  -1.7803491e-01	
   7.0565000e+01	  -8.1948386e-01	  -1.7512815e-01	
   7.0620000e+01	  -8.1031857e-01	  -1.7189551e-01	
   7.0675000e+01	  -8.0045727e-01	  -1.6831219e-01	
   7.0730000e+01	  -7.8999486e-01	  -1.6435996e-01	
   7.0785000e+01	  -7.7905557e-01	  -1.6003672e-01	
   7.0840000e+01	  -7.6779574e-01	  -1.5536406e-01	
   7.0895000e+01	  -7.5639988e-01	  -1.5039151e-01	
   7.0950000e+01	  -7.4506791e-01	  -1.4519618e-01	
   7.1005000e+01	  -7.3399332e-01	  -1.3987670e-01	
   7.1060000e+01	  -7.2333671e-01	  -1.3454228e-01	
   7.1115000e+01	  -7.1320255e-01	  -1.2929996e-01	
   7.1170000e+01	  -7.0362643e-01	  -1.2424361e-01	
   7.1225000e+01	  -6.9457569e-01	  -1.1944655e-01	
   7.1280000e+01	  -6.8596149e-01	  -1.1495789e-01	
   7.1335000e+01	  -6.7765905e-01	  -1.1080255e-01	
   7.1390000e+01	  -6.6953216e-01	  -1.0698529e-01	
   7.1445000e+01	  -6.6145825e-01	  -1.0349790e-01	
   7.1500000e+01	  -6.5334913e-01	  -1.0032698e-01	
   7.1555000e+01	  -6.4516361e-01	  -9.7460037e-02	
   7.1610000e+01	  -6.3691033e-01	  -9.4888449e-02	
   7.1665000e+01	  -6.2864089e-01	  -9.2606806e-02	
   7.1720000e+01	  -6.2043614e-01	  -9.0608722e-02	
   7.1775000e+01	  -6.1239044e-01	  -8.8880806e-02	
   7.1830000e+01	  -6.0459857e-01	  -8.7397170e-02	
   7.1885000e+01	  -5.9714732e-01	  -8.6116273e-02	
   7.1940000e+01	  -5.9011112e-01	  -8.4980788e-02	
   7.1995000e+01	  -5.8355033e-01	  -8.3920431e-02	
   7.2050000e+01	  -5.7751202e-01	  -8.2857516e-02	
   7.2105000e+01	  -5.7203400e-01	  -8.1714796e-02	
   7.2160000e+01	  -5.6715126e-01	  -8.0424333e-02	
   7.2215000e+01	  -5.6290160e-01	  -7.8935490e-02	
   7.2270000e+01	  -5.5932725e-01	  -7.7220258e-02	
   7.2325000e+01	  -5.5647061e-01	  -7.5274549e-02	
   7.2380000e+01	  -5.5436380e-01	  -7.3114580e-02	
   7.2435000e+01	  -5.5301438e-01	  -7.0768708e-02	
   7.2490000e+01	  -5.5239221e-01	  -6.8267378e-02	
   7.2545000e+01	  -5.5242307e-01	  -6.5634643e-02	
   7.2600000e+01	  -5.5299097e-01	  -6.2883125e-02	
   7.2655000e+01	  -5.5394704e-01	  -6.0012360e-02	
   7.2710000e+01	  -5.5512229e-01	  -5.7009989e-02	
   7.2765000e+01	  -5.5634193e-01	  -5.3855595e-02	
   7.2820000e+01	  -5.5744029e-01	  -5.0526719e-02	
   7.2875000e+01	  -5.5827467e-01	  -4.7006043e-02	
   7.2930000e+01	  -5.5873674e-01	  -4.3288555e-02	
   7.2985000e+01	  -5.5875980e-01	  -3.9387551e-02	
   7.3040000e+01	  -5.5831965e-01	  -3.5337893e-02	
   7.3095000e+01	  -5.5742705e-01	  -3.1194837e-02	
   7.3150000e+01	  -5.5611290e-01	  -2.7028187e-02	
   7.3205000e+01	  -5.5441047e-01	  -2.2913750e-02	
   7.3260000e+01	  -5.5234057e-01	  -1.8924670e-02	
   7.3315000e+01	  -5.4990310e-01	  -1.5124118e-02	
   7.3370000e+01	  -5.4707586e-01	  -1.1560050e-02	
   7.3425000e+01	  -5.4381952e-01	  -8.2628639e-03	
   7.3480000e+01	  -5.4008668e-01	  -5.2464202e-03	
   7.3535000e+01	  -5.3583223e-01	  -2.5116031e-03	
   7.3590000e+01	  -5.3102273e-01	  -5.1073773e-05	
   7.3645000e+01	  -5.2564405e-01	   2.1456471e-03	
   7.3700000e+01	  -5.1970629e-01	   4.0874781e-03	
   7.3755000e+01	  -5.1324373e-01	   5.7788837e-03	
   7.3810000e+01	  -5.0630850e-01	   7.2204127e-03	
   7.3865000e+01	  -4.9895928e-01	   8.4127412e-03	
   7.3920000e+01	  -4.9124899e-01	   9.3620250e-03	
   7.3975000e+01	  -4.8321523e-01	   1.0083725e-02	
   7.4030000e+01	  -4.7487470e-01	   1.0603419e-02	
   7.4085000e+01	  -4.6622205e-01	   1.0954638e-02	
   7.4140000e+01	  -4.5723319e-01	   1.1174487e-02	
   7.4195000e+01	  -4.4787316e-01	   1.1298315e-02	
   7.4250000e+01	  -4.3810715e-01	   1.1354844e-02	
   7.4305000e+01	  -4.2791223e-01	   1.1362382e-02	
   7.4360000e+01	  -4.1728804e-01	   1.1326179e-02	
   7.4415000e+01	  -4.0626461e-01	   1.1237386e-02	
   7.4470000e+01	  -3.9490432e-01	   1.1074484e-02	
   7.4525000e+01	  -3.8329583e-01	   1.0807702e-02	
   7.4580000e+01	  -3.7154019e-01	   1.0406188e-02	
   7.4635000e+01	  -3.5973318e-01	   9.8465454e-03	
   7.4690000e+01	  -3.4794886e-01	   9.1203510e-03	
   7.4745000e+01	  -3.3622830e-01	   8.2385000e-03	
   7.4800000e+01	  -3.2457571e-01	   7.2314807e-03	
   7.4855000e+01	  -3.1296315e-01	   6.1460251e-03	
   7.4910000e+01	  -3.0134237e-01	   5.0391887e-03	
   7.4965000e+01	  -2.8966165e-01	   3.9707419e-03	
   7.5020000e+01	  -2.7788431e-01	   2.9946229e-03	
   7.5075000e+01	  -2.6600544e-01	   2.1508980e-03	
   7.5130000e+01	  -2.5406247e-01	   1.4602183e-03	
   7.5185000e+01	  -2.4213696e-01	   9.2205257e-04	
   7.5240000e+01	  -2.3034692e-01	   5.1694685e-04	
   7.5295000e+01	  -2.1883168e-01	   2.1252760e-04	
   7.5350000e+01	  -2.0773268e-01	  -2.7864847e-05	
   7.5405000e+01	  -1.9717581e-01	  -2.3621870e-04	
   7.5460000e+01	  -1.8725945e-01	  -4.3316221e-04	
   7.5515000e+01	  -1.7804992e-01	  -6.2499965e-04	
   7.5570000e+01	  -1.6958277e-01	  -8.0425630e-04	
   7.5625000e+01	  -1.6186837e-01	  -9.5254578e-04	
   7.5680000e+01	  -1.5489970e-01	  -1.0448083e-03	
   7.5735000e+01	  -1.4866112e-01	  -1.0546192e-03	
   7.5790000e+01	  -1.4313674e-01	  -9.6015284e-04	
   7.5845000e+01	  -1.3831728e-01	  -7.4982211e-04	
   7.5900000e+01	  -1.3420436e-01	  -4.2661781e-04	
   7.5955000e+01	  -1.3081099e-01	  -1.0151837e-05	
   7.6010000e+01	  -1.2815705e-01	   4.6518762e-04	
   7.6065000e+01	  -1.2625933e-01	   9.5702899e-04	
   7.6120000e+01	  -1.2511825e-01	   1.4252120e-03	
   7.6175000e+01	  -1.2470554e-01	   1.8416062e-03	
   7.6230000e+01	  -1.2495747e-01	   2.1964480e-03	
   7.6285000e+01	  -1.2577549e-01	   2.5004501e-03	
   7.6340000e+01	  -1.2703319e-01	   2.7831296e-03	
   7.6395000e+01	  -1.2858795e-01	   3.0876572e-03	
   7.6450000e+01	  -1.3029582e-01	   3.4628852e-03	
   7.6505000e+01	  -1.3202768e-01	   3.9541403e-03	
   7.6560000e+01	  -1.3368417e-01	   4.5943476e-03	
   7.6615000e+01	  -1.3520759e-01	   5.3962669e-03	
   7.6670000e+01	  -1.3658937e-01	   6.3467810e-03	
   7.6725000e+01	  -1.3787070e-01	   7.4052114e-03	
   7.6780000e+01	  -1.3913391e-01	   8.5073311e-03	
   7.6835000e+01	  -1.4048537e-01	   9.5743436e-03	
   7.6890000e+01	  -1.4203456e-01	   1.0523953e-02	
   7.6945000e+01	  -1.4387455e-01	   1.1280819e-02	
   7.7000000e+01	  -1.4606722e-01	   1.1784927e-02	
   7.7055000e+01	  -1.4863459e-01	   1.1996965e-02	
   7.7110000e+01	  -1.5155706e-01	   1.1900196e-02	
   7.7165000e+01	  -1.5477815e-01	   1.1498968e-02	
   7.7220000e+01	  -1.5821400e-01	   1.0814323e-02	
   7.7275000e+01	  -1.6176483e-01	   9.8772553e-03	
   7.7330000e+01	  -1.6532643e-01	   8.7208233e-03	
   7.7385000e+01	  -1.6880055e-01	   7.3732526e-03	
   7.7440000e+01	  -1.7210230e-01	   5.8541730e-03	
   7.7495000e+01	  -1.7516160e-01	   4.1750400e-03	
   7.7550000e+01	  -1.7791745e-01	   2.3433006e-03	
   7.7605000e+01	  -1.8030702e-01	   3.6873599e-04	
   7.7660000e+01	  -1.8225360e-01	  -1.7298995e-03	
   7.7715000e+01	  -1.8365718e-01	  -3.9193992e-03	
   7.7770000e+01	  -1.8439037e-01	  -6.1486383e-03	
   7.7825000e+01	  -1.8430093e-01	  -8.3476822e-03	
   7.7880000e+01	  -1.8322030e-01	  -1.0430058e-02	
   7.7935000e+01	  -1.8097634e-01	  -1.2298821e-02	
   7.7990000e+01	  -1.7740887e-01	  -1.3856448e-02	
   7.8045000e+01	  -1.7238666e-01	  -1.5016888e-02	
   7.8100000e+01	  -1.6582197e-01	  -1.5716454e-02	
   7.8155000e+01	  -1.5767808e-01	  -1.5920231e-02	
   7.8210000e+01	  -1.4796633e-01	  -1.5622227e-02	
   7.8265000e+01	  -1.3673300e-01	  -1.4839224e-02	
   7.8320000e+01	  -1.2404009e-01	  -1.3600146e-02	
   7.8375000e+01	  -1.0994642e-01	  -1.1934205e-02	
   7.8430000e+01	  -9.4494661e-02	  -9.8609561e-03	
   7.8485000e+01	  -7.7706472e-02	  -7.3838539e-03	
   7.8540000e+01	  -5.9585112e-02	  -4.4876089e-03	
   7.8595000e+01	  -4.0123944e-02	  -1.1394222e-03	
   7.8650000e+01	  -1.9319031e-02	   2.7056959e-03	
   7.8705000e+01	   2.8160092e-03	   7.0957372e-03	
   7.8760000e+01	   2.6235124e-02	   1.2070053e-02	
   7.8815000e+01	   5.0848215e-02	   1.7647929e-02	
   7.8870000e+01	   7.6516251e-02	   2.3820143e-02	
   7.8925000e+01	   1.0305474e-01	   3.0545211e-02	
   7.8980000e+01	   1.3024495e-01	   3.7751020e-02	
   7.9035000e+01	   1.5785074e-01	   4.5341832e-02	
   7.9090000e+01	   1.8563759e-01	   5.3208985e-02	
   7.9145000e+01	   2.1338859e-01	   6.1241902e-02	
   7.9200000e+01	   2.4091298e-01	   6.9336356e-02	
   7.9255000e+01	   2.6804634e-01	   7.7399058e-02	
   7.9310000e+01	   2.9464417e-01	   8.5348851e-02	
   7.9365000e+01	   3.2057119e-01	   9.3114473e-02	
   7.9420000e+01	   3.4568864e-01	   1.0062906e-01	
   7.9475000e+01	   3.6984296e-01	   1.0782337e-01	
   7.9530000e+01	   3.9285854e-01	   1.1462050e-01	
   7.9585000e+01	   4.1453532e-01	   1.2093401e-01	
   7.9640000e+01	   4.3465108e-01	   1.2666959e-01	
   7.9695000e+01	   4.5296933e-01	   1.3173066e-01	
   7.9750000e+01	   4.6925317e-01	   1.3602771e-01	
   7.9805000e+01	   4.8328285e-01	   1.3948944e-01	
   7.9860000e+01	   4.9487296e-01	   1.4207254e-01	
   7.9915000e+01	   5.0388616e-01	   1.4376740e-01	
   7.9970000e+01	   5.1024256e-01	   1.4459944e-01	
   8.0025000e+01	   5.1392525e-01	   1.4462591e-01	
   8.0080000e+01	   5.1498071e-01	   1.4392841e-01	
   8.0135000e+01	   5.1351281e-01	   1.4260193e-01	
   8.0190000e+01	   5.0967094e-01	   1.4074248e-01	
   8.0245000e+01	   5.0363555e-01	   1.3843547e-01	
   8.0300000e+01	   4.9560492e-01	   1.3574590e-01	
   8.0355000e+01	   4.8578561e-01	   1.3271156e-01	
   8.0410000e+01	   4.7438871e-01	   1.2934096e-01	
   8.0465000e+01	   4.6163308e-01	   1.2561801e-01	
   8.0520000e+01	   4.4775337e-01	   1.2151257e-01	
   8.0575000e+01	   4.3300765e-01	   1.1699423e-01	
   8.0630000e+01	   4.1768006e-01	   1.1204579e-01	
   8.0685000e+01	   4.0207724e-01	   1.0667414e-01	
   8.0740000e+01	   3.8651862e-01	   1.0091643e-01	
   8.0795000e+01	   3.7132098e-01	   9.4840137e-02	
   8.0850000e+01	   3.5677817e-01	   8.8537270e-02	
   8.0905000e+01	   3.4313888e-01	   8.2114902e-02	
   8.0960000e+01	   3.3058641e-01	   7.5684385e-02	
   8.1015000e+01	   3.1922355e-01	   6.9350833e-02	
   8.1070000e+01	   3.0906588e-01	   6.3203994e-02	
   8.1125000e+01	   3.0004574e-01	   5.7312336e-02	
   8.1180000e+01	   2.9202745e-01	   5.1721810e-02	
   8.1235000e+01	   2.8483054e-01	   4.6458941e-02	
   8.1290000e+01	   2.7825550e-01	   4.1536305e-02	
   8.1345000e+01	   2.7210648e-01	   3.6958330e-02	
   8.1400000e+01	   2.6620789e-01	   3.2725727e-02	
   8.1455000e+01	   2.6041433e-01	   2.8837151e-02	
   8.1510000e+01	   2.5461446e-01	   2.5287633e-02	
   8.1565000e+01	   2.4872956e-01	   2.2065103e-02	
   8.1620000e+01	   2.4270797e-01	   1.9147019e-02	
   8.1675000e+01	   2.3651697e-01	   1.6498093e-02	
   8.1730000e+01	   2.3013394e-01	   1.4069136e-02	
   8.1785000e+01	   2.2353943e-01	   1.1797871e-02	
   8.1840000e+01	   2.1671544e-01	   9.6133021e-03	
   8.1895000e+01	   2.0965014e-01	   7.4440326e-03	
   8.1950000e+01	   2.0234671e-01	   5.2287759e-03	
   8.2005000e+01	   1.9483213e-01	   2.9265568e-03	
   8.2060000e+01	   1.8716279e-01	   5.2445131e-04	
   8.2115000e+01	   1.7942584e-01	  -1.9588437e-03	
   8.2170000e+01	   1.7173626e-01	  -4.4744667e-03	
   8.2225000e+01	   1.6422933e-01	  -6.9493476e-03	
   8.2280000e+01	   1.5704912e-01	  -9.2954700e-03	
   8.2335000e+01	   1.5033407e-01	  -1.1421319e-02	
   8.2390000e+01	   1.4420188e-01	  -1.3244003e-02	
   8.2445000e+01	   1.3873646e-01	  -1.4699754e-02	
   8.2500000e+01	   1.3397987e-01	  -1.5750340e-02	
   8.2555000e+01	   1.2993254e-01	  -1.6383953e-02	
   8.2610000e+01	   1.2656267e-01	  -1.6611022e-02	
   8.2665000e+01	   1.2382183e-01	  -1.6456939e-02	
   8.2720000e+01	   1.2166213e-01	  -1.5953536e-02	
   8.2775000e+01	   1.2005100e-01	  -1.5130559e-02	
   8.2830000e+01	   1.1898026e-01	  -1.4008856e-02	
   8.2885000e+01	   1.1846701e-01	  -1.2597178e-02	
   8.2940000e+01	   1.1854703e-01	  -1.0893229e-02	
   8.2995000e+01	   1.1926308e-01	  -8.8881862e-03	
   8.3050000e+01	   1.2065109e-01	  -6.5738859e-03	
   8.3105000e+01	   1.2272645e-01	  -3.9517590e-03	
   8.3160000e+01	   1.2547293e-01	  -1.0417661e-03	
   8.3215000e+01	   1.2883602e-01	   2.1111282e-03	
   8.3270000e+01	   1.3272225e-01	   5.4349685e-03	
   8.3325000e+01	   1.3700540e-01	   8.8340399e-03	
   8.3380000e+01	   1.4153884e-01	   1.2196565e-02	
   8.3435000e+01	   1.4617036e-01	   1.5405054e-02	
   8.3490000e+01	   1.5075559e-01	   1.8346967e-02	
   8.3545000e+01	   1.5516744e-01	   2.0923334e-02	
   8.3600000e+01	   1.5930019e-01	   2.3053597e-02	
   8.3655000e+01	   1.6306828e-01	   2.4676402e-02	
   8.3710000e+01	   1.6640141e-01	   2.5747327e-02	
   8.3765000e+01	   1.6923784e-01	   2.6234727e-02	
   8.3820000e+01	   1.7151727e-01	   2.6114496e-02	
   8.3875000e+01	   1.7317387e-01	   2.5364550e-02	
   8.3930000e+01	   1.7413162e-01	   2.3960627e-02	
   8.3985000e+01	   1.7430443e-01	   2.1875201e-02	
   8.4040000e+01	   1.7360168e-01	   1.9080279e-02	
   8.4095000e+01	   1.7193753e-01	   1.5553860e-02	
   8.4150000e+01	   1.6924165e-01	   1.1289284e-02	
   8.4205000e+01	   1.6546950e-01	   6.3055381e-03	
   8.4260000e+01	   1.6060933e-01	   6.5503950e-04	
   8.4315000e+01	   1.5468403e-01	  -5.5742714e-03	
   8.4370000e+01	   1.4774782e-01	  -1.2263376e-02	
   8.4425000e+01	   1.3987905e-01	  -1.9271883e-02	
   8.4480000e+01	   1.3117068e-01	  -2.6450592e-02	
   8.4535000e+01	   1.2172037e-01	  -3.3654166e-02	
   8.4590000e+01	   1.1162139e-01	  -4.0751631e-02	
   8.4645000e+01	   1.0095601e-01	  -4.7633647e-02	
   8.4700000e+01	   8.9792500e-02	  -5.4216348e-02	
   8.4755000e+01	   7.8186544e-02	  -6.0441366e-02	
   8.4810000e+01	   6.6186849e-02	  -6.6271796e-02	
   8.4865000e+01	   5.3843220e-02	  -7.1685362e-02	
   8.4920000e+01	   4.1214147e-02	  -7.6667411e-02	
   8.4975000e+01	   2.8371332e-02	  -8.1205915e-02	
   8.5030000e+01	   1.5399735e-02	  -8.5289009e-02	
   8.5085000e+01	   2.3934827e-03	  -8.8904754e-02	
   8.5140000e+01	  -1.0551209e-02	  -9.2042775e-02	
   8.5195000e+01	  -2.3345257e-02	  -9.4697610e-02	
   8.5250000e+01	  -3.5917100e-02	  -9.6873270e-02	
   8.5305000e+01	  -4.8221843e-02	  -9.8588171e-02	
   8.5360000e+01	  -6.0246049e-02	  -9.9879050e-02	
   8.5415000e+01	  -7.2006005e-02	  -1.0080179e-01	
   8.5470000e+01	  -8.3538800e-02	  -1.0142712e-01	
   8.5525000e+01	  -9.4887835e-02	  -1.0183117e-01	
   8.5580000e+01	  -1.0608722e-01	  -1.0208398e-01	
   8.5635000e+01	  -1.1714985e-01	  -1.0223991e-01	
   8.5690000e+01	  -1.2806083e-01	  -1.0233187e-01	
   8.5745000e+01	  -1.3877515e-01	  -1.0236950e-01	
   8.5800000e+01	  -1.4921839e-01	  -1.0234006e-01	
   8.5855000e+01	  -1.5929058e-01	  -1.0221202e-01	
   8.5910000e+01	  -1.6887315e-01	  -1.0194092e-01	
   8.5965000e+01	  -1.7783780e-01	  -1.0147697e-01	
   8.6020000e+01	  -1.8605572e-01	  -1.0077301e-01	
   8.6075000e+01	  -1.9340497e-01	  -9.9791129e-02	
   8.6130000e+01	  -1.9977375e-01	  -9.8506005e-02	
   8.6185000e+01	  -2.0505882e-01	  -9.6903392e-02	
   8.6240000e+01	  -2.0916085e-01	  -9.4974347e-02	
   8.6295000e+01	  -2.1197988e-01	  -9.2708110e-02	
   8.6350000e+01	  -2.1341403e-01	  -9.0087309e-02	
   8.6405000e+01	  -2.1336333e-01	  -8.7087379e-02	
   8.6460000e+01	  -2.1173856e-01	  -8.3679890e-02	
   8.6515000e+01	  -2.0847344e-01	  -7.9838591e-02	
   8.6570000e+01	  -2.0353852e-01	  -7.5547087e-02	
   8.6625000e+01	  -1.9695462e-01	  -7.0806774e-02	
   8.6680000e+01	  -1.8880290e-01	  -6.5643011e-02	
   8.6735000e+01	  -1.7922843e-01	  -6.0107861e-02	
   8.6790000e+01	  -1.6843537e-01	  -5.4278558e-02	
   8.6845000e+01	  -1.5667378e-01	  -4.8251471e-02	
   8.6900000e+01	  -1.4421976e-01	  -4.2132318e-02	
   8.6955000e+01	  -1.3135301e-01	  -3.6025010e-02	
   8.7010000e+01	  -1.1833656e-01	  -3.0022281e-02	
   8.7065000e+01	  -1.0540227e-01	  -2.4200093e-02	
   8.7120000e+01	  -9.2743015e-02	  -1.8615764e-02	
   8.7175000e+01	  -8.0511322e-02	  -1.3308909e-02	
   8.7230000e+01	  -6.8823333e-02	  -8.3046906e-03	
   8.7285000e+01	  -5.7766625e-02	  -3.6188635e-03	
   8.7340000e+01	  -4.7409704e-02	   7.3652241e-04	
   8.7395000e+01	  -3.7811438e-02	   4.7480068e-03	
   8.7450000e+01	  -2.9028750e-02	   8.3969146e-03	
   8.7505000e+01	  -2.1120066e-02	   1.1657795e-02	
   8.7560000e+01	  -1.4142260e-02	   1.4500674e-02	
   8.7615000e+01	  -8.1415433e-03	   1.6897803e-02	
   8.7670000e+01	  -3.1422770e-03	   1.8832890e-02	
   8.7725000e+01	   8.6119115e-04	   2.0308998e-02	
   8.7780000e+01	   3.9068807e-03	   2.1352528e-02	
   8.7835000e+01	   6.0623427e-03	   2.2013118e-02	
   8.7890000e+01	   7.4183956e-03	   2.2360158e-02	
   8.7945000e+01	   8.0802163e-03	   2.2476308e-02	
   8.8000000e+01	   8.1562029e-03	   2.2448613e-02	
   8.8055000e+01	   7.7463006e-03	   2.2358593e-02	
   8.8110000e+01	   6.9320737e-03	   2.2272797e-02	
   8.8165000e+01	   5.7694563e-03	   2.2234758e-02	
   8.8220000e+01	   4.2844844e-03	   2.2259655e-02	
   8.8275000e+01	   2.4738605e-03	   2.2333718e-02	
   8.8330000e+01	   3.1243143e-04	   2.2419668e-02	
   8.8385000e+01	  -2.2338856e-03	   2.2466852e-02	
   8.8440000e+01	  -5.1945593e-03	   2.2422688e-02	
   8.8495000e+01	  -8.5840353e-03	   2.2242525e-02	
   8.8550000e+01	  -1.2395147e-02	   2.1896747e-02	
   8.8605000e+01	  -1.6596230e-02	   2.1374757e-02	
   8.8660000e+01	  -2.1132690e-02	   2.0685424e-02	
   8.8715000e+01	  -2.5933482e-02	   1.9853729e-02	
   8.8770000e+01	  -3.0921590e-02	   1.8914158e-02	
   8.8825000e+01	  -3.6026613e-02	   1.7902113e-02	
   8.8880000e+01	  -4.1197578e-02	   1.6844843e-02	
   8.8935000e+01	  -4.6413463e-02	   1.5753771e-02	
   8.8990000e+01	  -5.1687794e-02	   1.4620616e-02	
   8.9045000e+01	  -5.7064366e-02	   1.3419047e-02	
   8.9100000e+01	  -6.2604846e-02	   1.2111201e-02	
   8.9155000e+01	  -6.8372793e-02	   1.0656477e-02	
   8.9210000e+01	  -7.4419036e-02	   9.0202184e-03	
   8.9265000e+01	  -8.0771022e-02	   7.1809532e-03	
   8.9320000e+01	  -8.7426816e-02	   5.1349729e-03	
   8.9375000e+01	  -9.4354144e-02	   2.8969993e-03	
   8.9430000e+01	  -1.0149461e-01	   4.9672021e-04	
   8.9485000e+01	  -1.0877188e-01	  -2.0277940e-03	
   8.9540000e+01	  -1.1610173e-01	  -4.6382585e-03	
   8.9595000e+01	  -1.2340142e-01	  -7.3040585e-03	
   8.9650000e+01	  -1.3059637e-01	  -1.0007569e-02	
   8.9705000e+01	  -1.3762183e-01	  -1.2744937e-02	
   8.9760000e+01	  -1.4441877e-01	  -1.5521907e-02	
   8.9815000e+01	  -1.5092589e-01	  -1.8346248e-02	
   8.9870000e+01	  -1.5707106e-01	  -2.1219170e-02	
   8.9925000e+01	  -1.6276547e-01	  -2.4127825e-02	
   8.9980000e+01	  -1.6790180e-01	  -2.7040666e-02	
   9.0035000e+01	  -1.7235682e-01	  -2.9907253e-02	
   9.0090000e+01	  -1.7599861e-01	  -3.2662769e-02	
   9.0145000e+01	  -1.7869805e-01	  -3.5235984e-02	
   9.0200000e+01	  -1.8034286e-01	  -3.7558983e-02	
   9.0255000e+01	  -1.8085151e-01	  -3.9577369e-02	
   9.0310000e+01	  -1.8018509e-01	  -4.1259529e-02	
   9.0365000e+01	  -1.7835519e-01	  -4.2603007e-02	
   9.0420000e+01	  -1.7542519e-01	  -4.3635758e-02	
   9.0475000e+01	  -1.7150283e-01	  -4.4411329e-02	
   9.0530000e+01	  -1.6672559e-01	  -4.4999370e-02	
   9.0585000e+01	  -1.6124292e-01	  -4.5474207e-02	
   9.0640000e+01	  -1.5519989e-01	  -4.5903813e-02	
   9.0695000e+01	  -1.4872526e-01	  -4.6340971e-02	
   9.0750000e+01	  -1.4192603e-01	  -4.6818176e-02	
   9.0805000e+01	  -1.3488876e-01	  -4.7347043e-02	
   9.0860000e+01	  -1.2768669e-01	  -4.7921855e-02	
   9.0915000e+01	  -1.2039097e-01	  -4.8526497e-02	
   9.0970000e+01	  -1.1308402e-01	  -4.9143620e-02	
   9.1025000e+01	  -1.0587184e-01	  -4.9763935e-02	
   9.1080000e+01	  -9.8891757e-02	  -5.0393066e-02	
   9.1135000e+01	  -9.2312429e-02	  -5.1053918e-02	
   9.1190000e+01	  -8.6324342e-02	  -5.1783583e-02	
   9.1245000e+01	  -8.1121898e-02	  -5.2625219e-02	
   9.1300000e+01	  -7.6881382e-02	  -5.3616996e-02	
   9.1355000e+01	  -7.3740854e-02	  -5.4781412e-02	
   9.1410000e+01	  -7.1786892e-02	  -5.6118056e-02	
   9.1465000e+01	  -7.1050129e-02	  -5.7601457e-02	
   9.1520000e+01	  -7.1508521e-02	  -5.9183843e-02	
   9.1575000e+01	  -7.3095949e-02	  -6.0801674e-02	
   9.1630000e+01	  -7.5714216e-02	  -6.2384910e-02	
   9.1685000e+01	  -7.9247331e-02	  -6.3867835e-02	
   9.1740000e+01	  -8.3576472e-02	  -6.5199361e-02	
   9.1795000e+01	  -8.8592689e-02	  -6.6350447e-02	
   9.1850000e+01	  -9.4204472e-02	  -6.7317737e-02	
   9.1905000e+01	  -1.0033911e-01	  -6.8123680e-02	
   9.1960000e+01	  -1.0693820e-01	  -6.8813074e-02	
   9.2015000e+01	  -1.1394810e-01	  -6.9445599e-02	
   9.2070000e+01	  -1.2130762e-01	  -7.0085222e-02	
   9.2125000e+01	  -1.2893692e-01	  -7.0789271e-02	
   9.2180000e+01	  -1.3673167e-01	  -7.1599986e-02	
   9.2235000e+01	  -1.4456409e-01	  -7.2539690e-02	
   9.2290000e+01	  -1.5229004e-01	  -7.3609522e-02	
   9.2345000e+01	  -1.5976130e-01	  -7.4791830e-02	
   9.2400000e+01	  -1.6684123e-01	  -7.6056469e-02	
   9.2455000e+01	  -1.7342118e-01	  -7.7370021e-02	
   9.2510000e+01	  -1.7943406e-01	  -7.8705479e-02	
   9.2565000e+01	  -1.8486156e-01	  -8.0049889e-02	
   9.2620000e+01	  -1.8973282e-01	  -8.1408389e-02	
   9.2675000e+01	  -1.9411439e-01	  -8.2803673e-02	
   9.2730000e+01	  -1.9809280e-01	  -8.4270467e-02	
   9.2785000e+01	  -2.0175366e-01	  -8.5846389e-02	
   9.2840000e+01	  -2.0516290e-01	  -8.7562367e-02	
   9.2895000e+01	  -2.0835441e-01	  -8.9435718e-02	
   9.2950000e+01	  -2.1132589e-01	  -9.1466991e-02	
   9.3005000e+01	  -2.1404161e-01	  -9.3640058e-02	
   9.3060000e+01	  -2.1644071e-01	  -9.5924579e-02	
   9.3115000e+01	  -2.1844888e-01	  -9.8280279e-02	
   9.3170000e+01	  -2.1999099e-01	  -1.0066225e-01	
   9.3225000e+01	  -2.2100204e-01	  -1.0302627e-01	
   9.3280000e+01	  -2.2143475e-01	  -1.0533299e-01	
   9.3335000e+01	  -2.2126246e-01	  -1.0755007e-01	
   9.3390000e+01	  -2.2047659e-01	  -1.0965053e-01	
   9.3445000e+01	  -2.1907903e-01	  -1.1160755e-01	
   9.3500000e+01	  -2.1707217e-01	  -1.1338724e-01	
   9.3555000e+01	  -2.1444993e-01	  -1.1494224e-01	
   9.3610000e+01	  -2.1119195e-01	  -1.1620788e-01	
   9.3665000e+01	  -2.0726175e-01	  -1.1710156e-01	
   9.3720000e+01	  -2.0260989e-01	  -1.1752627e-01	
   9.3775000e+01	  -1.9718252e-01	  -1.1737828e-01	
   9.3830000e+01	  -1.9093341e-01	  -1.1655772e-01	
   9.3885000e+01	  -1.8383624e-01	  -1.1497951e-01	
   9.3940000e+01	  -1.7589440e-01	  -1.1258276e-01	
   9.3995000e+01	  -1.6714590e-01	  -1.0933701e-01	
   9.4050000e+01	  -1.5766134e-01	  -1.0524380e-01	
   9.4105000e+01	  -1.4753347e-01	  -1.0033261e-01	
   9.4160000e+01	  -1.3686096e-01	  -9.4652067e-02	
   9.4215000e+01	  -1.2573177e-01	  -8.8260181e-02	
   9.4270000e+01	  -1.1421208e-01	  -8.1217096e-02	
   9.4325000e+01	  -1.0234319e-01	  -7.3581973e-02	
   9.4380000e+01	  -9.0145002e-02	  -6.5413582e-02	
   9.4435000e+01	  -7.7623241e-02	  -5.6773142e-02	
   9.4490000e+01	  -6.4778498e-02	  -4.7727915e-02	
   9.4545000e+01	  -5.1615731e-02	  -3.8354474e-02	
   9.4600000e+01	  -3.8153114e-02	  -2.8741083e-02	
   9.4655000e+01	  -2.4428305e-02	  -1.8988711e-02	
   9.4710000e+01	  -1.0499816e-02	  -9.2097893e-03	
   9.4765000e+01	   3.5581231e-03	   4.7629331e-04	
   9.4820000e+01	   1.7666328e-02	   9.9507257e-03	
   9.4875000e+01	   3.1753515e-02	   1.9103802e-02	
   9.4930000e+01	   4.5766693e-02	   2.7841700e-02	
   9.4985000e+01	   5.9675740e-02	   3.6089879e-02	
   9.5040000e+01	   7.3471202e-02	   4.3793075e-02	
   9.5095000e+01	   8.7155979e-02	   5.0912484e-02	
   9.5150000e+01	   1.0073211e-01	   5.7420332e-02	
   9.5205000e+01	   1.1418484e-01	   6.3292316e-02	
   9.5260000e+01	   1.2746768e-01	   6.8499609e-02	
   9.5315000e+01	   1.4049276e-01	   7.3002585e-02	
   9.5370000e+01	   1.5312872e-01	   7.6747627e-02	
   9.5425000e+01	   1.6520689e-01	   7.9667864e-02	
   9.5480000e+01	   1.7653544e-01	   8.1688826e-02	
   9.5535000e+01	   1.8691958e-01	   8.2738743e-02	
   9.5590000e+01	   1.9618308e-01	   8.2760887e-02	
   9.5645000e+01	   2.0418569e-01	   8.1724420e-02	
   9.5700000e+01	   2.1083413e-01	   7.9631592e-02	
   9.5755000e+01	   2.1608666e-01	   7.6520667e-02	
   9.5810000e+01	   2.1995166e-01	   7.2464422e-02	
   9.5865000e+01	   2.2247987e-01	   6.7564249e-02	
   9.5920000e+01	   2.2375137e-01	   6.1940780e-02	
   9.5975000e+01	   2.2385959e-01	   5.5722891e-02	
   9.6030000e+01	   2.2289581e-01	   4.9036966e-02	
   9.6085000e+01	   2.2093700e-01	   4.1998151e-02	
   9.6140000e+01	   2.1804003e-01	   3.4705464e-02	
   9.6195000e+01	   2.1424357e-01	   2.7242034e-02	
   9.6250000e+01	   2.0957659e-01	   1.9679789e-02	
   9.6305000e+01	   2.0406941e-01	   1.2085851e-02	
   9.6360000e+01	   1.9776324e-01	   4.5277589e-03	
   9.6415000e+01	   1.9071595e-01	  -2.9236526e-03	
   9.6470000e+01	   1.8300445e-01	  -1.0193413e-02	
   9.6525000e+01	   1.7472391e-01	  -1.7203261e-02	
   9.6580000e+01	   1.6598382e-01	  -2.3874296e-02	
   9.6635000e+01	   1.5690061e-01	  -3.0131494e-02	
   9.6690000e+01	   1.4758781e-01	  -3.5909917e-02	
   9.6745000e+01	   1.3814519e-01	  -4.1162121e-02	
   9.6800000e+01	   1.2864882e-01	  -4.5865533e-02	
   9.6855000e+01	   1.1914538e-01	  -5.0027106e-02	
   9.6910000e+01	   1.0965377e-01	  -5.3682540e-02	
   9.6965000e+01	   1.0017450e-01	  -5.6889685e-02	
   9.7020000e+01	   9.0703204e-02	  -5.9718818e-02	
   9.7075000e+01	   8.1243653e-02	  -6.2243377e-02	
   9.7130000e+01	   7.1817244e-02	  -6.4533396e-02	
   9.7185000e+01	   6.2467240e-02	  -6.6652149e-02	
   9.7240000e+01	   5.3257302e-02	  -6.8655337e-02	
   9.7295000e+01	   4.4264977e-02	  -7.0591626e-02	
   9.7350000e+01	   3.5572017e-02	  -7.2503543e-02	
   9.7405000e+01	   2.7253723e-02	  -7.4428642e-02	
   9.7460000e+01	   1.9369032e-02	  -7.6401330e-02	
   9.7515000e+01	   1.1952827e-02	  -7.8454910e-02	
   9.7570000e+01	   5.0125070e-03	  -8.0622142e-02	
   9.7625000e+01	  -1.4692004e-03	  -8.2932711e-02	
   9.7680000e+01	  -7.5256670e-03	  -8.5407947e-02	
   9.7735000e+01	  -1.3195601e-02	  -8.8055234e-02	
   9.7790000e+01	  -1.8514197e-02	  -9.0864539e-02	
   9.7845000e+01	  -2.3508240e-02	  -9.3808039e-02	
   9.7900000e+01	  -2.8195484e-02	  -9.6842645e-02	
   9.7955000e+01	  -3.2587947e-02	  -9.9915055e-02	
   9.8010000e+01	  -3.6697943e-02	  -1.0296862e-01	
   9.8065000e+01	  -4.0544856e-02	  -1.0595076e-01	
   9.8120000e+01	  -4.4160962e-02	  -1.0881975e-01	
   9.8175000e+01	  -4.7594984e-02	  -1.1154959e-01	
   9.8230000e+01	  -5.0911484e-02	  -1.1413161e-01	
   9.8285000e+01	  -5.4184031e-02	  -1.1657138e-01	
   9.8340000e+01	  -5.7482679e-02	  -1.1888170e-01	
   9.8395000e+01	  -6.0859758e-02	  -1.2107453e-01	
   9.8450000e+01	  -6.4338367e-02	  -1.2315421e-01	
   9.8505000e+01	  -6.7905616e-02	  -1.2511320e-01	
   9.8560000e+01	  -7.1511103e-02	  -1.2693097e-01	
   9.8615000e+01	  -7.5071109e-02	  -1.2857640e-01	
   9.8670000e+01	  -7.8478723e-02	  -1.3001314e-01	
   9.8725000e+01	  -8.1618679e-02	  -1.3120711e-01	
   9.8780000e+01	  -8.4384007e-02	  -1.3213460e-01	
   9.8835000e+01	  -8.6691382e-02	  -1.3278983e-01	
   9.8890000e+01	  -8.8492650e-02	  -1.3318992e-01	
   9.8945000e+01	  -8.9779921e-02	  -1.3337540e-01	
   9.9000000e+01	  -9.0582018e-02	  -1.3340538e-01	
   9.9055000e+01	  -9.0953431e-02	  -1.3334891e-01	
   9.9110000e+01	  -9.0960558e-02	  -1.3327605e-01	
   9.9165000e+01	  -9.0669763e-02	  -1.3325149e-01	
   9.9220000e+01	  -9.0139124e-02	  -1.3333102e-01	
   9.9275000e+01	  -8.9414455e-02	  -1.3356057e-01	
   9.9330000e+01	  -8.8530132e-02	  -1.3397691e-01	
   9.9385000e+01	  -8.7514467e-02	  -1.3460973e-01	
   9.9440000e+01	  -8.6398236e-02	  -1.3548436e-01	
   9.9495000e+01	  -8.5224667e-02	  -1.3662516e-01	
   9.9550000e+01	  -8.4058722e-02	  -1.3805919e-01	
   9.9605000e+01	  -8.2992154e-02	  -1.3981901e-01	
   9.9660000e+01	  -8.2140658e-02	  -1.4194166e-01	
   9.9715000e+01	  -8.1632574e-02	  -1.4446256e-01	
   9.9770000e+01	  -8.1593198e-02	  -1.4740652e-01	
   9.9825000e+01	  -8.2130228e-02	  -1.5078040e-01	
   9.9880000e+01	  -8.3323451e-02	  -1.5456948e-01	
   9.9935000e+01	  -8.5219320e-02	  -1.5873717e-01	
   9.9990000e+01	  -8.7830235e-02	  -1.6322724e-01	
   1.0004500e+02	  -9.1138094e-02	  -1.6796850e-01	
   1.0010000e+02	  -9.5101483e-02	  -1.7288146e-01	
   1.0015500e+02	  -9.9665751e-02	  -1.7788584e-01	
   1.0021000e+02	  -1.0477454e-01	  -1.8290838e-01	
   1.0026500e+02	  -1.1038052e-01	  -1.8789013e-01	
   1.0032000e+02	  -1.1645287e-01	  -1.9279232e-01	
   1.0037500e+02	  -1.2297901e-01	  -1.9759847e-01	
   1.0043000e+02	  -1.2995968e-01	  -2.0231132e-01	
   1.0048500e+02	  -1.3739904e-01	  -2.0694512e-01	
   1.0054000e+02	  -1.4529383e-01	  -2.1151597e-01	
   1.0059500e+02	  -1.5362497e-01	  -2.1603314e-01	
   1.0065000e+02	  -1.6235355e-01	  -2.2049341e-01	
   1.0070500e+02	  -1.7142129e-01	  -2.2487943e-01	
   1.0076000e+02	  -1.8075395e-01	  -2.2916159e-01	
   1.0081500e+02	  -1.9026572e-01	  -2.3330259e-01	
   1.0087000e+02	  -1.9986332e-01	  -2.3726307e-01	
   1.0092500e+02	  -2.0944992e-01	  -2.4100696e-01	
   1.0098000e+02	  -2.1892772e-01	  -2.4450501e-01	
   1.0103500e+02	  -2.2819659e-01	  -2.4773473e-01	
   1.0109000e+02	  -2.3714754e-01	  -2.5067603e-01	
   1.0114500e+02	  -2.4565328e-01	  -2.5330412e-01	
   1.0120000e+02	  -2.5355960e-01	  -2.5558238e-01	
   1.0125500e+02	  -2.6068126e-01	  -2.5745770e-01	
   1.0131000e+02	  -2.6680382e-01	  -2.5885913e-01	
   1.0136500e+02	  -2.7169170e-01	  -2.5970041e-01	
   1.0142000e+02	  -2.7510160e-01	  -2.5988676e-01	
   1.0147500e+02	  -2.7679910e-01	  -2.5932485e-01	
   1.0153000e+02	  -2.7657530e-01	  -2.5793367e-01	
   1.0158500e+02	  -2.7426012e-01	  -2.5565353e-01	
   1.0164000e+02	  -2.6973078e-01	  -2.5245162e-01	
   1.0169500e+02	  -2.6291439e-01	  -2.4832298e-01	
   1.0175000e+02	  -2.5378471e-01	  -2.4328719e-01	
   1.0180500e+02	  -2.4235486e-01	  -2.3738228e-01	
   1.0186000e+02	  -2.2866935e-01	  -2.3065840e-01	
   1.0191500e+02	  -2.1279898e-01	  -2.2317312e-01	
   1.0197000e+02	  -1.9484029e-01	  -2.1498901e-01	
   1.0202500e+02	  -1.7491949e-01	  -2.0617345e-01	
   1.0208000e+02	  -1.5319980e-01	  -1.9680053e-01	
   1.0213500e+02	  -1.2988991e-01	  -1.8695482e-01	
   1.0219000e+02	  -1.0525031e-01	  -1.7673611e-01	
   1.0224500e+02	  -7.9594251e-02	  -1.6626333e-01	
   1.0230000e+02	  -5.3281214e-02	  -1.5567577e-01	
   1.0235500e+02	  -2.6703136e-02	  -1.4513034e-01	
   1.0241000e+02	  -2.6430901e-04	  -1.3479446e-01	
   1.0246500e+02	   2.5642014e-02	  -1.2483526e-01	
   1.0252000e+02	   5.0655134e-02	  -1.1540735e-01	
   1.0257500e+02	   7.4462274e-02	  -1.0664187e-01	
   1.0263000e+02	   9.6806857e-02	  -9.8638892e-02	
   1.0268500e+02	   1.1749050e-01	  -9.1463853e-02	
   1.0274000e+02	   1.3636961e-01	  -8.5147947e-02	
   1.0279500e+02	   1.5334807e-01	  -7.9692110e-02	
   1.0285000e+02	   1.6836832e-01	  -7.5073529e-02	
   1.0290500e+02	   1.8140255e-01	  -7.1252874e-02	
   1.0296000e+02	   1.9244606e-01	  -6.8180083e-02	
   1.0301500e+02	   2.0151493e-01	  -6.5797068e-02	
   1.0307000e+02	   2.0864902e-01	  -6.4036933e-02	
   1.0312500e+02	   2.1391834e-01	  -6.2820905e-02	
   1.0318000e+02	   2.1742878e-01	  -6.2055244e-02	
   1.0323500e+02	   2.1932330e-01	  -6.1630398e-02	
   1.0329000e+02	   2.1977644e-01	  -6.1423568e-02	
   1.0334500e+02	   2.1898357e-01	  -6.1304008e-02	
   1.0340000e+02	   2.1714815e-01	  -6.1139492e-02	
   1.0345500e+02	   2.1446941e-01	  -6.0803522e-02	
   1.0351000e+02	   2.1113099e-01	  -6.0183810e-02	
   1.0356500e+02	   2.0729181e-01	  -5.9191273e-02	
   1.0362000e+02	   2.0308128e-01	  -5.7767186e-02	
   1.0367500e+02	   1.9860104e-01	  -5.5886469e-02	
   1.0373000e+02	   1.9393316e-01	  -5.3556301e-02	
   1.0378500e+02	   1.8915294e-01	  -5.0810399e-02	
   1.0384000e+02	   1.8434196e-01	  -4.7700608e-02	
   1.0389500e+02	   1.7959779e-01	  -4.4288063e-02	
   1.0395000e+02	   1.7503820e-01	  -4.0635811e-02	
   1.0400500e+02	   1.7079901e-01	  -3.6804031e-02	
   1.0406000e+02	   1.6702610e-01	  -3.2848131e-02	
   1.0411500e+02	   1.6386361e-01	  -2.8819285e-02	
   1.0417000e+02	   1.6144094e-01	  -2.4767032e-02	
   1.0422500e+02	   1.5986012e-01	  -2.0743470e-02	
   1.0428000e+02	   1.5918507e-01	  -1.6807238e-02	
   1.0433500e+02	   1.5943569e-01	  -1.3024439e-02	
   1.0439000e+02	   1.6058957e-01	  -9.4647968e-03	
   1.0444500e+02	   1.6259146e-01	  -6.1938381e-03	
   1.0450000e+02	   1.6536704e-01	  -3.2636182e-03	
   1.0455500e+02	   1.6883625e-01	  -7.0468247e-04	
   1.0461000e+02	   1.7292242e-01	   1.4788624e-03	
   1.0466500e+02	   1.7755580e-01	   3.3101705e-03	
   1.0472000e+02	   1.8267272e-01	   4.8363965e-03	
   1.0477500e+02	   1.8821338e-01	   6.1224564e-03	
   1.0483000e+02	   1.9411984e-01	   7.2432990e-03	
   1.0488500e+02	   2.0033478e-01	   8.2758885e-03	
   1.0494000e+02	   2.0680204e-01	   9.2921712e-03	
   1.0499500e+02	   2.1347083e-01	   1.0354814e-02	
   1.0505000e+02	   2.2030465e-01	   1.1517162e-02	
   1.0510500e+02	   2.2729282e-01	   1.2827096e-02	
   1.0516000e+02	   2.3445998e-01	   1.4332534e-02	
   1.0521500e+02	   2.4186907e-01	   1.6085750e-02	
   1.0527000e+02	   2.4961575e-01	   1.8144476e-02	
   1.0532500e+02	   2.5781501e-01	   2.0568864e-02	
   1.0538000e+02	   2.6658295e-01	   2.3414618e-02	
   1.0543500e+02	   2.7601835e-01	   2.6724089e-02	
   1.0549000e+02	   2.8618781e-01	   3.0517861e-02	
   1.0554500e+02	   2.9711623e-01	   3.4788438e-02	
   1.0560000e+02	   3.0878364e-01	   3.9496668e-02	
   1.0565500e+02	   3.2112958e-01	   4.4572170e-02	
   1.0571000e+02	   3.3406519e-01	   4.9919230e-02	
   1.0576500e+02	   3.4748988e-01	   5.5427426e-02	
   1.0582000e+02	   3.6130609e-01	   6.0983476e-02	
   1.0587500e+02	   3.7542773e-01	   6.6480802e-02	
   1.0593000e+02	   3.8978233e-01	   7.1825507e-02	
   1.0598500e+02	   4.0430834e-01	   7.6939168e-02	
   1.0604000e+02	   4.1894846e-01	   8.1758926e-02	
   1.0609500e+02	   4.3363991e-01	   8.6235238e-02	
   1.0615000e+02	   4.4830446e-01	   9.0328091e-02	
   1.0620500e+02	   4.6284120e-01	   9.4002721e-02	
   1.0626000e+02	   4.7712367e-01	   9.7225507e-02	
   1.0631500e+02	   4.9100221e-01	   9.9961099e-02	
   1.0637000e+02	   5.0431322e-01	   1.0217290e-01	
   1.0642500e+02	   5.1689563e-01	   1.0382845e-01	
   1.0648000e+02	   5.2861060e-01	   1.0490838e-01	
   1.0653500e+02	   5.3935837e-01	   1.0541534e-01	
   1.0659000e+02	   5.4908796e-01	   1.0537970e-01	
   1.0664500e+02	   5.5779872e-01	   1.0486056e-01	
   1.0670000e+02	   5.6553478e-01	   1.0394222e-01	
   1.0675500e+02	   5.7237456e-01	   1.0272659e-01	
   1.0681000e+02	   5.7841756e-01	   1.0132322e-01	
   1.0686500e+02	   5.8377038e-01	   9.9838551e-02	
   1.0692000e+02	   5.8853234e-01	   9.8365690e-02	
   1.0697500e+02	   5.9278265e-01	   9.6975620e-02	
   1.0703000e+02	   5.9657140e-01	   9.5710957e-02	
   1.0708500e+02	   5.9991770e-01	   9.4584563e-02	
   1.0714000e+02	   6.0281568e-01	   9.3584352e-02	
   1.0719500e+02	   6.0524582e-01	   9.2682918e-02	
   1.0725000e+02	   6.0718686e-01	   9.1848566e-02	
   1.0730500e+02	   6.0862466e-01	   9.1054538e-02	
   1.0736000e+02	   6.0955705e-01	   9.0284657e-02	
   1.0741500e+02	   6.0999412e-01	   8.9534639e-02	
   1.0747000e+02	   6.0995408e-01	   8.8809219e-02	
   1.0752500e+02	   6.0945529e-01	   8.8116096e-02	
   1.0758000e+02	   6.0850568e-01	   8.7458257e-02	
   1.0763500e+02	   6.0709162e-01	   8.6826326e-02	
   1.0769000e+02	   6.0516891e-01	   8.6192590e-02	
   1.0774500e+02	   6.0265862e-01	   8.5508324e-02	
   1.0780000e+02	   5.9944987e-01	   8.4705586e-02	
   1.0785500e+02	   5.9540955e-01	   8.3703807e-02	
   1.0791000e+02	   5.9039719e-01	   8.2419936e-02	
   1.0796500e+02	   5.8428223e-01	   8.0779554e-02	
   1.0802000e+02	   5.7696001e-01	   7.8726513e-02	
   1.0807500e+02	   5.6836391e-01	   7.6229561e-02	
   1.0813000e+02	   5.5847207e-01	   7.3284937e-02	
   1.0818500e+02	   5.4730827e-01	   6.9914503e-02	
   1.0824000e+02	   5.3493811e-01	   6.6160060e-02	
   1.0829500e+02	   5.2146136e-01	   6.2075287e-02	
   1.0835000e+02	   5.0700199e-01	   5.7716751e-02	
   1.0840500e+02	   4.9169732e-01	   5.3135534e-02	
   1.0846000e+02	   4.7568913e-01	   4.8371073e-02	
   1.0851500e+02	   4.5911940e-01	   4.3448489e-02	
   1.0857000e+02	   4.4213239e-01	   3.8379910e-02	
   1.0862500e+02	   4.2488197e-01	   3.3169435e-02	
   1.0868000e+02	   4.0754079e-01	   2.7820402e-02	
   1.0873500e+02	   3.9030692e-01	   2.2342603e-02	
   1.0879000e+02	   3.7340426e-01	   1.6756866e-02	
   1.0884500e+02	   3.5707454e-01	   1.1095649e-02	
   1.0890000e+02	   3.4156238e-01	   5.4005749e-03	
   1.0895500e+02	   3.2709693e-01	  -2.8113879e-04	
   1.0901000e+02	   3.1387370e-01	  -5.9004303e-03	
   1.0906500e+02	   3.0203815e-01	  -1.1410289e-02	
   1.0912000e+02	   2.9167327e-01	  -1.6769186e-02	
   1.0917500e+02	   2.8279441e-01	  -2.1942801e-02	
   1.0923000e+02	   2.7535370e-01	  -2.6903288e-02	
   1.0928500e+02	   2.6925365e-01	  -3.1626349e-02	
   1.0934000e+02	   2.6436615e-01	  -3.6087310e-02	
   1.0939500e+02	   2.6055173e-01	  -4.0257708e-02	
   1.0945000e+02	   2.5767528e-01	  -4.4103388e-02	
   1.0950500e+02	   2.5561586e-01	  -4.7584439e-02	
   1.0956000e+02	   2.5427017e-01	  -5.0657016e-02	
   1.0961500e+02	   2.5355067e-01	  -5.3276932e-02	
   1.0967000e+02	   2.5338077e-01	  -5.5404852e-02	
   1.0972500e+02	   2.5368846e-01	  -5.7012864e-02	
   1.0978000e+02	   2.5439936e-01	  -5.8091287e-02	
   1.0983500e+02	   2.5543136e-01	  -5.8653463e-02	
   1.0989000e+02	   2.5669436e-01	  -5.8736290e-02	
   1.0994500e+02	   2.5809717e-01	  -5.8395913e-02	
   1.1000000e+02	   2.5955918e-01	  -5.7700078e-02	
   1.1005500e+02	   2.6102170e-01	  -5.6719680e-02	
   1.1011000e+02	   2.6245427e-01	  -5.5521802e-02	
   1.1016500e+02	   2.6385441e-01	  -5.4165529e-02	
   1.1022000e+02	   2.6524176e-01	  -5.2700863e-02	
   1.1027500e+02	   2.6664890e-01	  -5.1170426e-02	
   1.1033000e+02	   2.6810994e-01	  -4.9613679e-02	
   1.1038500e+02	   2.6964762e-01	  -4.8073116e-02	
   1.1044000e+02	   2.7126075e-01	  -4.6601066e-02	
   1.1049500e+02	   2.7291428e-01	  -4.5264704e-02	
   1.1055000e+02	   2.7453485e-01	  -4.4146720e-02	
   1.1060500e+02	   2.7601380e-01	  -4.3340275e-02	
   1.1066000e+02	   2.7721765e-01	  -4.2938973e-02	
   1.1071500e+02	   2.7800337e-01	  -4.3024326e-02	
   1.1077000e+02	   2.7823445e-01	  -4.3653679e-02	
   1.1082500e+02	   2.7779370e-01	  -4.4851238e-02	
   1.1088000e+02	   2.7659040e-01	  -4.6604198e-02	
   1.1093500e+02	   2.7456167e-01	  -4.8864419e-02	
   1.1099000e+02	   2.7166977e-01	  -5.1554177e-02	
   1.1104500e+02	   2.6789713e-01	  -5.4574102e-02	
   1.1110000e+02	   2.6323910e-01	  -5.7812791e-02	
   1.1115500e+02	   2.5769410e-01	  -6.1158410e-02	
   1.1121000e+02	   2.5125312e-01	  -6.4511425e-02	
   1.1126500e+02	   2.4389332e-01	  -6.7795651e-02	
   1.1132000e+02	   2.3557992e-01	  -7.0964448e-02	
   1.1137500e+02	   2.2627688e-01	  -7.4000485e-02	
   1.1143000e+02	   2.1596239e-01	  -7.6910004e-02	
   1.1148500e+02	   2.0464372e-01	  -7.9714167e-02	
   1.1154000e+02	   1.9236748e-01	  -8.2440068e-02	
   1.1159500e+02	   1.7922316e-01	  -8.5113345e-02	
   1.1165000e+02	   1.6534001e-01	  -8.7753684e-02	
   1.1170500e+02	   1.5087864e-01	  -9.0373496e-02	
   1.1176000e+02	   1.3601890e-01	  -9.2979253e-02	
   1.1181500e+02	   1.2094528e-01	  -9.5574830e-02	
   1.1187000e+02	   1.0583142e-01	  -9.8166151e-02	
   1.1192500e+02	   9.0826684e-02	  -1.0076582e-01	
   1.1198000e+02	   7.6048286e-02	  -1.0339599e-01	
   1.1203500e+02	   6.1580263e-02	  -1.0608775e-01	
   1.1209000e+02	   4.7479035e-02	  -1.0887639e-01	
   1.1214500e+02	   3.3783709e-02	  -1.1179340e-01	
   1.1220000e+02	   2.0527446e-02	  -1.1485809e-01	
   1.1225500e+02	   7.7459438e-03	  -1.1807178e-01	
   1.1231000e+02	  -4.5190998e-03	  -1.2141606e-01	
   1.1236500e+02	  -1.6221200e-02	  -1.2485458e-01	
   1.1242000e+02	  -2.7313490e-02	  -1.2833697e-01	
   1.1247500e+02	  -3.7755112e-02	  -1.3180469e-01	
   1.1253000e+02	  -4.7518371e-02	  -1.3519892e-01	
   1.1258500e+02	  -5.6594607e-02	  -1.3846958e-01	
   1.1264000e+02	  -6.4996653e-02	  -1.4158255e-01	
   1.1269500e+02	  -7.2756628e-02	  -1.4452283e-01	
   1.1275000e+02	  -7.9919340e-02	  -1.4729271e-01	
   1.1280500e+02	  -8.6532964e-02	  -1.4990607e-01	
   1.1286000e+02	  -9.2639579e-02	  -1.5238112e-01	
   1.1291500e+02	  -9.8267679e-02	  -1.5473424e-01	
   1.1297000e+02	  -1.0342790e-01	  -1.5697629e-01	
   1.1302500e+02	  -1.0811271e-01	  -1.5911114e-01	
   1.1308000e+02	  -1.1230018e-01	  -1.6113615e-01	
   1.1313500e+02	  -1.1596058e-01	  -1.6304374e-01	
   1.1319000e+02	  -1.1906456e-01	  -1.6482425e-01	
   1.1324500e+02	  -1.2159144e-01	  -1.6646982e-01	
   1.1330000e+02	  -1.2353509e-01	  -1.6797824e-01	
   1.1335500e+02	  -1.2490382e-01	  -1.6935378e-01	
   1.1341000e+02	  -1.2571213e-01	  -1.7060319e-01	
   1.1346500e+02	  -1.2596658e-01	  -1.7172762e-01	
   1.1352000e+02	  -1.2565074e-01	  -1.7271335e-01	
   1.1357500e+02	  -1.2471444e-01	  -1.7352446e-01	
   1.1363000e+02	  -1.2307068e-01	  -1.7410020e-01	
   1.1368500e+02	  -1.2060089e-01	  -1.7435784e-01	
   1.1374000e+02	  -1.1716712e-01	  -1.7420025e-01	
   1.1379500e+02	  -1.1262813e-01	  -1.7352638e-01	
   1.1385000e+02	  -1.0685746e-01	  -1.7224369e-01	
   1.1390500e+02	  -9.9761153e-02	  -1.7028128e-01	
   1.1396000e+02	  -9.1292366e-02	  -1.6760113e-01	
   1.1401500e+02	  -8.1459171e-02	  -1.6420386e-01	
   1.1407000e+02	  -7.0321984e-02	  -1.6012720e-01	
   1.1412500e+02	  -5.7980113e-02	  -1.5543712e-01	
   1.1418000e+02	  -4.4551708e-02	  -1.5021476e-01	
   1.1423500e+02	  -3.0154050e-02	  -1.4454325e-01	
   1.1429000e+02	  -1.4889634e-02	  -1.3849767e-01	
   1.1434500e+02	   1.1596733e-03	  -1.3213944e-01	
   1.1440000e+02	   1.7930435e-02	  -1.2551497e-01	
   1.1445500e+02	   3.5369178e-02	  -1.1865745e-01	
   1.1451000e+02	   5.3420264e-02	  -1.1159110e-01	
   1.1456500e+02	   7.2012065e-02	  -1.0433769e-01	
   1.1462000e+02	   9.1042915e-02	  -9.6924969e-02	
   1.1467500e+02	   1.1036917e-01	  -8.9394944e-02	
   1.1473000e+02	   1.2979852e-01	  -8.1809362e-02	
   1.1478500e+02	   1.4909121e-01	  -7.4250233e-02	
   1.1484000e+02	   1.6797066e-01	  -6.6814858e-02	
   1.1489500e+02	   1.8614174e-01	  -5.9606604e-02	
   1.1495000e+02	   2.0331283e-01	  -5.2723843e-02	
   1.1500500e+02	   2.1921663e-01	  -4.6249802e-02	
   1.1506000e+02	   2.3362678e-01	  -4.0245205e-02	
   1.1511500e+02	   2.4636925e-01	  -3.4744294e-02	
   1.1517000e+02	   2.5732837e-01	  -2.9754347e-02	
   1.1522500e+02	   2.6644681e-01	  -2.5259234e-02	
   1.1528000e+02	   2.7371978e-01	  -2.1227363e-02	
   1.1533500e+02	   2.7918435e-01	  -1.7623062e-02	
   1.1539000e+02	   2.8290639e-01	  -1.4418925e-02	
   1.1544500e+02	   2.8496804e-01	  -1.1606412e-02	
   1.1550000e+02	   2.8545845e-01	  -9.2027959e-03	
   1.1555500e+02	   2.8446990e-01	  -7.2531307e-03	
   1.1561000e+02	   2.8210009e-01	  -5.8264181e-03	
   1.1566500e+02	   2.7845939e-01	  -5.0064961e-03	
   1.1572000e+02	   2.7367866e-01	  -4.8801210e-03	
   1.1577500e+02	   2.6791261e-01	  -5.5252364e-03	
   1.1583000e+02	   2.6133700e-01	  -7.0012707e-03	
   1.1588500e+02	   2.5414155e-01	  -9.3423665e-03	
   1.1594000e+02	   2.4652088e-01	  -1.2554423e-02	
   1.1599500e+02	   2.3866408e-01	  -1.6616644e-02	
   1.1605000e+02	   2.3074287e-01	  -2.1487163e-02	
   1.1610500e+02	   2.2289932e-01	  -2.7110903e-02	
   1.1616000e+02	   2.1523478e-01	  -3.3427411e-02	
   1.1621500e+02	   2.0780223e-01	  -4.0377169e-02	
   1.1627000e+02	   2.0060440e-01	  -4.7905348e-02	
   1.1632500e+02	   1.9359959e-01	  -5.5962023e-02	
   1.1638000e+02	   1.8671494e-01	  -6.4498565e-02	
   1.1643500e+02	   1.7986386e-01	  -7.3461478e-02	
   1.1649000e+02	   1.7296271e-01	  -8.2785642e-02	
   1.1654500e+02	   1.6594299e-01	  -9.2388512e-02	
   1.1660000e+02	   1.5875800e-01	  -1.0216670e-01	
   1.1665500e+02	   1.5138416e-01	  -1.1199633e-01	
   1.1671000e+02	   1.4381803e-01	  -1.2173765e-01	
   1.1676500e+02	   1.3607037e-01	  -1.3124257e-01	
   1.1682000e+02	   1.2816000e-01	  -1.4036351e-01	
   1.1687500e+02	   1.2010929e-01	  -1.4896196e-01	
   1.1693000e+02	   1.1194220e-01	  -1.5691635e-01	
   1.1698500e+02	   1.0368465e-01	  -1.6412801e-01	
   1.1704000e+02	   9.5368613e-02	  -1.7052379e-01	
   1.1709500e+02	   8.7040380e-02	  -1.7605488e-01	
   1.1715000e+02	   7.8771103e-02	  -1.8069294e-01	
   1.1720500e+02	   7.0665978e-02	  -1.8442513e-01	
   1.1726000e+02	   6.2869090e-02	  -1.8724878e-01	
   1.1731500e+02	   5.5562129e-02	  -1.8916671e-01	
   1.1737000e+02	   4.8956330e-02	  -1.9018433e-01	
   1.1742500e+02	   4.3278620e-02	  -1.9030958e-01	
   1.1748000e+02	   3.8754573e-02	  -1.8955535e-01	
   1.1753500e+02	   3.5590964e-02	  -1.8794368e-01	
   1.1759000e+02	   3.3959745e-02	  -1.8551082e-01	
   1.1764500e+02	   3.3984825e-02	  -1.8231139e-01	
   1.1770000e+02	   3.5733910e-02	  -1.7842023e-01	
   1.1775500e+02	   3.9218079e-02	  -1.7393047e-01	
   1.1781000e+02	   4.4399854e-02	  -1.6894782e-01	
   1.1786500e+02	   5.1207341e-02	  -1.6358203e-01	
   1.1792000e+02	   5.9550009e-02	  -1.5793736e-01	
   1.1797500e+02	   6.9332192e-02	  -1.5210440e-01	
   1.1803000e+02	   8.0462048e-02	  -1.4615523e-01	
   1.1808500e+02	   9.2855094e-02	  -1.4014303e-01	
   1.1814000e+02	   1.0643260e-01	  -1.3410529e-01	
   1.1819500e+02	   1.2111606e-01	  -1.2806942e-01	
   1.1825000e+02	   1.3681911e-01	  -1.2205966e-01	
   1.1830500e+02	   1.5343801e-01	  -1.1610451e-01	
   1.1836000e+02	   1.7084232e-01	  -1.1024330e-01	
   1.1841500e+02	   1.8886832e-01	  -1.0452957e-01	
   1.1847000e+02	   2.0731836e-01	  -9.9029484e-02	
   1.1852500e+02	   2.2596779e-01	  -9.3815082e-02	
   1.1858000e+02	   2.4457800e-01	  -8.8954275e-02	
   1.1863500e+02	   2.6291158e-01	  -8.4500126e-02	
   1.1869000e+02	   2.8074530e-01	  -8.0481973e-02	
   1.1874500e+02	   2.9787770e-01	  -7.6900446e-02	
   1.1880000e+02	   3.1413080e-01	  -7.3727689e-02	
   1.1885500e+02	   3.2934653e-01	  -7.0912541e-02	
   1.1891000e+02	   3.4338012e-01	  -6.8389144e-02	
   1.1896500e+02	   3.5609212e-01	  -6.6087334e-02	
   1.1902000e+02	   3.6734074e-01	  -6.3943396e-02	
   1.1907500e+02	   3.7697586e-01	  -6.1909720e-02	
   1.1913000e+02	   3.8483647e-01	  -5.9961622e-02	
   1.1918500e+02	   3.9075357e-01	  -5.8099657e-02	
   1.1924000e+02	   3.9456059e-01	  -5.6346458e-02	
   1.1929500e+02	   3.9611034e-01	  -5.4738618e-02	
   1.1935000e+02	   3.9529471e-01	  -5.3315893e-02	
   1.1940500e+02	   3.9206155e-01	  -5.2110954e-02	
   1.1946000e+02	   3.8642543e-01	  -5.1142339e-02	
   1.1951500e+02	   3.7847131e-01	  -5.0411623e-02	
   1.1957000e+02	   3.6835121e-01	  -4.9904443e-02	
   1.1962500e+02	   3.5627456e-01	  -4.9594588e-02	
   1.1968000e+02	   3.4249353e-01	  -4.9450192e-02	
   1.1973500e+02	   3.2728695e-01	  -4.9440699e-02	
   1.1979000e+02	   3.1094730e-01	  -4.9542623e-02	
   1.1984500e+02	   2.9377337e-01	  -4.9741999e-02	
   1.1990000e+02	   2.7606799e-01	  -5.0032399e-02	
   1.1995500e+02	   2.5813876e-01	  -5.0409061e-02	
   1.2001000e+02	   2.4029862e-01	  -5.0861060e-02	
   1.2006500e+02	   2.2286457e-01	  -5.1364256e-02	
   1.2012000e+02	   2.0615297e-01	  -5.1877702e-02	
   1.2017500e+02	   1.9047170e-01	  -5.2344773e-02	
   1.2023000e+02	   1.7611008e-01	  -5.2698045e-02	
   1.2028500e+02	   1.6332803e-01	  -5.2866028e-02	
   1.2034000e+02	   1.5234557e-01	  -5.2780329e-02	
   1.2039500e+02	   1.4333334e-01	  -5.2382375e-02	
   1.2045000e+02	   1.3640495e-01	  -5.1628714e-02	
   1.2050500e+02	   1.3161350e-01	  -5.0493792e-02	
   1.2056000e+02	   1.2895449e-01	  -4.8969530e-02	
   1.2061500e+02	   1.2837477e-01	  -4.7061951e-02	
   1.2067000e+02	   1.2978486e-01	  -4.4785995e-02	
   1.2072500e+02	   1.3307135e-01	  -4.2159863e-02	
   1.2078000e+02	   1.3810733e-01	  -3.9200114e-02	
   1.2083500e+02	   1.4475975e-01	  -3.5918669e-02	
   1.2089000e+02	   1.5289301e-01	  -3.2322426e-02	
   1.2094500e+02	   1.6236919e-01	  -2.8415277e-02	
   1.2100000e+02	   1.7304651e-01	  -2.4201770e-02	
   1.2105500e+02	   1.8477771e-01	  -1.9691426e-02	
   1.2111000e+02	   1.9741076e-01	  -1.4902153e-02	
   1.2116500e+02	   2.1079362e-01	  -9.8609863e-03	
   1.2122000e+02	   2.2478368e-01	  -4.6014260e-03	
   1.2127500e+02	   2.3925922e-01	   8.4136979e-04	
   1.2133000e+02	   2.5412879e-01	   6.4352437e-03	
   1.2138500e+02	   2.6933476e-01	   1.2153755e-02	
   1.2144000e+02	   2.8484963e-01	   1.7976350e-02	
   1.2149500e+02	   3.0066559e-01	   2.3886112e-02	
   1.2155000e+02	   3.1677977e-01	   2.9865669e-02	
   1.2160500e+02	   3.3317779e-01	   3.5892382e-02	
   1.2166000e+02	   3.4981908e-01	   4.1934172e-02	
   1.2171500e+02	   3.6662678e-01	   4.7946880e-02	
   1.2177000e+02	   3.8348398e-01	   5.3873718e-02	
   1.2182500e+02	   4.0023789e-01	   5.9647779e-02	
   1.2188000e+02	   4.1671180e-01	   6.5198253e-02	
   1.2193500e+02	   4.3272254e-01	   7.0458910e-02	
   1.2199000e+02	   4.4809790e-01	   7.5375623e-02	
   1.2204500e+02	   4.6268861e-01	   7.9910688e-02	
   1.2210000e+02	   4.7637296e-01	   8.4043916e-02	
   1.2215500e+02	   4.8905526e-01	   8.7771227e-02	
   1.2221000e+02	   5.0065997e-01	   9.1100840e-02	
   1.2226500e+02	   5.1112310e-01	   9.4047148e-02	
   1.2232000e+02	   5.2038296e-01	   9.6623670e-02	
   1.2237500e+02	   5.2837262e-01	   9.8837414e-02	
   1.2243000e+02	   5.3501586e-01	   1.0068645e-01	
   1.2248500e+02	   5.4022813e-01	   1.0216119e-01	
   1.2254000e+02	   5.4392289e-01	   1.0324912e-01	
   1.2259500e+02	   5.4602201e-01	   1.0394146e-01	
   1.2265000e+02	   5.4646636e-01	   1.0423941e-01	
   1.2270500e+02	   5.4522385e-01	   1.0415792e-01	
   1.2276000e+02	   5.4229425e-01	   1.0372687e-01	
   1.2281500e+02	   5.3771201e-01	   1.0299019e-01	
   1.2287000e+02	   5.3154666e-01	   1.0200296e-01	
   1.2292500e+02	   5.2389926e-01	   1.0082654e-01	
   1.2298000e+02	   5.1489352e-01	   9.9521998e-02	
   1.2303500e+02	   5.0466288e-01	   9.8142934e-02	
   1.2309000e+02	   4.9333696e-01	   9.6728877e-02	
   1.2314500e+02	   4.8103132e-01	   9.5301212e-02	
   1.2320000e+02	   4.6784329e-01	   9.3863684e-02	
   1.2325500e+02	   4.5385358e-01	   9.2407934e-02	
   1.2331000e+02	   4.3913136e-01	   9.0922018e-02	
   1.2336500e+02	   4.2373971e-01	   8.9398377e-02	
   1.2342000e+02	   4.0773930e-01	   8.7838650e-02	
   1.2347500e+02	   3.9119016e-01	   8.6254891e-02	
   1.2353000e+02	   3.7415266e-01	   8.4667957e-02	
   1.2358500e+02	   3.5668795e-01	   8.3103400e-02	
   1.2364000e+02	   3.3885746e-01	   8.1585269e-02	
   1.2369500e+02	   3.2072234e-01	   8.0129354e-02	
   1.2375000e+02	   3.0234464e-01	   7.8737952e-02	
   1.2380500e+02	   2.8379098e-01	   7.7397342e-02	
   1.2386000e+02	   2.6513853e-01	   7.6078292e-02	
   1.2391500e+02	   2.4648207e-01	   7.4739748e-02	
   1.2397000e+02	   2.2793966e-01	   7.3335210e-02	
   1.2402500e+02	   2.0965418e-01	   7.1820236e-02	
   1.2408000e+02	   1.9178920e-01	   7.0159213e-02	
   1.2413500e+02	   1.7451993e-01	   6.8330314e-02	
   1.2419000e+02	   1.5802135e-01	   6.6328286e-02	
   1.2424500e+02	   1.4245514e-01	   6.4164632e-02	
   1.2430000e+02	   1.2795661e-01	   6.1864774e-02	
   1.2435500e+02	   1.1462270e-01	   5.9462892e-02	
   1.2441000e+02	   1.0250356e-01	   5.6996881e-02	
   1.2446500e+02	   9.1600336e-02	   5.4505964e-02	
   1.2452000e+02	   8.1870076e-02	   5.2031543e-02	
   1.2457500e+02	   7.3235589e-02	   4.9619777e-02	
   1.2463000e+02	   6.5598298e-02	   4.7324214e-02	
   1.2468500e+02	   5.8852682e-02	   4.5207254e-02	
   1.2474000e+02	   5.2900166e-02	   4.3339334e-02	
   1.2479500e+02	   4.7659383e-02	   4.1795135e-02	
   1.2485000e+02	   4.3070944e-02	   4.0647297e-02	
   1.2490500e+02	   3.9096987e-02	   3.9958655e-02	
   1.2496000e+02	   3.5716679e-02	   3.9773729e-02	
   1.2501500e+02	   3.2919176e-02	   4.0110317e-02	
   1.2507000e+02	   3.0696454e-02	   4.0953036e-02	
   1.2512500e+02	   2.9039449e-02	   4.2251204e-02	
   1.2518000e+02	   2.7939943e-02	   4.3922404e-02	
   1.2523500e+02	   2.7397189e-02	   4.5860972e-02	
   1.2529000e+02	   2.7425283e-02	   4.7949220e-02	
   1.2534500e+02	   2.8057233e-02	   5.0069037e-02	
   1.2540000e+02	   2.9343715e-02	   5.2111735e-02	
   1.2545500e+02	   3.1346309e-02	   5.3984303e-02	
   1.2551000e+02	   3.4125544e-02	   5.5611305e-02	
   1.2556500e+02	   3.7724929e-02	   5.6933056e-02	
   1.2562000e+02	   4.2154038e-02	   5.7901560e-02	
   1.2567500e+02	   4.7374375e-02	   5.8475766e-02	
   1.2573000e+02	   5.3290295e-02	   5.8617460e-02	
   1.2578500e+02	   5.9746433e-02	   5.8289121e-02	
   1.2584000e+02	   6.6533291e-02	   5.7455060e-02	
   1.2589500e+02	   7.3401306e-02	   5.6086268e-02	
   1.2595000e+02	   8.0080742e-02	   5.4167577e-02	
   1.2600500e+02	   8.6302681e-02	   5.1704410e-02	
   1.2606000e+02	   9.1816684e-02	   4.8726783e-02	
   1.2611500e+02	   9.6402552e-02	   4.5289375e-02	
   1.2617000e+02	   9.9875801e-02	   4.1467370e-02	
   1.2622500e+02	   1.0208829e-01	   3.7348857e-02	
   1.2628000e+02	   1.0292609e-01	   3.3025830e-02	
   1.2633500e+02	   1.0230600e-01	   2.8585793e-02	
   1.2639000e+02	   1.0017154e-01	   2.4104939e-02	
   1.2644500e+02	   9.6489241e-02	   1.9643325e-02	
   1.2650000e+02	   9.1247684e-02	   1.5242808e-02	
   1.2655500e+02	   8.4461441e-02	   1.0928483e-02	
   1.2661000e+02	   7.6179727e-02	   6.7135467e-03	
   1.2666500e+02	   6.6496006e-02	   2.6063927e-03	
   1.2672000e+02	   5.5553928e-02	  -1.3819846e-03	
   1.2677500e+02	   4.3546726e-02	  -5.2325843e-03	
   1.2683000e+02	   3.0709228e-02	  -8.9171025e-03	
