	
0   2   1   4
   0.0000000e+00	   6.6239308e-02	  -7.6245689e-01	  -1.0540566e-01	
   5.5000000e-02	   5.7139539e-02	  -7.6838489e-01	  -1.0483446e-01	
   1.1000000e-01	   4.7312129e-02	  -7.7466913e-01	  -1.0558222e-01	
   1.6500000e-01	   3.6914697e-02	  -7.8128023e-01	  -1.0739896e-01	
   2.2000000e-01	   2.6096447e-02	  -7.8817902e-01	  -1.1002654e-01	
   2.7500000e-01	   1.4988607e-02	  -7.9531889e-01	  -1.1321252e-01	
   3.3000000e-01	   3.6976532e-03	  -8.0264615e-01	  -1.1672154e-01	
   3.8500000e-01	  -7.6957918e-03	  -8.1009608e-01	  -1.2034107e-01	
   4.4000000e-01	  -1.9131303e-02	  -8.1758559e-01	  -1.2387935e-01	
   4.9500000e-01	  -3.0558432e-02	  -8.2500638e-01	  -1.2715737e-01	
   5.5000000e-01	  -4.1926273e-02	  -8.3222332e-01	  -1.3000058e-01	
   6.0500000e-01	  -5.3176202e-02	  -8.3907928e-01	  -1.3223521e-01	
   6.6000000e-01	  -6.4238955e-02	  -8.4540401e-01	  -1.3369159e-01	
   7.1500000e-01	  -7.5036020e-02	  -8.5102488e-01	  -1.3421408e-01	
   7.7000000e-01	  -8.5484959e-02	  -8.5577978e-01	  -1.3367685e-01	
   8.2500000e-01	  -9.5507378e-02	  -8.5953226e-01	  -1.3200250e-01	
   8.8000000e-01	  -1.0503731e-01	  -8.6218619e-01	  -1.2917853e-01	
   9.3500000e-01	  -1.1402776e-01	  -8.6369607e-01	  -1.2526775e-01	
   9.9000000e-01	  -1.2245365e-01	  -8.6407033e-01	  -1.2040977e-01	
   1.0450000e+00	  -1.3031033e-01	  -8.6336629e-01	  -1.1481221e-01	
   1.1000000e+00	  -1.3760815e-01	  -8.6167722e-01	  -1.0873203e-01	
   1.1550000e+00	  -1.4436554e-01	  -8.5911570e-01	  -1.0245133e-01	
   1.2100000e+00	  -1.5060322e-01	  -8.5580086e-01	  -9.6253592e-02	
   1.2650000e+00	  -1.5634190e-01	  -8.5185500e-01	  -9.0405297e-02	
   1.3200000e+00	  -1.6160313e-01	  -8.4740883e-01	  -8.5143872e-02	
   1.3750000e+00	  -1.6641235e-01	  -8.4261019e-01	  -8.0671911e-02	
   1.4300000e+00	  -1.7080329e-01	  -8.3763207e-01	  -7.7157390e-02	
   1.4850000e+00	  -1.7482352e-01	  -8.3267856e-01	  -7.4738434e-02	
   1.5400000e+00	  -1.7853908e-01	  -8.2798674e-01	  -7.3528446e-02	
   1.5950000e+00	  -1.8203474e-01	  -8.2382066e-01	  -7.3617015e-02	
   1.6500000e+00	  -1.8540770e-01	  -8.2045521e-01	  -7.5064439e-02	
   1.7050000e+00	  -1.8875598e-01	  -8.1815266e-01	  -7.7890862e-02	
   1.7600000e+00	  -1.9216543e-01	  -8.1713707e-01	  -8.2064066e-02	
   1.8150000e+00	  -1.9569942e-01	  -8.1757094e-01	  -8.7492043e-02	
   1.8700000e+00	  -1.9939427e-01	  -8.1953831e-01	  -9.4024801e-02	
   1.9250000e+00	  -2.0326103e-01	  -8.2303963e-01	  -1.0146571e-01	
   1.9800000e+00	  -2.0729294e-01	  -8.2800003e-01	  -1.0958991e-01	
   2.0350000e+00	  -2.1147686e-01	  -8.3428815e-01	  -1.1816652e-01	
   2.0900000e+00	  -2.1580624e-01	  -8.4173904e-01	  -1.2697988e-01	
   2.1450000e+00	  -2.2029217e-01	  -8.5017457e-01	  -1.3584453e-01	
   2.2000000e+00	  -2.2496863e-01	  -8.5941665e-01	  -1.4460987e-01	
   2.2550000e+00	  -2.2989024e-01	  -8.6929062e-01	  -1.5315454e-01	
   2.3100000e+00	  -2.3512315e-01	  -8.7961941e-01	  -1.6137464e-01	
   2.3650000e+00	  -2.4073249e-01	  -8.9021273e-01	  -1.6917128e-01	
   2.4200000e+00	  -2.4677121e-01	  -9.0085818e-01	  -1.7644280e-01	
   2.4750000e+00	  -2.5327375e-01	  -9.1131983e-01	  -1.8308471e-01	
   2.5300000e+00	  -2.6025554e-01	  -9.2134585e-01	  -1.8899683e-01	
   2.5850000e+00	  -2.6771734e-01	  -9.3068337e-01	  -1.9409527e-01	
   2.6400000e+00	  -2.7565271e-01	  -9.3909667e-01	  -1.9832559e-01	
   2.6950000e+00	  -2.8405652e-01	  -9.4638451e-01	  -2.0167421e-01	
   2.7500000e+00	  -2.9293261e-01	  -9.5239540e-01	  -2.0417548e-01	
   2.8050000e+00	  -3.0229850e-01	  -9.5703998e-01	  -2.0591254e-01	
   2.8600000e+00	  -3.1218526e-01	  -9.6029704e-01	  -2.0700989e-01	
   2.9150000e+00	  -3.2263125e-01	  -9.6220930e-01	  -2.0761730e-01	
   2.9700000e+00	  -3.3367110e-01	  -9.6286902e-01	  -2.0788893e-01	
   3.0250000e+00	  -3.4532412e-01	  -9.6239902e-01	  -2.0796401e-01	
   3.0800000e+00	  -3.5758615e-01	  -9.6093624e-01	  -2.0795387e-01	
   3.1350000e+00	  -3.7042612e-01	  -9.5862140e-01	  -2.0793605e-01	
   3.1900000e+00	  -3.8378661e-01	  -9.5559443e-01	  -2.0795407e-01	
   3.2450000e+00	  -3.9758760e-01	  -9.5199377e-01	  -2.0802134e-01	
   3.3000000e+00	  -4.1173373e-01	  -9.4795917e-01	  -2.0812813e-01	
   3.3550000e+00	  -4.2612424e-01	  -9.4363608e-01	  -2.0824953e-01	
   3.4100000e+00	  -4.4066367e-01	  -9.3917911e-01	  -2.0835192e-01	
   3.4650000e+00	  -4.5527001e-01	  -9.3475291e-01	  -2.0839589e-01	
   3.5200000e+00	  -4.6987787e-01	  -9.3053018e-01	  -2.0833487e-01	
   3.5750000e+00	  -4.8443553e-01	  -9.2668616e-01	  -2.0811052e-01	
   3.6300000e+00	  -4.9889714e-01	  -9.2338976e-01	  -2.0764588e-01	
   3.6850000e+00	  -5.1321315e-01	  -9.2079373e-01	  -2.0683868e-01	
   3.7400000e+00	  -5.2732268e-01	  -9.1902782e-01	  -2.0555876e-01	
   3.7950000e+00	  -5.4115081e-01	  -9.1819641e-01	  -2.0365309e-01	
   3.8500000e+00	  -5.5461144e-01	  -9.1837968e-01	  -2.0095866e-01	
   3.9050000e+00	  -5.6761432e-01	  -9.1963607e-01	  -1.9732006e-01	
   3.9600000e+00	  -5.8007450e-01	  -9.2200497e-01	  -1.9260847e-01	
   4.0150000e+00	  -5.9192245e-01	  -9.2550978e-01	  -1.8673985e-01	
   4.0700000e+00	  -6.0311266e-01	  -9.3016109e-01	  -1.7968820e-01	
   4.1250000e+00	  -6.1362710e-01	  -9.3595776e-01	  -1.7148860e-01	
   4.1800000e+00	  -6.2347131e-01	  -9.4288263e-01	  -1.6222801e-01	
   4.2350000e+00	  -6.3266500e-01	  -9.5089279e-01	  -1.5202736e-01	
   4.2900000e+00	  -6.4123110e-01	  -9.5990923e-01	  -1.4102247e-01	
   4.3450000e+00	  -6.4918724e-01	  -9.6981155e-01	  -1.2935072e-01	
   4.4000000e+00	  -6.5654156e-01	  -9.8044197e-01	  -1.1714675e-01	
   4.4550000e+00	  -6.6329311e-01	  -9.9161912e-01	  -1.0454641e-01	
   4.5100000e+00	  -6.6943548e-01	  -1.0031587e+00	  -9.1695030e-02	
   4.5650000e+00	  -6.7496137e-01	  -1.0148944e+00	  -7.8755683e-02	
   4.6200000e+00	  -6.7986604e-01	  -1.0266920e+00	  -6.5913838e-02	
   4.6750000e+00	  -6.8414802e-01	  -1.0384551e+00	  -5.3375947e-02	
   4.7300000e+00	  -6.8780711e-01	  -1.0501213e+00	  -4.1360366e-02	
   4.7850000e+00	  -6.9083998e-01	  -1.0616515e+00	  -3.0080468e-02	
   4.8400000e+00	  -6.9323443e-01	  -1.0730172e+00	  -1.9722731e-02	
   4.8950000e+00	  -6.9496392e-01	  -1.0841904e+00	  -1.0426115e-02	
   4.9500000e+00	  -6.9598542e-01	  -1.0951410e+00	  -2.2694957e-03	
   5.0050000e+00	  -6.9624192e-01	  -1.1058378e+00	   4.7300834e-03	
   5.0600000e+00	  -6.9566908e-01	  -1.1162519e+00	   1.0610397e-02	
   5.1150000e+00	  -6.9420425e-01	  -1.1263608e+00	   1.5451580e-02	
   5.1700000e+00	  -6.9179725e-01	  -1.1361528e+00	   1.9360677e-02	
   5.2250000e+00	  -6.8842131e-01	  -1.1456273e+00	   2.2456483e-02	
   5.2800000e+00	  -6.8408113e-01	  -1.1547895e+00	   2.4859171e-02	
   5.3350000e+00	  -6.7881450e-01	  -1.1636403e+00	   2.6687159e-02	
   5.3900000e+00	  -6.7268743e-01	  -1.1721623e+00	   2.8060379e-02	
   5.4450000e+00	  -6.6578472e-01	  -1.1803086e+00	   2.9107442e-02	
   5.5000000e+00	  -6.5819908e-01	  -1.1879938e+00	   2.9973629e-02	
   5.5550000e+00	  -6.5002155e-01	  -1.1950908e+00	   3.0825969e-02	
   5.6100000e+00	  -6.4133603e-01	  -1.2014339e+00	   3.1851937e-02	
   5.6650000e+00	  -6.3221875e-01	  -1.2068306e+00	   3.3250509e-02	
   5.7200000e+00	  -6.2274127e-01	  -1.2110813e+00	   3.5217184e-02	
   5.7750000e+00	  -6.1297496e-01	  -1.2139993e+00	   3.7926017e-02	
   5.8300000e+00	  -6.0299548e-01	  -1.2154284e+00	   4.1511565e-02	
   5.8850000e+00	  -5.9288675e-01	  -1.2152545e+00	   4.6053735e-02	
   5.9400000e+00	  -5.8274244e-01	  -1.2134137e+00	   5.1569311e-02	
   5.9950000e+00	  -5.7266301e-01	  -1.2098928e+00	   5.8013764e-02	
   6.0500000e+00	  -5.6274815e-01	  -1.2047249e+00	   6.5294356e-02	
   6.1050000e+00	  -5.5308673e-01	  -1.1979803e+00	   7.3291039e-02	
   6.1600000e+00	  -5.4374772e-01	  -1.1897565e+00	   8.1878330e-02	
   6.2150000e+00	  -5.3477480e-01	  -1.1801704e+00	   9.0941777e-02	
   6.2700000e+00	  -5.2618649e-01	  -1.1693528e+00	   1.0038612e-01	
   6.3250000e+00	  -5.1798248e-01	  -1.1574488e+00	   1.1013540e-01	
   6.3800000e+00	  -5.1015550e-01	  -1.1446246e+00	   1.2012734e-01	
   6.4350000e+00	  -5.0270515e-01	  -1.1310768e+00	   1.3030580e-01	
   6.4900000e+00	  -4.9564975e-01	  -1.1170379e+00	   1.4061456e-01	
   6.5450000e+00	  -4.8903287e-01	  -1.1027734e+00	   1.5099389e-01	
   6.6000000e+00	  -4.8292320e-01	  -1.0885714e+00	   1.6138003e-01	
   6.6550000e+00	  -4.7740669e-01	  -1.0747245e+00	   1.7170923e-01	
   6.7100000e+00	  -4.7257149e-01	  -1.0615045e+00	   1.8192709e-01	
   6.7650000e+00	  -4.6848977e-01	  -1.0491370e+00	   1.9200028e-01	
   6.8200000e+00	  -4.6520139e-01	  -1.0377817e+00	   2.0192596e-01	
   6.8750000e+00	  -4.6270322e-01	  -1.0275219e+00	   2.1173606e-01	
   6.9300000e+00	  -4.6094599e-01	  -1.0183641e+00	   2.2149484e-01	
   6.9850000e+00	  -4.5983895e-01	  -1.0102489e+00	   2.3128955e-01	
   7.0400000e+00	  -4.5926129e-01	  -1.0030681e+00	   2.4121488e-01	
   7.0950000e+00	  -4.5907763e-01	  -9.9668664e-01	   2.5135455e-01	
   7.1500000e+00	  -4.5915402e-01	  -9.9096281e-01	   2.6176423e-01	
   7.2050000e+00	  -4.5937146e-01	  -9.8576488e-01	   2.7245935e-01	
   7.2600000e+00	  -4.5963429e-01	  -9.8098194e-01	   2.8340980e-01	
   7.3150000e+00	  -4.5987185e-01	  -9.7652771e-01	   2.9454323e-01	
   7.3700000e+00	  -4.6003412e-01	  -9.7233827e-01	   3.0575737e-01	
   7.4250000e+00	  -4.6008426e-01	  -9.6836755e-01	   3.1693744e-01	
   7.4800000e+00	  -4.5999182e-01	  -9.6458507e-01	   3.2797255e-01	
   7.5350000e+00	  -4.5972906e-01	  -9.6097782e-01	   3.3876572e-01	
   7.5900000e+00	  -4.5927033e-01	  -9.5755543e-01	   3.4923695e-01	
   7.6450000e+00	  -4.5859324e-01	  -9.5435611e-01	   3.5932139e-01	
   7.7000000e+00	  -4.5768018e-01	  -9.5145122e-01	   3.6896474e-01	
   7.7550000e+00	  -4.5651940e-01	  -9.4894626e-01	   3.7811819e-01	
   7.8100000e+00	  -4.5510437e-01	  -9.4697541e-01	   3.8673476e-01	
   7.8650000e+00	  -4.5343064e-01	  -9.4568828e-01	   3.9476946e-01	
   7.9200000e+00	  -4.5149024e-01	  -9.4523202e-01	   4.0218466e-01	
   7.9750000e+00	  -4.4926526e-01	  -9.4573429e-01	   4.0896003e-01	
   8.0300000e+00	  -4.4672193e-01	  -9.4728948e-01	   4.1510513e-01	
   8.0850000e+00	  -4.4380690e-01	  -9.4994748e-01	   4.2067076e-01	
   8.1400000e+00	  -4.4044733e-01	  -9.5370542e-01	   4.2575454e-01	
   8.1950000e+00	  -4.3655624e-01	  -9.5850418e-01	   4.3049782e-01	
   8.2500000e+00	  -4.3204216e-01	  -9.6423012e-01	   4.3507481e-01	
   8.3050000e+00	  -4.2682126e-01	  -9.7071951e-01	   4.3967675e-01	
   8.3600000e+00	  -4.2082945e-01	  -9.7776409e-01	   4.4449440e-01	
   8.4150000e+00	  -4.1403178e-01	  -9.8511674e-01	   4.4970131e-01	
   8.4700000e+00	  -4.0642597e-01	  -9.9249599e-01	   4.5544129e-01	
   8.5250000e+00	  -3.9803849e-01	  -9.9958820e-01	   4.6182362e-01	
   8.5800000e+00	  -3.8891415e-01	  -1.0060487e+00	   4.6892604e-01	
   8.6350000e+00	  -3.7910369e-01	  -1.0115052e+00	   4.7680159e-01	
   8.6900000e+00	  -3.6865417e-01	  -1.0155674e+00	   4.8548362e-01	
   8.7450000e+00	  -3.5760469e-01	  -1.0178443e+00	   4.9498615e-01	
   8.8000000e+00	  -3.4598666e-01	  -1.0179676e+00	   5.0530041e-01	
   8.8550000e+00	  -3.3382760e-01	  -1.0156195e+00	   5.1638989e-01	
   8.9100000e+00	  -3.2115729e-01	  -1.0105614e+00	   5.2818600e-01	
   8.9650000e+00	  -3.0801502e-01	  -1.0026579e+00	   5.4058472e-01	
   9.0200000e+00	  -2.9445593e-01	  -9.9189407e-01	   5.5344514e-01	
   9.0750000e+00	  -2.8055400e-01	  -9.7837882e-01	   5.6659144e-01	
   9.1300000e+00	  -2.6639979e-01	  -9.6233290e-01	   5.7982120e-01	
   9.1850000e+00	  -2.5209311e-01	  -9.4406284e-01	   5.9292166e-01	
   9.2400000e+00	  -2.3773276e-01	  -9.2392808e-01	   6.0569128e-01	
   9.2950000e+00	  -2.2340661e-01	  -9.0230986e-01	   6.1795981e-01	
   9.3500000e+00	  -2.0918458e-01	  -8.7958591e-01	   6.2960150e-01	
   9.4050000e+00	  -1.9511500e-01	  -8.5611171e-01	   6.4053955e-01	
   9.4600000e+00	  -1.8122540e-01	  -8.3220804e-01	   6.5074253e-01	
   9.5150000e+00	  -1.6752800e-01	  -8.0815581e-01	   6.6021345e-01	
   9.5700000e+00	  -1.5402918e-01	  -7.8419836e-01	   6.6897370e-01	
   9.6250000e+00	  -1.4073949e-01	  -7.6054862e-01	   6.7704636e-01	
   9.6800000e+00	  -1.2768027e-01	  -7.3739616e-01	   6.8444552e-01	
   9.7350000e+00	  -1.1488395e-01	  -7.1491054e-01	   6.9117565e-01	
   9.7900000e+00	  -1.0238839e-01	  -6.9323998e-01	   6.9724083e-01	
   9.8450000e+00	  -9.0227939e-02	  -6.7250633e-01	   7.0265825e-01	
   9.9000000e+00	  -7.8425387e-02	  -6.5279950e-01	   7.0747016e-01	
   9.9550000e+00	  -6.6987623e-02	  -6.3417468e-01	   7.1175012e-01	
   1.0010000e+01	  -5.5906598e-02	  -6.1665491e-01	   7.1560262e-01	
   1.0065000e+01	  -4.5165186e-02	  -6.0023870e-01	   7.1915713e-01	
   1.0120000e+01	  -3.4745876e-02	  -5.8491060e-01	   7.2255763e-01	
   1.0175000e+01	  -2.4639275e-02	  -5.7065235e-01	   7.2594870e-01	
   1.0230000e+01	  -1.4850518e-02	  -5.5745346e-01	   7.2945980e-01	
   1.0285000e+01	  -5.4034066e-03	  -5.4531973e-01	   7.3319155e-01	
   1.0340000e+01	   3.6581864e-03	  -5.3427713e-01	   7.3720803e-01	
   1.0395000e+01	   1.2273420e-02	  -5.2436807e-01	   7.4153819e-01	
   1.0450000e+01	   2.0372440e-02	  -5.1564046e-01	   7.4618477e-01	
   1.0505000e+01	   2.7886445e-02	  -5.0813501e-01	   7.5113601e-01	
   1.0560000e+01	   3.4756516e-02	  -5.0187637e-01	   7.5637539e-01	
   1.0615000e+01	   4.0939570e-02	  -4.9686881e-01	   7.6188649e-01	
   1.0670000e+01	   4.6410805e-02	  -4.9309553e-01	   7.6765225e-01	
   1.0725000e+01	   5.1162458e-02	  -4.9052111e-01	   7.7364997e-01	
   1.0780000e+01	   5.5199652e-02	  -4.8909670e-01	   7.7984451e-01	
   1.0835000e+01	   5.8534959e-02	  -4.8876652e-01	   7.8618182e-01	
   1.0890000e+01	   6.1183426e-02	  -4.8947400e-01	   7.9258384e-01	
   1.0945000e+01	   6.3159342e-02	  -4.9116627e-01	   7.9894575e-01	
   1.1000000e+01	   6.4475348e-02	  -4.9379533e-01	   8.0513633e-01	
   1.1055000e+01	   6.5144155e-02	  -4.9731440e-01	   8.1100177e-01	
   1.1110000e+01	   6.5182725e-02	  -5.0166880e-01	   8.1637442e-01	
   1.1165000e+01	   6.4617927e-02	  -5.0678410e-01	   8.2108623e-01	
   1.1220000e+01	   6.3491788e-02	  -5.1255759e-01	   8.2498379e-01	
   1.1275000e+01	   6.1864505e-02	  -5.1885777e-01	   8.2794132e-01	
   1.1330000e+01	   5.9814048e-02	  -5.2553067e-01	   8.2986961e-01	
   1.1385000e+01	   5.7431851e-02	  -5.3240820e-01	   8.3072015e-01	
   1.1440000e+01	   5.4814922e-02	  -5.3931633e-01	   8.3048389e-01	
   1.1495000e+01	   5.2056226e-02	  -5.4608379e-01	   8.2918584e-01	
   1.1550000e+01	   4.9236233e-02	  -5.5255074e-01	   8.2687858e-01	
   1.1605000e+01	   4.6417916e-02	  -5.5857476e-01	   8.2363716e-01	
   1.1660000e+01	   4.3646653e-02	  -5.6403296e-01	   8.1955689e-01	
   1.1715000e+01	   4.0955626e-02	  -5.6882146e-01	   8.1475462e-01	
   1.1770000e+01	   3.8375138e-02	  -5.7285426e-01	   8.0937144e-01	
   1.1825000e+01	   3.5941378e-02	  -5.7606308e-01	   8.0357196e-01	
   1.1880000e+01	   3.3700482e-02	  -5.7840000e-01	   7.9753664e-01	
   1.1935000e+01	   3.1707132e-02	  -5.7984310e-01	   7.9144719e-01	
   1.1990000e+01	   3.0019313e-02	  -5.8040499e-01	   7.8546818e-01	
   1.2045000e+01	   2.8690798e-02	  -5.8014304e-01	   7.7972820e-01	
   1.2100000e+01	   2.7762728e-02	  -5.7916944e-01	   7.7430351e-01	
   1.2155000e+01	   2.7256103e-02	  -5.7765782e-01	   7.6920761e-01	
   1.2210000e+01	   2.7167613e-02	  -5.7584022e-01	   7.6439022e-01	
   1.2265000e+01	   2.7470954e-02	  -5.7398987e-01	   7.5974725e-01	
   1.2320000e+01	   2.8124023e-02	  -5.7239108e-01	   7.5514058e-01	
   1.2375000e+01	   2.9079615e-02	  -5.7130369e-01	   7.5042357e-01	
   1.2430000e+01	   3.0295810e-02	  -5.7093022e-01	   7.4546641e-01	
   1.2485000e+01	   3.1743248e-02	  -5.7139218e-01	   7.4017556e-01	
   1.2540000e+01	   3.3407917e-02	  -5.7272018e-01	   7.3450352e-01	
   1.2595000e+01	   3.5288873e-02	  -5.7485915e-01	   7.2844656e-01	
   1.2650000e+01	   3.7391375e-02	  -5.7768549e-01	   7.2203128e-01	
   1.2705000e+01	   3.9717399e-02	  -5.8103020e-01	   7.1529479e-01	
   1.2760000e+01	   4.2256001e-02	  -5.8470161e-01	   7.0826523e-01	
   1.2815000e+01	   4.4975664e-02	  -5.8850323e-01	   7.0094716e-01	
   1.2870000e+01	   4.7821126e-02	  -5.9224457e-01	   6.9331431e-01	
   1.2925000e+01	   5.0717212e-02	  -5.9574413e-01	   6.8531138e-01	
   1.2980000e+01	   5.3579414e-02	  -5.9882628e-01	   6.7686476e-01	
   1.3035000e+01	   5.6327148e-02	  -6.0131734e-01	   6.6789801e-01	
   1.3090000e+01	   5.8894883e-02	  -6.0304561e-01	   6.5834702e-01	
   1.3145000e+01	   6.1239038e-02	  -6.0384626e-01	   6.4817186e-01	
   1.3200000e+01	   6.3340604e-02	  -6.0356987e-01	   6.3736439e-01	
   1.3255000e+01	   6.5203205e-02	  -6.0209395e-01	   6.2594984e-01	
   1.3310000e+01	   6.6846136e-02	  -5.9933661e-01	   6.1398116e-01	
   1.3365000e+01	   6.8293160e-02	  -5.9527045e-01	   6.0152725e-01	
   1.3420000e+01	   6.9559407e-02	  -5.8993443e-01	   5.8865740e-01	
   1.3475000e+01	   7.0639508e-02	  -5.8344391e-01	   5.7542455e-01	
   1.3530000e+01	   7.1500088e-02	  -5.7599746e-01	   5.6185149e-01	
   1.3585000e+01	   7.2078957e-02	  -5.6787576e-01	   5.4792508e-01	
   1.3640000e+01	   7.2291829e-02	  -5.5942737e-01	   5.3360254e-01	
   1.3695000e+01	   7.2045111e-02	  -5.5104283e-01	   5.1882823e-01	
   1.3750000e+01	   7.1250905e-02	  -5.4312516e-01	   5.0355501e-01	
   1.3805000e+01	   6.9839433e-02	  -5.3606449e-01	   4.8776205e-01	
   1.3860000e+01	   6.7765554e-02	  -5.3021957e-01	   4.7146372e-01	
   1.3915000e+01	   6.5008430e-02	  -5.2590528e-01	   4.5470810e-01	
   1.3970000e+01	   6.1564919e-02	  -5.2338504e-01	   4.3756645e-01	
   1.4025000e+01	   5.7438290e-02	  -5.2286868e-01	   4.2011710e-01	
   1.4080000e+01	   5.2625327e-02	  -5.2451545e-01	   4.0242908e-01	
   1.4135000e+01	   4.7105409e-02	  -5.2844058e-01	   3.8454965e-01	
   1.4190000e+01	   4.0833898e-02	  -5.3472291e-01	   3.6649677e-01	
   1.4245000e+01	   3.3741090e-02	  -5.4341014e-01	   3.4825670e-01	
   1.4300000e+01	   2.5737776e-02	  -5.5451805e-01	   3.2978750e-01	
   1.4355000e+01	   1.6726835e-02	  -5.6802292e-01	   3.1102898e-01	
   1.4410000e+01	   6.6176694e-03	  -5.8385207e-01	   2.9191677e-01	
   1.4465000e+01	  -4.6603365e-03	  -6.0187655e-01	   2.7239662e-01	
   1.4520000e+01	  -1.7147284e-02	  -6.2190655e-01	   2.5243566e-01	
   1.4575000e+01	  -3.0845652e-02	  -6.4368892e-01	   2.3202882e-01	
   1.4630000e+01	  -4.5717377e-02	  -6.6690900e-01	   2.1119859e-01	
   1.4685000e+01	  -6.1686079e-02	  -6.9119988e-01	   1.8998804e-01	
   1.4740000e+01	  -7.8643830e-02	  -7.1615951e-01	   1.6845006e-01	
   1.4795000e+01	  -9.6459736e-02	  -7.4137147e-01	   1.4663713e-01	
   1.4850000e+01	  -1.1498722e-01	  -7.6642508e-01	   1.2459412e-01	
   1.4905000e+01	  -1.3406797e-01	  -7.9093157e-01	   1.0235585e-01	
   1.4960000e+01	  -1.5353181e-01	  -8.1453400e-01	   7.9950325e-02	
   1.5015000e+01	  -1.7319315e-01	  -8.3690930e-01	   5.7407784e-02	
   1.5070000e+01	  -1.9284685e-01	  -8.5776453e-01	   3.4772753e-02	
   1.5125000e+01	  -2.1226787e-01	  -8.7683299e-01	   1.2114127e-02	
   1.5180000e+01	  -2.3121715e-01	  -8.9387437e-01	  -1.0471364e-02	
   1.5235000e+01	  -2.4945261e-01	  -9.0867807e-01	  -3.2863890e-02	
   1.5290000e+01	  -2.6674200e-01	  -9.2106696e-01	  -5.4931600e-02	
   1.5345000e+01	  -2.8287582e-01	  -9.3090151e-01	  -7.6545107e-02	
   1.5400000e+01	  -2.9767990e-01	  -9.3808610e-01	  -9.7593145e-02	
   1.5455000e+01	  -3.1102634e-01	  -9.4257681e-01	  -1.1799648e-01	
   1.5510000e+01	  -3.2283940e-01	  -9.4438637e-01	  -1.3771599e-01	
   1.5565000e+01	  -3.3309328e-01	  -9.4358280e-01	  -1.5675226e-01	
   1.5620000e+01	  -3.4180225e-01	  -9.4028164e-01	  -1.7513709e-01	
   1.5675000e+01	  -3.4900740e-01	  -9.3463441e-01	  -1.9291991e-01	
   1.5730000e+01	  -3.5476512e-01	  -9.2681523e-01	  -2.1015329e-01	
   1.5785000e+01	  -3.5914105e-01	  -9.1700832e-01	  -2.2688242e-01	
   1.5840000e+01	  -3.6220946e-01	  -9.0539934e-01	  -2.4314163e-01	
   1.5895000e+01	  -3.6405552e-01	  -8.9217226e-01	  -2.5895771e-01	
   1.5950000e+01	  -3.6477838e-01	  -8.7751146e-01	  -2.7435804e-01	
   1.6005000e+01	  -3.6449403e-01	  -8.6160738e-01	  -2.8938024e-01	
   1.6060000e+01	  -3.6333702e-01	  -8.4466380e-01	  -3.0408051e-01	
   1.6115000e+01	  -3.6145972e-01	  -8.2690413e-01	  -3.1853763e-01	
   1.6170000e+01	  -3.5902772e-01	  -8.0857278e-01	  -3.3285069e-01	
   1.6225000e+01	  -3.5621024e-01	  -7.8992774e-01	  -3.4713013e-01	
   1.6280000e+01	  -3.5316653e-01	  -7.7122592e-01	  -3.6148354e-01	
   1.6335000e+01	  -3.5003206e-01	  -7.5270624e-01	  -3.7599935e-01	
   1.6390000e+01	  -3.4690870e-01	  -7.3457482e-01	  -3.9073244e-01	
   1.6445000e+01	  -3.4386102e-01	  -7.1699468e-01	  -4.0569424e-01	
   1.6500000e+01	  -3.4091922e-01	  -7.0008216e-01	  -4.2084961e-01	
   1.6555000e+01	  -3.3808766e-01	  -6.8391194e-01	  -4.3612104e-01	
   1.6610000e+01	  -3.3535681e-01	  -6.6852923e-01	  -4.5139944e-01	
   1.6665000e+01	  -3.3271559e-01	  -6.5396462e-01	  -4.6655833e-01	
   1.6720000e+01	  -3.3016286e-01	  -6.4024752e-01	  -4.8146965e-01	
   1.6775000e+01	  -3.2771598e-01	  -6.2741571e-01	  -4.9601927e-01	
   1.6830000e+01	  -3.2541349e-01	  -6.1551941e-01	  -5.1011928e-01	
   1.6885000e+01	  -3.2330993e-01	  -6.0461797e-01	  -5.2371313e-01	
   1.6940000e+01	  -3.2146436e-01	  -5.9477007e-01	  -5.3677325e-01	
   1.6995000e+01	  -3.1992760e-01	  -5.8602043e-01	  -5.4929378e-01	
   1.7050000e+01	  -3.1873222e-01	  -5.7838613e-01	  -5.6128157e-01	
   1.7105000e+01	  -3.1788717e-01	  -5.7184448e-01	  -5.7274784e-01	
   1.7160000e+01	  -3.1737738e-01	  -5.6632652e-01	  -5.8370325e-01	
   1.7215000e+01	  -3.1716799e-01	  -5.6171975e-01	  -5.9415843e-01	
   1.7270000e+01	  -3.1721270e-01	  -5.5788084e-01	  -6.0412956e-01	
   1.7325000e+01	  -3.1746415e-01	  -5.5465411e-01	  -6.1364671e-01	
   1.7380000e+01	  -3.1788416e-01	  -5.5188892e-01	  -6.2276094e-01	
   1.7435000e+01	  -3.1845091e-01	  -5.4945003e-01	  -6.3154649e-01	
   1.7490000e+01	  -3.1916117e-01	  -5.4721867e-01	  -6.4009610e-01	
   1.7545000e+01	  -3.2002593e-01	  -5.4508452e-01	  -6.4850978e-01	
   1.7600000e+01	  -3.2106036e-01	  -5.4293126e-01	  -6.5687822e-01	
   1.7655000e+01	  -3.2227180e-01	  -5.4062075e-01	  -6.6526391e-01	
   1.7710000e+01	  -3.2364979e-01	  -5.3798226e-01	  -6.7368556e-01	
   1.7765000e+01	  -3.2516056e-01	  -5.3481175e-01	  -6.8211073e-01	
   1.7820000e+01	  -3.2674598e-01	  -5.3088235e-01	  -6.9045753e-01	
   1.7875000e+01	  -3.2832711e-01	  -5.2596334e-01	  -6.9860340e-01	
   1.7930000e+01	  -3.2981212e-01	  -5.1984283e-01	  -7.0639851e-01	
   1.7985000e+01	  -3.3110725e-01	  -5.1234889e-01	  -7.1368107e-01	
   1.8040000e+01	  -3.3212726e-01	  -5.0336575e-01	  -7.2029081e-01	
   1.8095000e+01	  -3.3280187e-01	  -4.9284242e-01	  -7.2607809e-01	
   1.8150000e+01	  -3.3307591e-01	  -4.8079211e-01	  -7.3090802e-01	
   1.8205000e+01	  -3.3290392e-01	  -4.6728338e-01	  -7.3466053e-01	
   1.8260000e+01	  -3.3224245e-01	  -4.5242651e-01	  -7.3722804e-01	
   1.8315000e+01	  -3.3104409e-01	  -4.3635921e-01	  -7.3851367e-01	
   1.8370000e+01	  -3.2925562e-01	  -4.1923458e-01	  -7.3843156e-01	
   1.8425000e+01	  -3.2682084e-01	  -4.0121234e-01	  -7.3691044e-01	
   1.8480000e+01	  -3.2368772e-01	  -3.8245388e-01	  -7.3390023e-01	
   1.8535000e+01	  -3.1981778e-01	  -3.6312034e-01	  -7.2938163e-01	
   1.8590000e+01	  -3.1519517e-01	  -3.4337228e-01	  -7.2337677e-01	
   1.8645000e+01	  -3.0983293e-01	  -3.2336768e-01	  -7.1595840e-01	
   1.8700000e+01	  -3.0377466e-01	  -3.0325605e-01	  -7.0725289e-01	
   1.8755000e+01	  -2.9709084e-01	  -2.8316930e-01	  -6.9743321e-01	
   1.8810000e+01	  -2.8987086e-01	  -2.6321300e-01	  -6.8670187e-01	
   1.8865000e+01	  -2.8221360e-01	  -2.4346164e-01	  -6.7526899e-01	
   1.8920000e+01	  -2.7422009e-01	  -2.2395930e-01	  -6.6333229e-01	
   1.8975000e+01	  -2.6598914e-01	  -2.0472337e-01	  -6.5106386e-01	
   1.9030000e+01	  -2.5761553e-01	  -1.8574941e-01	  -6.3860460e-01	
   1.9085000e+01	  -2.4918991e-01	  -1.6701760e-01	  -6.2606527e-01	
   1.9140000e+01	  -2.4080022e-01	  -1.4850242e-01	  -6.1353124e-01	
   1.9195000e+01	  -2.3253303e-01	  -1.3018457e-01	  -6.0106703e-01	
   1.9250000e+01	  -2.2447332e-01	  -1.1206227e-01	  -5.8871848e-01	
   1.9305000e+01	  -2.1670137e-01	  -9.4158424e-02	  -5.7651246e-01	
   1.9360000e+01	  -2.0928635e-01	  -7.6520707e-02	  -5.6445420e-01	
   1.9415000e+01	  -2.0227712e-01	  -5.9214196e-02	  -5.5252241e-01	
   1.9470000e+01	  -1.9569285e-01	  -4.2310156e-02	  -5.4066378e-01	
   1.9525000e+01	  -1.8951726e-01	  -2.5876732e-02	  -5.2878974e-01	
   1.9580000e+01	  -1.8369833e-01	  -9.9748611e-03	  -5.1677770e-01	
   1.9635000e+01	  -1.7815292e-01	   5.3415630e-03	  -5.0447736e-01	
   1.9690000e+01	  -1.7277532e-01	   2.0023752e-02	  -4.9172309e-01	
   1.9745000e+01	  -1.6744937e-01	   3.4024906e-02	  -4.7835283e-01	
   1.9800000e+01	  -1.6206269e-01	   4.7295326e-02	  -4.6423114e-01	
   1.9855000e+01	  -1.5652040e-01	   5.9776602e-02	  -4.4927030e-01	
   1.9910000e+01	  -1.5075488e-01	   7.1398375e-02	  -4.3344310e-01	
   1.9965000e+01	  -1.4472925e-01	   8.2081748e-02	  -4.1678352e-01	
   2.0020000e+01	  -1.3843434e-01	   9.1750870e-02	  -3.9937557e-01	
   2.0075000e+01	  -1.3188150e-01	   1.0035028e-01	  -3.8133483e-01	
   2.0130000e+01	  -1.2509380e-01	   1.0786286e-01	  -3.6278931e-01	
   2.0185000e+01	  -1.1809747e-01	   1.1432269e-01	  -3.4386501e-01	
   2.0240000e+01	  -1.1091563e-01	   1.1981846e-01	  -3.2467912e-01	
   2.0295000e+01	  -1.0356711e-01	   1.2448589e-01	  -3.0534065e-01	
   2.0350000e+01	  -9.6070878e-02	   1.2849060e-01	  -2.8595610e-01	
   2.0405000e+01	  -8.8453944e-02	   1.3200513e-01	  -2.6663743e-01	
   2.0460000e+01	  -8.0759877e-02	   1.3518533e-01	  -2.4751106e-01	
   2.0515000e+01	  -7.3055151e-02	   1.3815227e-01	  -2.2872579e-01	
   2.0570000e+01	  -6.5430494e-02	   1.4098408e-01	  -2.1045514e-01	
   2.0625000e+01	  -5.7995422e-02	   1.4371916e-01	  -1.9289048e-01	
   2.0680000e+01	  -5.0867009e-02	   1.4636886e-01	  -1.7622543e-01	
   2.0735000e+01	  -4.4156431e-02	   1.4893504e-01	  -1.6063586e-01	
   2.0790000e+01	  -3.7957163e-02	   1.5142734e-01	  -1.4626115e-01	
   2.0845000e+01	  -3.2337402e-02	   1.5387619e-01	  -1.3319056e-01	
   2.0900000e+01	  -2.7337761e-02	   1.5633842e-01	  -1.2145779e-01	
   2.0955000e+01	  -2.2974221e-02	   1.5889428e-01	  -1.1104447e-01	
   2.1010000e+01	  -1.9245592e-02	   1.6163678e-01	  -1.0189137e-01	
   2.1065000e+01	  -1.6144124e-02	   1.6465485e-01	  -9.3914872e-02	
   2.1120000e+01	  -1.3667078e-02	   1.6801384e-01	  -8.7026346e-02	
   2.1175000e+01	  -1.1826293e-02	   1.7173861e-01	  -8.1151258e-02	
   2.1230000e+01	  -1.0652767e-02	   1.7580411e-01	  -7.6244076e-02	
   2.1285000e+01	  -1.0194355e-02	   1.8013594e-01	  -7.2294614e-02	
   2.1340000e+01	  -1.0506568e-02	   1.8462173e-01	  -6.9323855e-02	
   2.1395000e+01	  -1.1638855e-02	   1.8913034e-01	  -6.7370857e-02	
   2.1450000e+01	  -1.3620567e-02	   1.9353306e-01	  -6.6475170e-02	
   2.1505000e+01	  -1.6450527e-02	   1.9772128e-01	  -6.6659775e-02	
   2.1560000e+01	  -2.0092303e-02	   2.0161714e-01	  -6.7918598e-02	
   2.1615000e+01	  -2.4475361e-02	   2.0517584e-01	  -7.0211383e-02	
   2.1670000e+01	  -2.9500821e-02	   2.0837968e-01	  -7.3466644e-02	
   2.1725000e+01	  -3.5049680e-02	   2.1122726e-01	  -7.7590692e-02	
   2.1780000e+01	  -4.0991987e-02	   2.1372345e-01	  -8.2479409e-02	
   2.1835000e+01	  -4.7196544e-02	   2.1587416e-01	  -8.8030459e-02	
   2.1890000e+01	  -5.3540403e-02	   2.1768705e-01	  -9.4154528e-02	
   2.1945000e+01	  -5.9915620e-02	   2.1917825e-01	  -1.0078272e-01	
   2.2000000e+01	  -6.6231048e-02	   2.2038434e-01	  -1.0786646e-01	
   2.2055000e+01	  -7.2409953e-02	   2.2137494e-01	  -1.1536971e-01	
   2.2110000e+01	  -7.8386586e-02	   2.2225973e-01	  -1.2325840e-01	
   2.2165000e+01	  -8.4104002e-02	   2.2318625e-01	  -1.3149229e-01	
   2.2220000e+01	  -8.9513599e-02	   2.2432959e-01	  -1.4002218e-01	
   2.2275000e+01	  -9.4576315e-02	   2.2587647e-01	  -1.4879289e-01	
   2.2330000e+01	  -9.9265700e-02	   2.2800602e-01	  -1.5775095e-01	
   2.2385000e+01	  -1.0357282e-01	   2.3086842e-01	  -1.6685503e-01	
   2.2440000e+01	  -1.0751219e-01	   2.3456407e-01	  -1.7608670e-01	
   2.2495000e+01	  -1.1112716e-01	   2.3912760e-01	  -1.8545962e-01	
   2.2550000e+01	  -1.1449223e-01	   2.4452069e-01	  -1.9502414e-01	
   2.2605000e+01	  -1.1770995e-01	   2.5063503e-01	  -2.0486426e-01	
   2.2660000e+01	  -1.2090105e-01	   2.5730588e-01	  -2.1508564e-01	
   2.2715000e+01	  -1.2418953e-01	   2.6433335e-01	  -2.2579621e-01	
   2.2770000e+01	  -1.2768636e-01	   2.7150569e-01	  -2.3708469e-01	
   2.2825000e+01	  -1.3147603e-01	   2.7861991e-01	  -2.4900394e-01	
   2.2880000e+01	  -1.3560789e-01	   2.8549821e-01	  -2.6156298e-01	
   2.2935000e+01	  -1.4009273e-01	   2.9200065e-01	  -2.7472717e-01	
   2.2990000e+01	  -1.4490487e-01	   2.9803313e-01	  -2.8842387e-01	
   2.3045000e+01	  -1.4998901e-01	   3.0355075e-01	  -3.0255114e-01	
   2.3100000e+01	  -1.5527025e-01	   3.0855671e-01	  -3.1698651e-01	
   2.3155000e+01	  -1.6066396e-01	   3.1309799e-01	  -3.3159387e-01	
   2.3210000e+01	  -1.6608306e-01	   3.1726029e-01	  -3.4622716e-01	
   2.3265000e+01	  -1.7144082e-01	   3.2116512e-01	  -3.6073044e-01	
   2.3320000e+01	  -1.7664903e-01	   3.2496941e-01	  -3.7493462e-01	
   2.3375000e+01	  -1.8161377e-01	   3.2886435e-01	  -3.8865343e-01	
   2.3430000e+01	  -1.8623270e-01	   3.3306930e-01	  -4.0168271e-01	
   2.3485000e+01	  -1.9039581e-01	   3.3781989e-01	  -4.1380479e-01	
   2.3540000e+01	  -1.9398957e-01	   3.4335177e-01	  -4.2479762e-01	
   2.3595000e+01	  -1.9690334e-01	   3.4988317e-01	  -4.3444762e-01	
   2.3650000e+01	  -1.9903743e-01	   3.5759856e-01	  -4.4256501e-01	
   2.3705000e+01	  -2.0031174e-01	   3.6663570e-01	  -4.4899934e-01	
   2.3760000e+01	  -2.0067285e-01	   3.7707737e-01	  -4.5365231e-01	
   2.3815000e+01	  -2.0009702e-01	   3.8894938e-01	  -4.5648487e-01	
   2.3870000e+01	  -1.9858757e-01	   4.0222627e-01	  -4.5751637e-01	
   2.3925000e+01	  -1.9616728e-01	   4.1684375e-01	  -4.5681577e-01	
   2.3980000e+01	  -1.9286925e-01	   4.3271256e-01	  -4.5448796e-01	
   2.4035000e+01	  -1.8872981e-01	   4.4972796e-01	  -4.5065939e-01	
   2.4090000e+01	  -1.8378491e-01	   4.6777292e-01	  -4.4546671e-01	
   2.4145000e+01	  -1.7806992e-01	   4.8671690e-01	  -4.3905048e-01	
   2.4200000e+01	  -1.7162251e-01	   5.0641289e-01	  -4.3155516e-01	
   2.4255000e+01	  -1.6448771e-01	   5.2669494e-01	  -4.2313407e-01	
   2.4310000e+01	  -1.5672357e-01	   5.4737818e-01	  -4.1395496e-01	
   2.4365000e+01	  -1.4840569e-01	   5.6826234e-01	  -4.0420230e-01	
   2.4420000e+01	  -1.3962953e-01	   5.8913861e-01	  -3.9407504e-01	
   2.4475000e+01	  -1.3050865e-01	   6.0980021e-01	  -3.8377940e-01	
   2.4530000e+01	  -1.2116806e-01	   6.3005599e-01	  -3.7351608e-01	
   2.4585000e+01	  -1.1173381e-01	   6.4974433e-01	  -3.6346457e-01	
   2.4640000e+01	  -1.0232223e-01	   6.6874355e-01	  -3.5377063e-01	
   2.4695000e+01	  -9.3031413e-02	   6.8697819e-01	  -3.4454122e-01	
   2.4750000e+01	  -8.3936602e-02	   7.0442152e-01	  -3.3584692e-01	
   2.4805000e+01	  -7.5090665e-02	   7.2109332e-01	  -3.2772971e-01	
   2.4860000e+01	  -6.6530434e-02	   7.3705109e-01	  -3.2021423e-01	
   2.4915000e+01	  -5.8287497e-02	   7.5237507e-01	  -3.1332108e-01	
   2.4970000e+01	  -5.0399780e-02	   7.6714978e-01	  -3.0707961e-01	
   2.5025000e+01	  -4.2919891e-02	   7.8144726e-01	  -3.0153789e-01	
   2.5080000e+01	  -3.5917304e-02	   7.9531716e-01	  -2.9676735e-01	
   2.5135000e+01	  -2.9473223e-02	   8.0878697e-01	  -2.9285995e-01	
   2.5190000e+01	  -2.3669825e-02	   8.2187074e-01	  -2.8991706e-01	
   2.5245000e+01	  -1.8577884e-02	   8.3458110e-01	  -2.8803295e-01	
   2.5300000e+01	  -1.4246865e-02	   8.4693992e-01	  -2.8727803e-01	
   2.5355000e+01	  -1.0699689e-02	   8.5898574e-01	  -2.8768643e-01	
   2.5410000e+01	  -7.9325188e-03	   8.7077649e-01	  -2.8925053e-01	
   2.5465000e+01	  -5.9191393e-03	   8.8238567e-01	  -2.9192341e-01	
   2.5520000e+01	  -4.6194551e-03	   8.9389153e-01	  -2.9562971e-01	
   2.5575000e+01	  -3.9906026e-03	   9.0536155e-01	  -3.0028268e-01	
   2.5630000e+01	  -3.9972670e-03	   9.1683698e-01	  -3.0580158e-01	
   2.5685000e+01	  -4.6171507e-03	   9.2832329e-01	  -3.1212280e-01	
   2.5740000e+01	  -5.8395365e-03	   9.3979084e-01	  -3.1920162e-01	
   2.5795000e+01	  -7.6579121e-03	   9.5118656e-01	  -3.2700518e-01	
   2.5850000e+01	  -1.0059725e-02	   9.6245361e-01	  -3.3549940e-01	
   2.5905000e+01	  -1.3016902e-02	   9.7355392e-01	  -3.4463415e-01	
   2.5960000e+01	  -1.6479882e-02	   9.8448766e-01	  -3.5433122e-01	
   2.6015000e+01	  -2.0376260e-02	   9.9530440e-01	  -3.6447838e-01	
   2.6070000e+01	  -2.4613742e-02	   1.0061035e+00	  -3.7493024e-01	
   2.6125000e+01	  -2.9086498e-02	   1.0170240e+00	  -3.8551489e-01	
   2.6180000e+01	  -3.3684099e-02	   1.0282246e+00	  -3.9604622e-01	
   2.6235000e+01	  -3.8302402e-02	   1.0398577e+00	  -4.0634176e-01	
   2.6290000e+01	  -4.2855110e-02	   1.0520388e+00	  -4.1624325e-01	
   2.6345000e+01	  -4.7283502e-02	   1.0648226e+00	  -4.2563347e-01	
   2.6400000e+01	  -5.1561327e-02	   1.0781903e+00	  -4.3444339e-01	
   2.6455000e+01	  -5.5693190e-02	   1.0920534e+00	  -4.4264775e-01	
   2.6510000e+01	  -5.9707403e-02	   1.1062686e+00	  -4.5025184e-01	
   2.6565000e+01	  -6.3645880e-02	   1.1206606e+00	  -4.5727449e-01	
   2.6620000e+01	  -6.7553426e-02	   1.1350440e+00	  -4.6373257e-01	
   2.6675000e+01	  -7.1467993e-02	   1.1492446e+00	  -4.6963064e-01	
   2.6730000e+01	  -7.5413692e-02	   1.1631145e+00	  -4.7495757e-01	
   2.6785000e+01	  -7.9398109e-02	   1.1765398e+00	  -4.7968970e-01	
   2.6840000e+01	  -8.3413746e-02	   1.1894415e+00	  -4.8379825e-01	
   2.6895000e+01	  -8.7441628e-02	   1.2017711e+00	  -4.8725825e-01	
   2.6950000e+01	  -9.1454720e-02	   1.2135036e+00	  -4.9005598e-01	
   2.7005000e+01	  -9.5418894e-02	   1.2246315e+00	  -4.9219221e-01	
   2.7060000e+01	  -9.9289679e-02	   1.2351643e+00	  -4.9367814e-01	
   2.7115000e+01	  -1.0300524e-01	   1.2451325e+00	  -4.9452435e-01	
   2.7170000e+01	  -1.0647933e-01	   1.2545932e+00	  -4.9472777e-01	
   2.7225000e+01	  -1.0959876e-01	   1.2636326e+00	  -4.9426395e-01	
   2.7280000e+01	  -1.1222700e-01	   1.2723639e+00	  -4.9308741e-01	
   2.7335000e+01	  -1.1421337e-01	   1.2809228e+00	  -4.9113857e-01	
   2.7390000e+01	  -1.1540600e-01	   1.2894606e+00	  -4.8835487e-01	
   2.7445000e+01	  -1.1566687e-01	   1.2981328e+00	  -4.8468441e-01	
   2.7500000e+01	  -1.1488640e-01	   1.3070833e+00	  -4.8009956e-01	
   2.7555000e+01	  -1.1299537e-01	   1.3164260e+00	  -4.7460718e-01	
   2.7610000e+01	  -1.0997217e-01	   1.3262290e+00	  -4.6825336e-01	
   2.7665000e+01	  -1.0584310e-01	   1.3365063e+00	  -4.6112046e-01	
   2.7720000e+01	  -1.0067484e-01	   1.3472220e+00	  -4.5331485e-01	
   2.7775000e+01	  -9.4561638e-02	   1.3583050e+00	  -4.4494844e-01	
   2.7830000e+01	  -8.7612261e-02	   1.3696688e+00	  -4.3612100e-01	
   2.7885000e+01	  -7.9940922e-02	   1.3812271e+00	  -4.2690895e-01	
   2.7940000e+01	  -7.1663032e-02	   1.3929045e+00	  -4.1736157e-01	
   2.7995000e+01	  -6.2894784e-02	   1.4046385e+00	  -4.0750444e-01	
   2.8050000e+01	  -5.3755107e-02	   1.4163790e+00	  -3.9734967e-01	
   2.8105000e+01	  -4.4368650e-02	   1.4280831e+00	  -3.8691103e-01	
   2.8160000e+01	  -3.4868240e-02	   1.4397131e+00	  -3.7621985e-01	
   2.8215000e+01	  -2.5394999e-02	   1.4512350e+00	  -3.6533755e-01	
   2.8270000e+01	  -1.6094542e-02	   1.4626225e+00	  -3.5436149e-01	
   2.8325000e+01	  -7.1083875e-03	   1.4738640e+00	  -3.4342171e-01	
   2.8380000e+01	   1.4386010e-03	   1.4849728e+00	  -3.3266894e-01	
   2.8435000e+01	   9.4518873e-03	   1.4959941e+00	  -3.2225690e-01	
   2.8490000e+01	   1.6878172e-02	   1.5070090e+00	  -3.1232354e-01	
   2.8545000e+01	   2.3710454e-02	   1.5181295e+00	  -3.0297516e-01	
   2.8600000e+01	   2.9986308e-02	   1.5294888e+00	  -2.9427542e-01	
   2.8655000e+01	   3.5780309e-02	   1.5412257e+00	  -2.8624013e-01	
   2.8710000e+01	   4.1191898e-02	   1.5534697e+00	  -2.7883969e-01	
   2.8765000e+01	   4.6329713e-02	   1.5663252e+00	  -2.7201092e-01	
   2.8820000e+01	   5.1294491e-02	   1.5798582e+00	  -2.6567587e-01	
   2.8875000e+01	   5.6164317e-02	   1.5940850e+00	  -2.5976075e-01	
   2.8930000e+01	   6.0986150e-02	   1.6089681e+00	  -2.5420879e-01	
   2.8985000e+01	   6.5775725e-02	   1.6244208e+00	  -2.4898469e-01	
   2.9040000e+01	   7.0524902e-02	   1.6403206e+00	  -2.4407152e-01	
   2.9095000e+01	   7.5213112e-02	   1.6565276e+00	  -2.3946318e-01	
   2.9150000e+01	   7.9818984e-02	   1.6729029e+00	  -2.3515654e-01	
   2.9205000e+01	   8.4329216e-02	   1.6893220e+00	  -2.3114751e-01	
   2.9260000e+01	   8.8742699e-02	   1.7056823e+00	  -2.2743260e-01	
   2.9315000e+01	   9.3068694e-02	   1.7219059e+00	  -2.2401429e-01	
   2.9370000e+01	   9.7319383e-02	   1.7379369e+00	  -2.2090795e-01	
   2.9425000e+01	   1.0149879e-01	   1.7537332e+00	  -2.1814872e-01	
   2.9480000e+01	   1.0559080e-01	   1.7692576e+00	  -2.1579797e-01	
   2.9535000e+01	   1.0954900e-01	   1.7844678e+00	  -2.1394775e-01	
   2.9590000e+01	   1.1329115e-01	   1.7993105e+00	  -2.1272078e-01	
   2.9645000e+01	   1.1670026e-01	   1.8137185e+00	  -2.1226392e-01	
   2.9700000e+01	   1.1963229e-01	   1.8276147e+00	  -2.1273542e-01	
   2.9755000e+01	   1.2192849e-01	   1.8409209e+00	  -2.1428852e-01	
   2.9810000e+01	   1.2342910e-01	   1.8535660e+00	  -2.1705531e-01	
   2.9865000e+01	   1.2398533e-01	   1.8654931e+00	  -2.2113435e-01	
   2.9920000e+01	   1.2346785e-01	   1.8766604e+00	  -2.2658377e-01	
   2.9975000e+01	   1.2177197e-01	   1.8870424e+00	  -2.3341869e-01	
   3.0030000e+01	   1.1882031e-01	   1.8966281e+00	  -2.4161121e-01	
   3.0085000e+01	   1.1456315e-01	   1.9054195e+00	  -2.5109253e-01	
   3.0140000e+01	   1.0897576e-01	   1.9134271e+00	  -2.6175839e-01	
   3.0195000e+01	   1.0205287e-01	   1.9206628e+00	  -2.7347852e-01	
   3.0250000e+01	   9.3802870e-02	   1.9271327e+00	  -2.8610784e-01	
   3.0305000e+01	   8.4245282e-02	   1.9328337e+00	  -2.9949494e-01	
   3.0360000e+01	   7.3413694e-02	   1.9377571e+00	  -3.1348544e-01	
   3.0415000e+01	   6.1362135e-02	   1.9418982e+00	  -3.2792161e-01	
   3.0470000e+01	   4.8171500e-02	   1.9452691e+00	  -3.4264129e-01	
   3.0525000e+01	   3.3953942e-02	   1.9479110e+00	  -3.5747819e-01	
   3.0580000e+01	   1.8854961e-02	   1.9499038e+00	  -3.7226425e-01	
   3.0635000e+01	   3.0528108e-03	   1.9513708e+00	  -3.8683347e-01	
   3.0690000e+01	  -1.3245829e-02	   1.9524748e+00	  -4.0102628e-01	
   3.0745000e+01	  -2.9814630e-02	   1.9534072e+00	  -4.1469355e-01	
   3.0800000e+01	  -4.6420038e-02	   1.9543706e+00	  -4.2770092e-01	
   3.0855000e+01	  -6.2834897e-02	   1.9555604e+00	  -4.3993331e-01	
   3.0910000e+01	  -7.8849928e-02	   1.9571482e+00	  -4.5129714e-01	
   3.0965000e+01	  -9.4279939e-02	   1.9592734e+00	  -4.6171728e-01	
   3.1020000e+01	  -1.0896322e-01	   1.9620434e+00	  -4.7112796e-01	
   3.1075000e+01	  -1.2275598e-01	   1.9655381e+00	  -4.7946146e-01	
   3.1130000e+01	  -1.3552574e-01	   1.9698166e+00	  -4.8664011e-01	
   3.1185000e+01	  -1.4714677e-01	   1.9749223e+00	  -4.9257378e-01	
   3.1240000e+01	  -1.5749823e-01	   1.9808866e+00	  -4.9716233e-01	
   3.1295000e+01	  -1.6646575e-01	   1.9877300e+00	  -5.0030267e-01	
   3.1350000e+01	  -1.7394689e-01	   1.9954591e+00	  -5.0190076e-01	
   3.1405000e+01	  -1.7985989e-01	   2.0040600e+00	  -5.0188718e-01	
   3.1460000e+01	  -1.8415448e-01	   2.0134928e+00	  -5.0023367e-01	
   3.1515000e+01	  -1.8682244e-01	   2.0236869e+00	  -4.9696745e-01	
   3.1570000e+01	  -1.8790445e-01	   2.0345421e+00	  -4.9217877e-01	
   3.1625000e+01	  -1.8748945e-01	   2.0459375e+00	  -4.8601793e-01	
   3.1680000e+01	  -1.8570550e-01	   2.0577466e+00	  -4.7868169e-01	
   3.1735000e+01	  -1.8270484e-01	   2.0698559e+00	  -4.7039274e-01	
   3.1790000e+01	  -1.7864771e-01	   2.0821807e+00	  -4.6137735e-01	
   3.1845000e+01	  -1.7368833e-01	   2.0946759e+00	  -4.5184694e-01	
   3.1900000e+01	  -1.6796521e-01	   2.1073410e+00	  -4.4198726e-01	
   3.1955000e+01	  -1.6159660e-01	   2.1202200e+00	  -4.3195566e-01	
   3.2010000e+01	  -1.5468137e-01	   2.1333938e+00	  -4.2188401e-01	
   3.2065000e+01	  -1.4730416e-01	   2.1469675e+00	  -4.1188460e-01	
   3.2120000e+01	  -1.3954245e-01	   2.1610536e+00	  -4.0205694e-01	
   3.2175000e+01	  -1.3147345e-01	   2.1757533e+00	  -3.9249345e-01	
   3.2230000e+01	  -1.2317896e-01	   2.1911413e+00	  -3.8328236e-01	
   3.2285000e+01	  -1.1474620e-01	   2.2072573e+00	  -3.7450527e-01	
   3.2340000e+01	  -1.0626239e-01	   2.2241102e+00	  -3.6622739e-01	
   3.2395000e+01	  -9.7803518e-02	   2.2416916e+00	  -3.5848271e-01	
   3.2450000e+01	  -8.9422302e-02	   2.2599923e+00	  -3.5126019e-01	
   3.2505000e+01	  -8.1140241e-02	   2.2790139e+00	  -3.4449671e-01	
   3.2560000e+01	  -7.2945645e-02	   2.2987728e+00	  -3.3807873e-01	
   3.2615000e+01	  -6.4796874e-02	   2.3192983e+00	  -3.3185228e-01	
   3.2670000e+01	  -5.6629885e-02	   2.3406259e+00	  -3.2564022e-01	
   3.2725000e+01	  -4.8369082e-02	   2.3627885e+00	  -3.1926469e-01	
   3.2780000e+01	  -3.9940038e-02	   2.3858070e+00	  -3.1257109e-01	
   3.2835000e+01	  -3.1282287e-02	   2.4096818e+00	  -3.0545005e-01	
   3.2890000e+01	  -2.2360094e-02	   2.4343856e+00	  -2.9785390e-01	
   3.2945000e+01	  -1.3168880e-02	   2.4598586e+00	  -2.8980374e-01	
   3.3000000e+01	  -3.7353699e-03	   2.4860116e+00	  -2.8138380e-01	
   3.3055000e+01	   5.8887052e-03	   2.5127323e+00	  -2.7272404e-01	
   3.3110000e+01	   1.5636529e-02	   2.5398946e+00	  -2.6397768e-01	
   3.3165000e+01	   2.5435695e-02	   2.5673643e+00	  -2.5530123e-01	
   3.3220000e+01	   3.5214945e-02	   2.5950029e+00	  -2.4684095e-01	
   3.3275000e+01	   4.4908161e-02	   2.6226684e+00	  -2.3872534e-01	
   3.3330000e+01	   5.4456064e-02	   2.6502138e+00	  -2.3106251e-01	
   3.3385000e+01	   6.3805655e-02	   2.6774838e+00	  -2.2394096e-01	
   3.3440000e+01	   7.2907976e-02	   2.7043093e+00	  -2.1743241e-01	
   3.3495000e+01	   8.1716089e-02	   2.7305042e+00	  -2.1159525e-01	
   3.3550000e+01	   9.0185452e-02	   2.7558677e+00	  -2.0647713e-01	
   3.3605000e+01	   9.8278193e-02	   2.7801972e+00	  -2.0211390e-01	
   3.3660000e+01	   1.0597105e-01	   2.8033071e+00	  -1.9852213e-01	
   3.3715000e+01	   1.1326470e-01	   2.8250525e+00	  -1.9568590e-01	
   3.3770000e+01	   1.2019101e-01	   2.8453495e+00	  -1.9354357e-01	
   3.3825000e+01	   1.2681524e-01	   2.8641854e+00	  -1.9198097e-01	
   3.3880000e+01	   1.3323280e-01	   2.8816180e+00	  -1.9083265e-01	
   3.3935000e+01	   1.3956204e-01	   2.8977647e+00	  -1.8988954e-01	
   3.3990000e+01	   1.4593471e-01	   2.9127848e+00	  -1.8891164e-01	
   3.4045000e+01	   1.5248534e-01	   2.9268586e+00	  -1.8764448e-01	
   3.4100000e+01	   1.5934132e-01	   2.9401682e+00	  -1.8583686e-01	
   3.4155000e+01	   1.6661622e-01	   2.9528830e+00	  -1.8325524e-01	
   3.4210000e+01	   1.7440750e-01	   2.9651530e+00	  -1.7969231e-01	
   3.4265000e+01	   1.8279761e-01	   2.9771096e+00	  -1.7497001e-01	
   3.4320000e+01	   1.9185617e-01	   2.9888676e+00	  -1.6893958e-01	
   3.4375000e+01	   2.0164156e-01	   3.0005290e+00	  -1.6148048e-01	
   3.4430000e+01	   2.1220120e-01	   3.0121876e+00	  -1.5249875e-01	
   3.4485000e+01	   2.2357052e-01	   3.0239344e+00	  -1.4192596e-01	
   3.4540000e+01	   2.3577040e-01	   3.0358619e+00	  -1.2972021e-01	
   3.4595000e+01	   2.4880357e-01	   3.0480636e+00	  -1.1586988e-01	
   3.4650000e+01	   2.6265152e-01	   3.0606320e+00	  -1.0039908e-01	
   3.4705000e+01	   2.7727362e-01	   3.0736553e+00	  -8.3372265e-02	
   3.4760000e+01	   2.9260951e-01	   3.0872162e+00	  -6.4895106e-02	
   3.4815000e+01	   3.0858567e-01	   3.1013925e+00	  -4.5108506e-02	
   3.4870000e+01	   3.2512534e-01	   3.1162623e+00	  -2.4175899e-02	
   3.4925000e+01	   3.4215956e-01	   3.1319089e+00	  -2.2681747e-03	
   3.4980000e+01	   3.5963551e-01	   3.1484235e+00	   2.0447677e-02	
   3.5035000e+01	   3.7752016e-01	   3.1658998e+00	   4.3813696e-02	
   3.5090000e+01	   3.9579961e-01	   3.1844238e+00	   6.7681715e-02	
   3.5145000e+01	   4.1447523e-01	   3.2040627e+00	   9.1911892e-02	
   3.5200000e+01	   4.3355749e-01	   3.2248538e+00	   1.1636912e-01	
   3.5255000e+01	   4.5305828e-01	   3.2467960e+00	   1.4091742e-01	
   3.5310000e+01	   4.7298329e-01	   3.2698436e+00	   1.6541431e-01	
   3.5365000e+01	   4.9332690e-01	   3.2939032e+00	   1.8970792e-01	
   3.5420000e+01	   5.1407133e-01	   3.3188369e+00	   2.1363816e-01	
   3.5475000e+01	   5.3519023e-01	   3.3444711e+00	   2.3704227e-01	
   3.5530000e+01	   5.5665487e-01	   3.3706102e+00	   2.5976336e-01	
   3.5585000e+01	   5.7844015e-01	   3.3970538e+00	   2.8165898e-01	
   3.5640000e+01	   6.0052814e-01	   3.4236140e+00	   3.0260610e-01	
   3.5695000e+01	   6.2290813e-01	   3.4501299e+00	   3.2250144e-01	
   3.5750000e+01	   6.4557299e-01	   3.4764767e+00	   3.4125849e-01	
   3.5805000e+01	   6.6851272e-01	   3.5025642e+00	   3.5880233e-01	
   3.5860000e+01	   6.9170552e-01	   3.5283265e+00	   3.7506248e-01	
   3.5915000e+01	   7.1510742e-01	   3.5537074e+00	   3.8996515e-01	
   3.5970000e+01	   7.3864311e-01	   3.5786477e+00	   4.0342721e-01	
   3.6025000e+01	   7.6220150e-01	   3.6030799e+00	   4.1535560e-01	
   3.6080000e+01	   7.8563863e-01	   3.6269316e+00	   4.2565426e-01	
   3.6135000e+01	   8.0878741e-01	   3.6501367e+00	   4.3423793e-01	
   3.6190000e+01	   8.3147159e-01	   3.6726469e+00	   4.4104874e-01	
   3.6245000e+01	   8.5352023e-01	   3.6944416e+00	   4.4607043e-01	
   3.6300000e+01	   8.7477944e-01	   3.7155304e+00	   4.4933533e-01	
   3.6355000e+01	   8.9511863e-01	   3.7359492e+00	   4.5092151e-01	
   3.6410000e+01	   9.1443064e-01	   3.7557493e+00	   4.5094099e-01	
   3.6465000e+01	   9.3262721e-01	   3.7749829e+00	   4.4952438e-01	
   3.6520000e+01	   9.4963190e-01	   3.7936872e+00	   4.4680704e-01	
   3.6575000e+01	   9.6537291e-01	   3.8118712e+00	   4.4291930e-01	
   3.6630000e+01	   9.7977800e-01	   3.8295062e+00	   4.3798165e-01	
   3.6685000e+01	   9.9277373e-01	   3.8465242e+00	   4.3210577e-01	
   3.6740000e+01	   1.0042903e+00	   3.8628257e+00	   4.2540211e-01	
   3.6795000e+01	   1.0142705e+00	   3.8782946e+00	   4.1799241e-01	
   3.6850000e+01	   1.0226803e+00	   3.8928175e+00	   4.1002268e-01	
   3.6905000e+01	   1.0295163e+00	   3.9063012e+00	   4.0167196e-01	
   3.6960000e+01	   1.0348099e+00	   3.9186859e+00	   3.9315376e-01	
   3.7015000e+01	   1.0386279e+00	   3.9299508e+00	   3.8470898e-01	
   3.7070000e+01	   1.0410678e+00	   3.9401129e+00	   3.7659174e-01	
   3.7125000e+01	   1.0422506e+00	   3.9492212e+00	   3.6905129e-01	
   3.7180000e+01	   1.0423102e+00	   3.9573478e+00	   3.6231357e-01	
   3.7235000e+01	   1.0413815e+00	   3.9645775e+00	   3.5656492e-01	
   3.7290000e+01	   1.0395896e+00	   3.9709996e+00	   3.5193971e-01	
   3.7345000e+01	   1.0370411e+00	   3.9767017e+00	   3.4851322e-01	
   3.7400000e+01	   1.0338224e+00	   3.9817698e+00	   3.4630108e-01	
   3.7455000e+01	   1.0300020e+00	   3.9862931e+00	   3.4526593e-01	
   3.7510000e+01	   1.0256371e+00	   3.9903705e+00	   3.4532859e-01	
   3.7565000e+01	   1.0207827e+00	   3.9941153e+00	   3.4637971e-01	
   3.7620000e+01	   1.0154989e+00	   3.9976524e+00	   3.4828867e-01	
   3.7675000e+01	   1.0098568e+00	   4.0011118e+00	   3.5090807e-01	
   3.7730000e+01	   1.0039398e+00	   4.0046152e+00	   3.5407334e-01	
   3.7785000e+01	   9.9784031e-01	   4.0082604e+00	   3.5759868e-01	
   3.7840000e+01	   9.9165264e-01	   4.0121046e+00	   3.6127318e-01	
   3.7895000e+01	   9.8546491e-01	   4.0161540e+00	   3.6485951e-01	
   3.7950000e+01	   9.7935157e-01	   4.0203597e+00	   3.6809557e-01	
   3.8005000e+01	   9.7336891e-01	   4.0246241e+00	   3.7070056e-01	
   3.8060000e+01	   9.6755581e-01	   4.0288173e+00	   3.7238873e-01	
   3.8115000e+01	   9.6193990e-01	   4.0328012e+00	   3.7289140e-01	
   3.8170000e+01	   9.5654621e-01	   4.0364537e+00	   3.7198283e-01	
   3.8225000e+01	   9.5140442e-01	   4.0396857e+00	   3.6950248e-01	
   3.8280000e+01	   9.4655263e-01	   4.0424486e+00	   3.6536795e-01	
   3.8335000e+01	   9.4203726e-01	   4.0447345e+00	   3.5957715e-01	
   3.8390000e+01	   9.3790986e-01	   4.0465710e+00	   3.5220147e-01	
   3.8445000e+01	   9.3422143e-01	   4.0480147e+00	   3.4337236e-01	
   3.8500000e+01	   9.3101509e-01	   4.0491439e+00	   3.3326377e-01	
   3.8555000e+01	   9.2831913e-01	   4.0500534e+00	   3.2207434e-01	
   3.8610000e+01	   9.2614254e-01	   4.0508512e+00	   3.1001293e-01	
   3.8665000e+01	   9.2447436e-01	   4.0516570e+00	   2.9728910e-01	
   3.8720000e+01	   9.2328720e-01	   4.0526012e+00	   2.8410959e-01	
   3.8775000e+01	   9.2254453e-01	   4.0538254e+00	   2.7068026e-01	
   3.8830000e+01	   9.2220940e-01	   4.0554818e+00	   2.5721083e-01	
   3.8885000e+01	   9.2225150e-01	   4.0577292e+00	   2.4391807e-01	
   3.8940000e+01	   9.2265042e-01	   4.0607272e+00	   2.3102465e-01	
   3.8995000e+01	   9.2339469e-01	   4.0646272e+00	   2.1875310e-01	
   3.9050000e+01	   9.2447740e-01	   4.0695619e+00	   2.0731514e-01	
   3.9105000e+01	   9.2588948e-01	   4.0756328e+00	   1.9689792e-01	
   3.9160000e+01	   9.2761260e-01	   4.0828958e+00	   1.8764985e-01	
   3.9215000e+01	   9.2961378e-01	   4.0913497e+00	   1.7966955e-01	
   3.9270000e+01	   9.3184337e-01	   4.1009326e+00	   1.7300071e-01	
   3.9325000e+01	   9.3423768e-01	   4.1115271e+00	   1.6763427e-01	
   3.9380000e+01	   9.3672671e-01	   4.1229746e+00	   1.6351885e-01	
   3.9435000e+01	   9.3924543e-01	   4.1350963e+00	   1.6057842e-01	
   3.9490000e+01	   9.4174479e-01	   4.1477143e+00	   1.5873290e-01	
   3.9545000e+01	   9.4419909e-01	   4.1606692e+00	   1.5791528e-01	
   3.9600000e+01	   9.4660768e-01	   4.1738281e+00	   1.5808102e-01	
   3.9655000e+01	   9.4899055e-01	   4.1870857e+00	   1.5920754e-01	
   3.9710000e+01	   9.5137879e-01	   4.2003604e+00	   1.6128358e-01	
   3.9765000e+01	   9.5380167e-01	   4.2135870e+00	   1.6429045e-01	
   3.9820000e+01	   9.5627366e-01	   4.2267079e+00	   1.6818017e-01	
   3.9875000e+01	   9.5878449e-01	   4.2396630e+00	   1.7285589e-01	
   3.9930000e+01	   9.6129517e-01	   4.2523818e+00	   1.7816029e-01	
   3.9985000e+01	   9.6374145e-01	   4.2647809e+00	   1.8387747e-01	
   4.0040000e+01	   9.6604442e-01	   4.2767696e+00	   1.8975023e-01	
   4.0095000e+01	   9.6812559e-01	   4.2882612e+00	   1.9550901e-01	
   4.0150000e+01	   9.6992193e-01	   4.2991854e+00	   2.0090346e-01	
   4.0205000e+01	   9.7139708e-01	   4.3094986e+00	   2.0572830e-01	
   4.0260000e+01	   9.7254606e-01	   4.3191919e+00	   2.0983752e-01	
   4.0315000e+01	   9.7339319e-01	   4.3282949e+00	   2.1314622e-01	
   4.0370000e+01	   9.7398444e-01	   4.3368747e+00	   2.1562340e-01	
   4.0425000e+01	   9.7437596e-01	   4.3450280e+00	   2.1727933e-01	
   4.0480000e+01	   9.7461997e-01	   4.3528666e+00	   2.1814795e-01	
   4.0535000e+01	   9.7475015e-01	   4.3605008e+00	   2.1826606e-01	
   4.0590000e+01	   9.7477051e-01	   4.3680258e+00	   2.1765491e-01	
   4.0645000e+01	   9.7465179e-01	   4.3755165e+00	   2.1631095e-01	
   4.0700000e+01	   9.7433705e-01	   4.3830303e+00	   2.1420882e-01	
   4.0755000e+01	   9.7375457e-01	   4.3906158e+00	   2.1131565e-01	
   4.0810000e+01	   9.7283306e-01	   4.3983226e+00	   2.0761102e-01	
   4.0865000e+01	   9.7151427e-01	   4.4062095e+00	   2.0310455e-01	
   4.0920000e+01	   9.6976013e-01	   4.4143462e+00	   1.9784418e-01	
   4.0975000e+01	   9.6755353e-01	   4.4228075e+00	   1.9191276e-01	
   4.1030000e+01	   9.6489376e-01	   4.4316635e+00	   1.8541598e-01	
   4.1085000e+01	   9.6178840e-01	   4.4409663e+00	   1.7846552e-01	
   4.1140000e+01	   9.5824382e-01	   4.4507380e+00	   1.7116115e-01	
   4.1195000e+01	   9.5425638e-01	   4.4609605e+00	   1.6357507e-01	
   4.1250000e+01	   9.4980590e-01	   4.4715699e+00	   1.5574194e-01	
   4.1305000e+01	   9.4485379e-01	   4.4824562e+00	   1.4765674e-01	
   4.1360000e+01	   9.3934728e-01	   4.4934720e+00	   1.3928075e-01	
   4.1415000e+01	   9.3322998e-01	   4.5044496e+00	   1.3055429e-01	
   4.1470000e+01	   9.2645610e-01	   4.5152218e+00	   1.2141330e-01	
   4.1525000e+01	   9.1900453e-01	   4.5256435e+00	   1.1180597e-01	
   4.1580000e+01	   9.1088892e-01	   4.5356063e+00	   1.0170575e-01	
   4.1635000e+01	   9.0216077e-01	   4.5450439e+00	   9.1118073e-02	
   4.1690000e+01	   8.9290504e-01	   4.5539281e+00	   8.0079647e-02	
   4.1745000e+01	   8.8322979e-01	   4.5622593e+00	   6.8651638e-02	
   4.1800000e+01	   8.7325209e-01	   4.5700547e+00	   5.6908865e-02	
   4.1855000e+01	   8.6308243e-01	   4.5773360e+00	   4.4927173e-02	
   4.1910000e+01	   8.5281064e-01	   4.5841184e+00	   3.2771960e-02	
   4.1965000e+01	   8.4249673e-01	   4.5904032e+00	   2.0491071e-02	
   4.2020000e+01	   8.3216889e-01	   4.5961791e+00	   8.1138682e-03	
   4.2075000e+01	   8.2182869e-01	   4.6014311e+00	  -4.3433869e-03	
   4.2130000e+01	   8.1146113e-01	   4.6061531e+00	  -1.6867363e-02	
   4.2185000e+01	   8.0104546e-01	   4.6103599e+00	  -2.9436082e-02	
   4.2240000e+01	   7.9056370e-01	   4.6140929e+00	  -4.2009684e-02	
   4.2295000e+01	   7.8000596e-01	   4.6174204e+00	  -5.4526160e-02	
   4.2350000e+01	   7.6937280e-01	   4.6204331e+00	  -6.6903036e-02	
   4.2405000e+01	   7.5867477e-01	   4.6232380e+00	  -7.9044226e-02	
   4.2460000e+01	   7.4792999e-01	   4.6259488e+00	  -9.0850078e-02	
   4.2515000e+01	   7.3716090e-01	   4.6286739e+00	  -1.0222847e-01	
   4.2570000e+01	   7.2639209e-01	   4.6315031e+00	  -1.1310447e-01	
   4.2625000e+01	   7.1565114e-01	   4.6344986e+00	  -1.2342537e-01	
   4.2680000e+01	   7.0497368e-01	   4.6376946e+00	  -1.3315877e-01	
   4.2735000e+01	   6.9441160e-01	   4.6411046e+00	  -1.4228377e-01	
   4.2790000e+01	   6.8404084e-01	   4.6447340e+00	  -1.5077896e-01	
   4.2845000e+01	   6.7396504e-01	   4.6485933e+00	  -1.5861144e-01	
   4.2900000e+01	   6.6431410e-01	   4.6527086e+00	  -1.6573008e-01	
   4.2955000e+01	   6.5523760e-01	   4.6571294e+00	  -1.7206448e-01	
   4.3010000e+01	   6.4689407e-01	   4.6619297e+00	  -1.7753055e-01	
   4.3065000e+01	   6.3943716e-01	   4.6672061e+00	  -1.8204133e-01	
   4.3120000e+01	   6.3300098e-01	   4.6730695e+00	  -1.8552026e-01	
   4.3175000e+01	   6.2768726e-01	   4.6796367e+00	  -1.8791379e-01	
   4.3230000e+01	   6.2355716e-01	   4.6870223e+00	  -1.8920045e-01	
   4.3285000e+01	   6.2063078e-01	   4.6953360e+00	  -1.8939302e-01	
   4.3340000e+01	   6.1889569e-01	   4.7046900e+00	  -1.8853220e-01	
   4.3395000e+01	   6.1832156e-01	   4.7152123e+00	  -1.8667425e-01	
   4.3450000e+01	   6.1887580e-01	   4.7270612e+00	  -1.8387720e-01	
   4.3505000e+01	   6.2053565e-01	   4.7404370e+00	  -1.8018932e-01	
   4.3560000e+01	   6.2329524e-01	   4.7555874e+00	  -1.7564162e-01	
   4.3615000e+01	   6.2716680e-01	   4.7728045e+00	  -1.7024668e-01	
   4.3670000e+01	   6.3217644e-01	   4.7924109e+00	  -1.6400526e-01	
   4.3725000e+01	   6.3835591e-01	   4.8147351e+00	  -1.5691935e-01	
   4.3780000e+01	   6.4573274e-01	   4.8400856e+00	  -1.4900764e-01	
   4.3835000e+01	   6.5432114e-01	   4.8687283e+00	  -1.4031832e-01	
   4.3890000e+01	   6.6411562e-01	   4.9008729e+00	  -1.3093490e-01	
   4.3945000e+01	   6.7508888e-01	   4.9366683e+00	  -1.2097195e-01	
   4.4000000e+01	   6.8719428e-01	   4.9762048e+00	  -1.1056115e-01	
   4.4055000e+01	   7.0037166e-01	   5.0195157e+00	  -9.9831973e-02	
   4.4110000e+01	   7.1455317e-01	   5.0665741e+00	  -8.8893510e-02	
   4.4165000e+01	   7.2966598e-01	   5.1172795e+00	  -7.7823065e-02	
   4.4220000e+01	   7.4563022e-01	   5.1714373e+00	  -6.6663286e-02	
   4.4275000e+01	   7.6235313e-01	   5.2287352e+00	  -5.5426752e-02	
   4.4330000e+01	   7.7972040e-01	   5.2887192e+00	  -4.4106619e-02	
   4.4385000e+01	   7.9758570e-01	   5.3507716e+00	  -3.2692267e-02	
   4.4440000e+01	   8.1575962e-01	   5.4140950e+00	  -2.1186693e-02	
   4.4495000e+01	   8.3400179e-01	   5.4777051e+00	  -9.6202427e-03	
   4.4550000e+01	   8.5201946e-01	   5.5404341e+00	   1.9436222e-03	
   4.4605000e+01	   8.6947448e-01	   5.6009478e+00	   1.3411997e-02	
   4.4660000e+01	   8.8599757e-01	   5.6577710e+00	   2.4674435e-02	
   4.4715000e+01	   9.0120668e-01	   5.7093230e+00	   3.5618769e-02	
   4.4770000e+01	   9.1472460e-01	   5.7539569e+00	   4.6144442e-02	
   4.4825000e+01	   9.2619238e-01	   5.7900033e+00	   5.6168821e-02	
   4.4880000e+01	   9.3527844e-01	   5.8158150e+00	   6.5626582e-02	
   4.4935000e+01	   9.4168497e-01	   5.8298115e+00	   7.4465030e-02	
   4.4990000e+01	   9.4515215e-01	   5.8305228e+00	   8.2637879e-02	
   4.5045000e+01	   9.4545984e-01	   5.8166304e+00	   9.0098951e-02	
   4.5100000e+01	   9.4242775e-01	   5.7870112e+00	   9.6797426e-02	
   4.5155000e+01	   9.3591653e-01	   5.7407848e+00	   1.0267672e-01	
   4.5210000e+01	   9.2583268e-01	   5.6773695e+00	   1.0767873e-01	
   4.5265000e+01	   9.1213924e-01	   5.5965446e+00	   1.1175382e-01	
   4.5320000e+01	   8.9487191e-01	   5.4985161e+00	   1.1487453e-01	
   4.5375000e+01	   8.7415784e-01	   5.3839811e+00	   1.1704918e-01	
   4.5430000e+01	   8.5023312e-01	   5.2541806e+00	   1.1833160e-01	
   4.5485000e+01	   8.2345532e-01	   5.1109378e+00	   1.1882447e-01	
   4.5540000e+01	   7.9430924e-01	   4.9566781e+00	   1.1867645e-01	
   4.5595000e+01	   7.6340545e-01	   4.7944283e+00	   1.1807358e-01	
   4.5650000e+01	   7.3147226e-01	   4.6277918e+00	   1.1722581e-01	
   4.5705000e+01	   6.9934120e-01	   4.4608941e+00	   1.1634848e-01	
   4.5760000e+01	   6.6792559e-01	   4.2982956e+00	   1.1564022e-01	
   4.5815000e+01	   6.3819293e-01	   4.1448753e+00	   1.1526207e-01	
   4.5870000e+01	   6.1113350e-01	   4.0056839e+00	   1.1532345e-01	
   4.5925000e+01	   5.8772628e-01	   3.8857675e+00	   1.1587827e-01	
   4.5980000e+01	   5.6890092e-01	   3.7899511e+00	   1.1693065e-01	
   4.6035000e+01	   5.5549133e-01	   3.7225717e+00	   1.1844623e-01	
   4.6090000e+01	   5.4817746e-01	   3.6871566e+00	   1.2036433e-01	
   4.6145000e+01	   5.4741853e-01	   3.6860720e+00	   1.2260684e-01	
   4.6200000e+01	   5.5339352e-01	   3.7202246e+00	   1.2508324e-01	
   4.6255000e+01	   5.6597212e-01	   3.7889259e+00	   1.2769288e-01	
   4.6310000e+01	   5.8472968e-01	   3.8899801e+00	   1.3032600e-01	
   4.6365000e+01	   6.0899777e-01	   4.0199493e+00	   1.3286452e-01	
   4.6420000e+01	   6.3792870e-01	   4.1744889e+00	   1.3518340e-01	
   4.6475000e+01	   6.7055783e-01	   4.3486685e+00	   1.3715368e-01	
   4.6530000e+01	   7.0585920e-01	   4.5372491e+00	   1.3864819e-01	
   4.6585000e+01	   7.4279570e-01	   4.7349177e+00	   1.3955101e-01	
   4.6640000e+01	   7.8036364e-01	   4.9364830e+00	   1.3977093e-01	
   4.6695000e+01	   8.1762952e-01	   5.1370304e+00	   1.3925719e-01	
   4.6750000e+01	   8.5375590e-01	   5.3320350e+00	   1.3801248e-01	
   4.6805000e+01	   8.8801560e-01	   5.5174334e+00	   1.3609887e-01	
   4.6860000e+01	   9.1979588e-01	   5.6896610e+00	   1.3363539e-01	
   4.6915000e+01	   9.4859470e-01	   5.8456625e+00	   1.3078862e-01	
   4.6970000e+01	   9.7401086e-01	   5.9828840e+00	   1.2775815e-01	
   4.7025000e+01	   9.9572978e-01	   6.0992522e+00	   1.2475870e-01	
   4.7080000e+01	   1.0135082e+00	   6.1931499e+00	   1.2200205e-01	
   4.7135000e+01	   1.0271620e+00	   6.2633936e+00	   1.1968239e-01	
   4.7190000e+01	   1.0365604e+00	   6.3092177e+00	   1.1796826e-01	
   4.7245000e+01	   1.0416273e+00	   6.3302659e+00	   1.1700177e-01	
   4.7300000e+01	   1.0423469e+00	   6.3265877e+00	   1.1690273e-01	
   4.7355000e+01	   1.0387705e+00	   6.2986379e+00	   1.1777366e-01	
   4.7410000e+01	   1.0310216e+00	   6.2472758e+00	   1.1970271e-01	
   4.7465000e+01	   1.0192999e+00	   6.1737620e+00	   1.2276335e-01	
   4.7520000e+01	   1.0038836e+00	   6.0797500e+00	   1.2701038e-01	
   4.7575000e+01	   9.8512937e-01	   5.9672729e+00	   1.3247211e-01	
   4.7630000e+01	   9.6346862e-01	   5.8387248e+00	   1.3914080e-01	
   4.7685000e+01	   9.3940204e-01	   5.6968382e+00	   1.4696377e-01	
   4.7740000e+01	   9.1349410e-01	   5.5446575e+00	   1.5583847e-01	
   4.7795000e+01	   8.8636936e-01	   5.3855087e+00	   1.6561360e-01	
   4.7850000e+01	   8.5871094e-01	   5.2229612e+00	   1.7609791e-01	
   4.7905000e+01	   8.3125865e-01	   5.0607740e+00	   1.8707671e-01	
   4.7960000e+01	   8.0480224e-01	   4.9028166e+00	   1.9833252e-01	
   4.8015000e+01	   7.8016415e-01	   4.7529549e+00	   2.0966358e-01	
   4.8070000e+01	   7.5816769e-01	   4.6148960e+00	   2.2089488e-01	
   4.8125000e+01	   7.3959048e-01	   4.4919952e+00	   2.3188117e-01	
   4.8180000e+01	   7.2510998e-01	   4.3870493e+00	   2.4250337e-01	
   4.8235000e+01	   7.1525703e-01	   4.3021473e+00	   2.5266051e-01	
   4.8290000e+01	   7.1039558e-01	   4.2386527e+00	   2.6226028e-01	
   4.8345000e+01	   7.1073322e-01	   4.1973210e+00	   2.7121195e-01	
   4.8400000e+01	   7.1635097e-01	   4.1784744e+00	   2.7942533e-01	
   4.8455000e+01	   7.2723761e-01	   4.1821590e+00	   2.8681721e-01	
   4.8510000e+01	   7.4331909e-01	   4.2082454e+00	   2.9332351e-01	
   4.8565000e+01	   7.6447742e-01	   4.2564677e+00	   2.9891298e-01	
   4.8620000e+01	   7.9055436e-01	   4.3263943e+00	   3.0359605e-01	
   4.8675000e+01	   8.2133714e-01	   4.4173290e+00	   3.0742426e-01	
   4.8730000e+01	   8.5652563e-01	   4.5281422e+00	   3.1047906e-01	
   4.8785000e+01	   8.9568260e-01	   4.6570399e+00	   3.1285347e-01	
   4.8840000e+01	   9.3817524e-01	   4.8013112e+00	   3.1463192e-01	
   4.8895000e+01	   9.8312847e-01	   4.9571413e+00	   3.1587243e-01	
   4.8950000e+01	   1.0294127e+00	   5.1195857e+00	   3.1659417e-01	
   4.9005000e+01	   1.0756732e+00	   5.2827251e+00	   3.1677222e-01	
   4.9060000e+01	   1.1203875e+00	   5.4399323e+00	   3.1634171e-01	
   4.9115000e+01	   1.1619333e+00	   5.5841631e+00	   3.1521119e-01	
   4.9170000e+01	   1.1986536e+00	   5.7082263e+00	   3.1328239e-01	
   4.9225000e+01	   1.2289170e+00	   5.8050192e+00	   3.1047116e-01	
   4.9280000e+01	   1.2511679e+00	   5.8677296e+00	   3.0672547e-01	
   4.9335000e+01	   1.2639689e+00	   5.8900010e+00	   3.0203660e-01	
   4.9390000e+01	   1.2660325e+00	   5.8660618e+00	   2.9644070e-01	
   4.9445000e+01	   1.2562423e+00	   5.7908184e+00	   2.9001043e-01	
   4.9500000e+01	   1.2336642e+00	   5.6599154e+00	   2.8283992e-01	
   4.9555000e+01	   1.1975489e+00	   5.4697698e+00	   2.7502755e-01	
   4.9610000e+01	   1.1473329e+00	   5.2176063e+00	   2.6665882e-01	
   4.9665000e+01	   1.0826497e+00	   4.9015495e+00	   2.5779141e-01	
   4.9720000e+01	   1.0033605e+00	   4.5208030e+00	   2.4844527e-01	
   4.9775000e+01	   9.0959958e-01	   4.0758865e+00	   2.3860167e-01	
   4.9830000e+01	   8.0182341e-01	   3.5688661e+00	   2.2821215e-01	
   4.9885000e+01	   6.8085346e-01	   3.0035280e+00	   2.1721530e-01	
   4.9940000e+01	   5.4790459e-01	   2.3854713e+00	   2.0555712e-01	
   4.9995000e+01	   4.0459347e-01	   1.7220999e+00	   1.9321091e-01	
   5.0050000e+01	   2.5292048e-01	   1.0225002e+00	   1.8019285e-01	
   5.0105000e+01	   9.5218669e-02	   2.9718418e-01	   1.6657013e-01	
   5.0160000e+01	  -6.5933990e-02	  -4.4231732e-01	   1.5245993e-01	
   5.0215000e+01	  -2.2783488e-01	  -1.1839922e+00	   1.3801928e-01	
   5.0270000e+01	  -3.8779325e-01	  -1.9159453e+00	   1.2342828e-01	
   5.0325000e+01	  -5.4325956e-01	  -2.6269529e+00	   1.0887033e-01	
   5.0380000e+01	  -6.9192987e-01	  -3.3069008e+00	   9.4514389e-02	
   5.0435000e+01	  -8.3181835e-01	  -3.9470854e+00	   8.0503626e-02	
   5.0490000e+01	  -9.6129854e-01	  -4.5403916e+00	   6.6952985e-02	
   5.0545000e+01	  -1.0791180e+00	  -5.0813675e+00	   5.3954723e-02	
   5.0600000e+01	  -1.1843932e+00	  -5.5662175e+00	   4.1587874e-02	
   5.0655000e+01	  -1.2765918e+00	  -5.9927317e+00	   2.9927135e-02	
   5.0710000e+01	  -1.3555072e+00	  -6.3601712e+00	   1.9048073e-02	
   5.0765000e+01	  -1.4212285e+00	  -6.6691187e+00	   9.0275378e-03	
   5.0820000e+01	  -1.4741064e+00	  -6.9213092e+00	  -6.0068753e-05	
   5.0875000e+01	  -1.5147183e+00	  -7.1194464e+00	  -8.1493815e-03	
   5.0930000e+01	  -1.5438320e+00	  -7.2670138e+00	  -1.5192760e-02	
   5.0985000e+01	  -1.5623712e+00	  -7.3680912e+00	  -2.1169600e-02	
   5.1040000e+01	  -1.5713800e+00	  -7.4271799e+00	  -2.6092372e-02	
   5.1095000e+01	  -1.5719841e+00	  -7.4490398e+00	  -3.0004880e-02	
   5.1150000e+01	  -1.5653499e+00	  -7.4385395e+00	  -3.2971556e-02	
   5.1205000e+01	  -1.5526418e+00	  -7.4005230e+00	  -3.5061196e-02	
   5.1260000e+01	  -1.5349856e+00	  -7.3396982e+00	  -3.6330575e-02	
   5.1315000e+01	  -1.5134386e+00	  -7.2605489e+00	  -3.6812429e-02	
   5.1370000e+01	  -1.4889685e+00	  -7.1672709e+00	  -3.6510222e-02	
   5.1425000e+01	  -1.4624399e+00	  -7.0637289e+00	  -3.5400288e-02	
   5.1480000e+01	  -1.4346076e+00	  -6.9534305e+00	  -3.3440658e-02	
   5.1535000e+01	  -1.4061160e+00	  -6.8395115e+00	  -3.0584825e-02	
   5.1590000e+01	  -1.3775015e+00	  -6.7247296e+00	  -2.6797696e-02	
   5.1645000e+01	  -1.3491988e+00	  -6.6114671e+00	  -2.2070307e-02	
   5.1700000e+01	  -1.3215461e+00	  -6.5017404e+00	  -1.6429436e-02	
   5.1755000e+01	  -1.2947896e+00	  -6.3972142e+00	  -9.9382190e-03	
   5.1810000e+01	  -1.2690851e+00	  -6.2992192e+00	  -2.6863499e-03	
   5.1865000e+01	  -1.2444992e+00	  -6.2087715e+00	   5.2261779e-03	
   5.1920000e+01	  -1.2210120e+00	  -6.1265981e+00	   1.3704708e-02	
   5.1975000e+01	  -1.1985233e+00	  -6.0531675e+00	   2.2670651e-02	
   5.2030000e+01	  -1.1768632e+00	  -5.9887236e+00	   3.2067299e-02	
   5.2085000e+01	  -1.1558071e+00	  -5.9333214e+00	   4.1861222e-02	
   5.2140000e+01	  -1.1350940e+00	  -5.8868605e+00	   5.2038169e-02	
   5.2195000e+01	  -1.1144475e+00	  -5.8491178e+00	   6.2592931e-02	
   5.2250000e+01	  -1.0935973e+00	  -5.8197757e+00	   7.3515540e-02	
   5.2305000e+01	  -1.0722985e+00	  -5.7984465e+00	   8.4778397e-02	
   5.2360000e+01	  -1.0503448e+00	  -5.7846907e+00	   9.6329107e-02	
   5.2415000e+01	  -1.0275742e+00	  -5.7780271e+00	   1.0809232e-01	
   5.2470000e+01	  -1.0038657e+00	  -5.7779339e+00	   1.1998038e-01	
   5.2525000e+01	  -9.7913409e-01	  -5.7838441e+00	   1.3190803e-01	
   5.2580000e+01	  -9.5332587e-01	  -5.7951404e+00	   1.4380480e-01	
   5.2635000e+01	  -9.2641873e-01	  -5.8111538e+00	   1.5562140e-01	
   5.2690000e+01	  -8.9842509e-01	  -5.8311648e+00	   1.6733029e-01	
   5.2745000e+01	  -8.6939784e-01	  -5.8544083e+00	   1.7892142e-01	
   5.2800000e+01	  -8.3943773e-01	  -5.8800804e+00	   1.9039268e-01	
   5.2855000e+01	  -8.0870126e-01	  -5.9073503e+00	   2.0173629e-01	
   5.2910000e+01	  -7.7740695e-01	  -5.9353773e+00	   2.1292551e-01	
   5.2965000e+01	  -7.4583695e-01	  -5.9633299e+00	   2.2390741e-01	
   5.3020000e+01	  -7.1433152e-01	  -5.9904058e+00	   2.3460576e-01	
   5.3075000e+01	  -6.8327565e-01	  -6.0158507e+00	   2.4493357e-01	
   5.3130000e+01	  -6.5307901e-01	  -6.0389757e+00	   2.5481171e-01	
   5.3185000e+01	  -6.2415255e-01	  -6.0591699e+00	   2.6418813e-01	
   5.3240000e+01	  -5.9688652e-01	  -6.0759075e+00	   2.7305231e-01	
   5.3295000e+01	  -5.7163379e-01	  -6.0887491e+00	   2.8144053e-01	
   5.3350000e+01	  -5.4869913e-01	  -6.0973413e+00	   2.8943071e-01	
   5.3405000e+01	  -5.2833309e-01	  -6.1014142e+00	   2.9712878e-01	
   5.3460000e+01	  -5.1072986e-01	  -6.1007779e+00	   3.0464903e-01	
   5.3515000e+01	  -4.9602898e-01	  -6.0953168e+00	   3.1209092e-01	
   5.3570000e+01	  -4.8431989e-01	  -6.0849823e+00	   3.1951752e-01	
   5.3625000e+01	  -4.7564691e-01	  -6.0697843e+00	   3.2694168e-01	
   5.3680000e+01	  -4.7001195e-01	  -6.0497832e+00	   3.3432424e-01	
   5.3735000e+01	  -4.6737421e-01	  -6.0250821e+00	   3.4158374e-01	
   5.3790000e+01	  -4.6764746e-01	  -5.9958232e+00	   3.4861304e-01	
   5.3845000e+01	  -4.7069669e-01	  -5.9621870e+00	   3.5529742e-01	
   5.3900000e+01	  -4.7633621e-01	  -5.9243954e+00	   3.6153034e-01	
   5.3955000e+01	  -4.8433062e-01	  -5.8827171e+00	   3.6722560e-01	
   5.4010000e+01	  -4.9440007e-01	  -5.8374742e+00	   3.7232434e-01	
   5.4065000e+01	  -5.0622968e-01	  -5.7890476e+00	   3.7679612e-01	
   5.4120000e+01	  -5.1948250e-01	  -5.7378808e+00	   3.8063384e-01	
   5.4175000e+01	  -5.3381383e-01	  -5.6844813e+00	   3.8384507e-01	
   5.4230000e+01	  -5.4888486e-01	  -5.6294192e+00	   3.8644349e-01	
   5.4285000e+01	  -5.6437346e-01	  -5.5733215e+00	   3.8844398e-01	
   5.4340000e+01	  -5.7998062e-01	  -5.5168607e+00	   3.8986284e-01	
   5.4395000e+01	  -5.9543263e-01	  -5.4607349e+00	   3.9072215e-01	
   5.4450000e+01	  -6.1048106e-01	  -5.4056438e+00	   3.9105617e-01	
   5.4505000e+01	  -6.2490239e-01	  -5.3522625e+00	   3.9091730e-01	
   5.4560000e+01	  -6.3849818e-01	  -5.3012191e+00	   3.9037963e-01	
   5.4615000e+01	  -6.5109563e-01	  -5.2530760e+00	   3.8953815e-01	
   5.4670000e+01	  -6.6254921e-01	  -5.2083188e+00	   3.8850255e-01	
   5.4725000e+01	  -6.7274356e-01	  -5.1673523e+00	   3.8738623e-01	
   5.4780000e+01	  -6.8159659e-01	  -5.1305017e+00	   3.8629379e-01	
   5.4835000e+01	  -6.8906101e-01	  -5.0980152e+00	   3.8531036e-01	
   5.4890000e+01	  -6.9512276e-01	  -5.0700648e+00	   3.8449577e-01	
   5.4945000e+01	  -6.9979573e-01	  -5.0467427e+00	   3.8388558e-01	
   5.5000000e+01	  -7.0311309e-01	  -5.0280572e+00	   3.8349920e-01	
   5.5055000e+01	  -7.0511729e-01	  -5.0139301e+00	   3.8335249e-01	
   5.5110000e+01	  -7.0585145e-01	  -5.0041982e+00	   3.8346905e-01	
   5.5165000e+01	  -7.0535434e-01	  -4.9986184e+00	   3.8388612e-01	
   5.5220000e+01	  -7.0365912e-01	  -4.9968760e+00	   3.8465446e-01	
   5.5275000e+01	  -7.0079489e-01	  -4.9985927e+00	   3.8583423e-01	
   5.5330000e+01	  -6.9679045e-01	  -5.0033367e+00	   3.8748817e-01	
   5.5385000e+01	  -6.9167937e-01	  -5.0106343e+00	   3.8967254e-01	
   5.5440000e+01	  -6.8550435e-01	  -5.0199838e+00	   3.9242839e-01	
   5.5495000e+01	  -6.7831809e-01	  -5.0308703e+00	   3.9577750e-01	
   5.5550000e+01	  -6.7017881e-01	  -5.0427795e+00	   3.9972667e-01	
   5.5605000e+01	  -6.6114158e-01	  -5.0552107e+00	   4.0427929e-01	
   5.5660000e+01	  -6.5124890e-01	  -5.0676889e+00	   4.0944829e-01	
   5.5715000e+01	  -6.4052388e-01	  -5.0797753e+00	   4.1526476e-01	
   5.5770000e+01	  -6.2896854e-01	  -5.0910775e+00	   4.2177999e-01	
   5.5825000e+01	  -6.1656790e-01	  -5.1012581e+00	   4.2906129e-01	
   5.5880000e+01	  -6.0329873e-01	  -5.1100441e+00	   4.3718157e-01	
   5.5935000e+01	  -5.8914104e-01	  -5.1172337e+00	   4.4620303e-01	
   5.5990000e+01	  -5.7408979e-01	  -5.1227015e+00	   4.5615743e-01	
   5.6045000e+01	  -5.5816452e-01	  -5.1264006e+00	   4.6702833e-01	
   5.6100000e+01	  -5.4141433e-01	  -5.1283554e+00	   4.7874117e-01	
   5.6155000e+01	  -5.2391629e-01	  -5.1286482e+00	   4.9116437e-01	
   5.6210000e+01	  -5.0576796e-01	  -5.1274002e+00	   5.0412053e-01	
   5.6265000e+01	  -4.8707736e-01	  -5.1247532e+00	   5.1740454e-01	
   5.6320000e+01	  -4.6795397e-01	  -5.1208560e+00	   5.3080363e-01	
   5.6375000e+01	  -4.4850327e-01	  -5.1158532e+00	   5.4411468e-01	
   5.6430000e+01	  -4.2882549e-01	  -5.1098763e+00	   5.5715467e-01	
   5.6485000e+01	  -4.0901840e-01	  -5.1030358e+00	   5.6976281e-01	
   5.6540000e+01	  -3.8918274e-01	  -5.0954147e+00	   5.8179710e-01	
   5.6595000e+01	  -3.6942869e-01	  -5.0870658e+00	   5.9312955e-01	
   5.6650000e+01	  -3.4988148e-01	  -5.0780115e+00	   6.0364235e-01	
   5.6705000e+01	  -3.3068478e-01	  -5.0682457e+00	   6.1322677e-01	
   5.6760000e+01	  -3.1200010e-01	  -5.0577354e+00	   6.2178693e-01	
   5.6815000e+01	  -2.9400057e-01	  -5.0464193e+00	   6.2924960e-01	
   5.6870000e+01	  -2.7685947e-01	  -5.0342048e+00	   6.3557724e-01	
   5.6925000e+01	  -2.6073742e-01	  -5.0209654e+00	   6.4077865e-01	
   5.6980000e+01	  -2.4577278e-01	  -5.0065439e+00	   6.4491302e-01	
   5.7035000e+01	  -2.3207742e-01	  -4.9907585e+00	   6.4808672e-01	
   5.7090000e+01	  -2.1973705e-01	  -4.9734158e+00	   6.5044352e-01	
   5.7145000e+01	  -2.0881537e-01	  -4.9543251e+00	   6.5214913e-01	
   5.7200000e+01	  -1.9936084e-01	  -4.9333166e+00	   6.5337089e-01	
   5.7255000e+01	  -1.9141477e-01	  -4.9102593e+00	   6.5425564e-01	
   5.7310000e+01	  -1.8501838e-01	  -4.8850792e+00	   6.5490985e-01	
   5.7365000e+01	  -1.8021708e-01	  -4.8577750e+00	   6.5538586e-01	
   5.7420000e+01	  -1.7706053e-01	  -4.8284285e+00	   6.5567687e-01	
   5.7475000e+01	  -1.7559727e-01	  -4.7972082e+00	   6.5572289e-01	
   5.7530000e+01	  -1.7586422e-01	  -4.7643658e+00	   6.5542751e-01	
   5.7585000e+01	  -1.7787384e-01	  -4.7302268e+00	   6.5468189e-01	
   5.7640000e+01	  -1.8160295e-01	  -4.6951774e+00	   6.5338886e-01	
   5.7695000e+01	  -1.8698629e-01	  -4.6596501e+00	   6.5148116e-01	
   5.7750000e+01	  -1.9391602e-01	  -4.6241101e+00	   6.4893068e-01	
   5.7805000e+01	  -2.0224685e-01	  -4.5890405e+00	   6.4574855e-01	
   5.7860000e+01	  -2.1180605e-01	  -4.5549260e+00	   6.4197742e-01	
   5.7915000e+01	  -2.2240645e-01	  -4.5222336e+00	   6.3767976e-01	
   5.7970000e+01	  -2.3386036e-01	  -4.4913895e+00	   6.3292661e-01	
   5.8025000e+01	  -2.4599202e-01	  -4.4627532e+00	   6.2778895e-01	
   5.8080000e+01	  -2.5864609e-01	  -4.4365922e+00	   6.2233119e-01	
   5.8135000e+01	  -2.7169035e-01	  -4.4130607e+00	   6.1660709e-01	
   5.8190000e+01	  -2.8501218e-01	  -4.3921869e+00	   6.1065962e-01	
   5.8245000e+01	  -2.9851132e-01	  -4.3738711e+00	   6.0452425e-01	
   5.8300000e+01	  -3.1209223e-01	  -4.3578960e+00	   5.9823298e-01	
   5.8355000e+01	  -3.2565915e-01	  -4.3439443e+00	   5.9181684e-01	
   5.8410000e+01	  -3.3911512e-01	  -4.3316215e+00	   5.8530590e-01	
   5.8465000e+01	  -3.5236479e-01	  -4.3204790e+00	   5.7872644e-01	
   5.8520000e+01	  -3.6532032e-01	  -4.3100418e+00	   5.7209491e-01	
   5.8575000e+01	  -3.7790909e-01	  -4.2998395e+00	   5.6541002e-01	
   5.8630000e+01	  -3.9008066e-01	  -4.2894382e+00	   5.5864607e-01	
   5.8685000e+01	  -4.0181018e-01	  -4.2784678e+00	   5.5175141e-01	
   5.8740000e+01	  -4.1309622e-01	  -4.2666384e+00	   5.4465499e-01	
   5.8795000e+01	  -4.2395280e-01	  -4.2537453e+00	   5.3728077e-01	
   5.8850000e+01	  -4.3439685e-01	  -4.2396633e+00	   5.2956681e-01	
   5.8905000e+01	  -4.4443495e-01	  -4.2243367e+00	   5.2148299e-01	
   5.8960000e+01	  -4.5405348e-01	  -4.2077689e+00	   5.1304259e-01	
   5.9015000e+01	  -4.6321444e-01	  -4.1900162e+00	   5.0430535e-01	
   5.9070000e+01	  -4.7185622e-01	  -4.1711826e+00	   4.9537342e-01	
   5.9125000e+01	  -4.7989751e-01	  -4.1514148e+00	   4.8638307e-01	
   5.9180000e+01	  -4.8724289e-01	  -4.1308957e+00	   4.7749429e-01	
   5.9235000e+01	  -4.9378977e-01	  -4.1098374e+00	   4.6887861e-01	
   5.9290000e+01	  -4.9943520e-01	  -4.0884716e+00	   4.6070579e-01	
   5.9345000e+01	  -5.0407971e-01	  -4.0670378e+00	   4.5313236e-01	
   5.9400000e+01	  -5.0762580e-01	  -4.0457676e+00	   4.4629652e-01	
   5.9455000e+01	  -5.0997157e-01	  -4.0248718e+00	   4.4032071e-01	
   5.9510000e+01	  -5.1100343e-01	  -4.0045325e+00	   4.3531836e-01	
   5.9565000e+01	  -5.1059199e-01	  -3.9849009e+00	   4.3139959e-01	
   5.9620000e+01	  -5.0859371e-01	  -3.9660999e+00	   4.2867284e-01	
   5.9675000e+01	  -5.0485801e-01	  -3.9482287e+00	   4.2724092e-01	
   5.9730000e+01	  -4.9923829e-01	  -3.9313710e+00	   4.2719150e-01	
   5.9785000e+01	  -4.9160453e-01	  -3.9156025e+00	   4.2858380e-01	
   5.9840000e+01	  -4.8185545e-01	  -3.9009960e+00	   4.3143420e-01	
   5.9895000e+01	  -4.6992886e-01	  -3.8876241e+00	   4.3570311e-01	
   5.9950000e+01	  -4.5580812e-01	  -3.8755579e+00	   4.4128717e-01	
   6.0005000e+01	  -4.3952279e-01	  -3.8648631e+00	   4.4802113e-01	
   6.0060000e+01	  -4.2114307e-01	  -3.8555942e+00	   4.5569200e-01	
   6.0115000e+01	  -4.0077008e-01	  -3.8477881e+00	   4.6406225e-01	
   6.0170000e+01	  -3.7852559e-01	  -3.8414594e+00	   4.7289570e-01	
   6.0225000e+01	  -3.5454451e-01	  -3.8365955e+00	   4.8197919e-01	
   6.0280000e+01	  -3.2897207e-01	  -3.8331512e+00	   4.9113561e-01	
   6.0335000e+01	  -3.0196600e-01	  -3.8310458e+00	   5.0022593e-01	
   6.0390000e+01	  -2.7370287e-01	  -3.8301647e+00	   5.0914183e-01	
   6.0445000e+01	  -2.4438599e-01	  -3.8303675e+00	   5.1779366e-01	
   6.0500000e+01	  -2.1425218e-01	  -3.8315009e+00	   5.2609836e-01	
   6.0555000e+01	  -1.8357463e-01	  -3.8334122e+00	   5.3397111e-01	
   6.0610000e+01	  -1.5266030e-01	  -3.8359581e+00	   5.4132293e-01	
   6.0665000e+01	  -1.2184042e-01	  -3.8390081e+00	   5.4806645e-01	
   6.0720000e+01	  -9.1455114e-02	  -3.8424401e+00	   5.5412925e-01	
   6.0775000e+01	  -6.1835885e-02	  -3.8461343e+00	   5.5946986e-01	
   6.0830000e+01	  -3.3290527e-02	  -3.8499676e+00	   5.6408952e-01	
   6.0885000e+01	  -6.0932721e-03	  -3.8538103e+00	   5.6803580e-01	
   6.0940000e+01	   1.9519570e-02	  -3.8575222e+00	   5.7139841e-01	
   6.0995000e+01	   4.3349032e-02	  -3.8609514e+00	   5.7429922e-01	
   6.1050000e+01	   6.5228931e-02	  -3.8639338e+00	   5.7687734e-01	
   6.1105000e+01	   8.5018666e-02	  -3.8662948e+00	   5.7926993e-01	
   6.1160000e+01	   1.0259519e-01	  -3.8678496e+00	   5.8159096e-01	
   6.1215000e+01	   1.1784609e-01	  -3.8684045e+00	   5.8391243e-01	
   6.1270000e+01	   1.3066573e-01	  -3.8677592e+00	   5.8625269e-01	
   6.1325000e+01	   1.4095582e-01	  -3.8657107e+00	   5.8857492e-01	
   6.1380000e+01	   1.4863120e-01	  -3.8620571e+00	   5.9079706e-01	
   6.1435000e+01	   1.5362950e-01	  -3.8565976e+00	   5.9281126e-01	
   6.1490000e+01	   1.5592236e-01	  -3.8491317e+00	   5.9450718e-01	
   6.1545000e+01	   1.5552498e-01	  -3.8394579e+00	   5.9579189e-01	
   6.1600000e+01	   1.5250170e-01	  -3.8273771e+00	   5.9660173e-01	
   6.1655000e+01	   1.4696537e-01	  -3.8126990e+00	   5.9690372e-01	
   6.1710000e+01	   1.3907028e-01	  -3.7952566e+00	   5.9668716e-01	
   6.1765000e+01	   1.2900035e-01	  -3.7749219e+00	   5.9594958e-01	
   6.1820000e+01	   1.1695559e-01	  -3.7516224e+00	   5.9468256e-01	
   6.1875000e+01	   1.0314015e-01	  -3.7253505e+00	   5.9286102e-01	
   6.1930000e+01	   8.7753871e-02	  -3.6961679e+00	   5.9043699e-01	
   6.1985000e+01	   7.0989017e-02	  -3.6642027e+00	   5.8733978e-01	
   6.2040000e+01	   5.3032246e-02	  -3.6296408e+00	   5.8348400e-01	
   6.2095000e+01	   3.4070235e-02	  -3.5927134e+00	   5.7878421e-01	
   6.2150000e+01	   1.4296023e-02	  -3.5536827e+00	   5.7317235e-01	
   6.2205000e+01	  -6.0863493e-03	  -3.5128305e+00	   5.6661378e-01	
   6.2260000e+01	  -2.6859850e-02	  -3.4704519e+00	   5.5911838e-01	
   6.2315000e+01	  -4.7795302e-02	  -3.4268532e+00	   5.5074395e-01	
   6.2370000e+01	  -6.8655477e-02	  -3.3823543e+00	   5.4158985e-01	
   6.2425000e+01	  -8.9202923e-02	  -3.3372939e+00	   5.3178177e-01	
   6.2480000e+01	  -1.0921079e-01	  -3.2920369e+00	   5.2145080e-01	
   6.2535000e+01	  -1.2847426e-01	  -3.2469808e+00	   5.1071296e-01	
   6.2590000e+01	  -1.4681935e-01	  -3.2025580e+00	   4.9965416e-01	
   6.2645000e+01	  -1.6410642e-01	  -3.1592345e+00	   4.8832401e-01	
   6.2700000e+01	  -1.8022700e-01	  -3.1175038e+00	   4.7673950e-01	
   6.2755000e+01	  -1.9509578e-01	  -3.0778769e+00	   4.6489759e-01	
   6.2810000e+01	  -2.0864149e-01	  -3.0408687e+00	   4.5279184e-01	
   6.2865000e+01	  -2.2080028e-01	  -3.0069832e+00	   4.4042755e-01	
   6.2920000e+01	  -2.3151259e-01	  -2.9767011e+00	   4.2783161e-01	
   6.2975000e+01	  -2.4072307e-01	  -2.9504689e+00	   4.1505595e-01	
   6.3030000e+01	  -2.4838229e-01	  -2.9286894e+00	   4.0217450e-01	
   6.3085000e+01	  -2.5445012e-01	  -2.9117126e+00	   3.8927358e-01	
   6.3140000e+01	  -2.5890041e-01	  -2.8998242e+00	   3.7643735e-01	
   6.3195000e+01	  -2.6172644e-01	  -2.8932352e+00	   3.6373210e-01	
   6.3250000e+01	  -2.6294481e-01	  -2.8920683e+00	   3.5119414e-01	
   6.3305000e+01	  -2.6259548e-01	  -2.8963443e+00	   3.3882584e-01	
   6.3360000e+01	  -2.6073772e-01	  -2.9059689e+00	   3.2660243e-01	
   6.3415000e+01	  -2.5744374e-01	  -2.9207237e+00	   3.1448742e-01	
   6.3470000e+01	  -2.5279229e-01	  -2.9402641e+00	   3.0245099e-01	
   6.3525000e+01	  -2.4686466e-01	  -2.9641227e+00	   2.9048415e-01	
   6.3580000e+01	  -2.3974451e-01	  -2.9917197e+00	   2.7860535e-01	
   6.3635000e+01	  -2.3152156e-01	  -3.0223788e+00	   2.6685939e-01	
   6.3690000e+01	  -2.2229812e-01	  -3.0553523e+00	   2.5530963e-01	
   6.3745000e+01	  -2.1219693e-01	  -3.0898529e+00	   2.4402521e-01	
   6.3800000e+01	  -2.0136838e-01	  -3.1250926e+00	   2.3306506e-01	
   6.3855000e+01	  -1.8999449e-01	  -3.1603193e+00	   2.2246232e-01	
   6.3910000e+01	  -1.7828682e-01	  -3.1948470e+00	   2.1221293e-01	
   6.3965000e+01	  -1.6647781e-01	  -3.2280722e+00	   2.0227229e-01	
   6.4020000e+01	  -1.5480659e-01	  -3.2594781e+00	   1.9256205e-01	
   6.4075000e+01	  -1.4350243e-01	  -3.2886283e+00	   1.8298503e-01	
   6.4130000e+01	  -1.3276902e-01	  -3.3151520e+00	   1.7344358e-01	
   6.4185000e+01	  -1.2277304e-01	  -3.3387270e+00	   1.6385505e-01	
   6.4240000e+01	  -1.1363911e-01	  -3.3590636e+00	   1.5415936e-01	
   6.4295000e+01	  -1.0545129e-01	  -3.3758953e+00	   1.4431774e-01	
   6.4350000e+01	  -9.8259970e-02	  -3.3889756e+00	   1.3430590e-01	
   6.4405000e+01	  -9.2091785e-02	  -3.3980796e+00	   1.2410540e-01	
   6.4460000e+01	  -8.6960718e-02	  -3.4030123e+00	   1.1369488e-01	
   6.4515000e+01	  -8.2878524e-02	  -3.4036193e+00	   1.0304264e-01	
   6.4570000e+01	  -7.9862641e-02	  -3.3997984e+00	   9.2103149e-02	
   6.4625000e+01	  -7.7939894e-02	  -3.3915061e+00	   8.0818826e-02	
   6.4680000e+01	  -7.7144779e-02	  -3.3787587e+00	   6.9127336e-02	
   6.4735000e+01	  -7.7512908e-02	  -3.3616297e+00	   5.6972862e-02	
   6.4790000e+01	  -7.9072480e-02	  -3.3402454e+00	   4.4318719e-02	
   6.4845000e+01	  -8.1837030e-02	  -3.3147784e+00	   3.1157720e-02	
   6.4900000e+01	  -8.5801024e-02	  -3.2854421e+00	   1.7517399e-02	
   6.4955000e+01	  -9.0938406e-02	  -3.2524855e+00	   3.4582301e-03	
   6.5010000e+01	  -9.7203939e-02	  -3.2161896e+00	  -1.0935063e-02	
   6.5065000e+01	  -1.0453721e-01	  -3.1768664e+00	  -2.5566663e-02	
   6.5120000e+01	  -1.1286861e-01	  -3.1348608e+00	  -4.0344002e-02	
   6.5175000e+01	  -1.2212608e-01	  -3.0905560e+00	  -5.5190870e-02	
   6.5230000e+01	  -1.3224103e-01	  -3.0443796e+00	  -7.0057119e-02	
   6.5285000e+01	  -1.4315108e-01	  -2.9968057e+00	  -8.4922172e-02	
   6.5340000e+01	  -1.5479762e-01	  -2.9483499e+00	  -9.9789850e-02	
   6.5395000e+01	  -1.6711876e-01	  -2.8995550e+00	  -1.1467433e-01	
   6.5450000e+01	  -1.8004074e-01	  -2.8509708e+00	  -1.2958085e-01	
   6.5505000e+01	  -1.9347191e-01	  -2.8031303e+00	  -1.4448798e-01	
   6.5560000e+01	  -2.0730169e-01	  -2.7565256e+00	  -1.5933829e-01	
   6.5615000e+01	  -2.2140444e-01	  -2.7115867e+00	  -1.7404076e-01	
   6.5670000e+01	  -2.3564685e-01	  -2.6686648e+00	  -1.8848248e-01	
   6.5725000e+01	  -2.4989650e-01	  -2.6280236e+00	  -2.0254370e-01	
   6.5780000e+01	  -2.6403063e-01	  -2.5898379e+00	  -2.1611189e-01	
   6.5835000e+01	  -2.7794503e-01	  -2.5542027e+00	  -2.2909375e-01	
   6.5890000e+01	  -2.9156238e-01	  -2.5211486e+00	  -2.4142531e-01	
   6.5945000e+01	  -3.0483792e-01	  -2.4906598e+00	  -2.5307913e-01	
   6.6000000e+01	  -3.1775995e-01	  -2.4626900e+00	  -2.6406684e-01	
   6.6055000e+01	  -3.3034400e-01	  -2.4371690e+00	  -2.7443588e-01	
   6.6110000e+01	  -3.4262153e-01	  -2.4140031e+00	  -2.8426013e-01	
   6.6165000e+01	  -3.5462669e-01	  -2.3930710e+00	  -2.9362636e-01	
   6.6220000e+01	  -3.6638463e-01	  -2.3742214e+00	  -3.0261988e-01	
   6.6275000e+01	  -3.7790392e-01	  -2.3572782e+00	  -3.1131343e-01	
   6.6330000e+01	  -3.8917499e-01	  -2.3420509e+00	  -3.1976165e-01	
   6.6385000e+01	  -4.0017432e-01	  -2.3283512e+00	  -3.2800194e-01	
   6.6440000e+01	  -4.1087264e-01	  -2.3160121e+00	  -3.3606037e-01	
   6.6495000e+01	  -4.2124413e-01	  -2.3049077e+00	  -3.4396150e-01	
   6.6550000e+01	  -4.3127397e-01	  -2.2949722e+00	  -3.5173973e-01	
   6.6605000e+01	  -4.4096281e-01	  -2.2862153e+00	  -3.5944833e-01	
   6.6660000e+01	  -4.5032622e-01	  -2.2787286e+00	  -3.6716270e-01	
   6.6715000e+01	  -4.5938847e-01	  -2.2726815e+00	  -3.7497610e-01	
   6.6770000e+01	  -4.6817089e-01	  -2.2683059e+00	  -3.8298799e-01	
   6.6825000e+01	  -4.7667760e-01	  -2.2658750e+00	  -3.9128662e-01	
   6.6880000e+01	  -4.8488236e-01	  -2.2656798e+00	  -3.9993044e-01	
   6.6935000e+01	  -4.9271968e-01	  -2.2680074e+00	  -4.0893360e-01	
   6.6990000e+01	  -5.0008196e-01	  -2.2731215e+00	  -4.1825930e-01	
   6.7045000e+01	  -5.0682334e-01	  -2.2812471e+00	  -4.2782222e-01	
   6.7100000e+01	  -5.1276998e-01	  -2.2925583e+00	  -4.3749932e-01	
   6.7155000e+01	  -5.1773574e-01	  -2.3071687e+00	  -4.4714662e-01	
   6.7210000e+01	  -5.2154128e-01	  -2.3251249e+00	  -4.5661859e-01	
   6.7265000e+01	  -5.2403334e-01	  -2.3464025e+00	  -4.6578566e-01	
   6.7320000e+01	  -5.2510013e-01	  -2.3709015e+00	  -4.7454577e-01	
   6.7375000e+01	  -5.2467975e-01	  -2.3984425e+00	  -4.8282726e-01	
   6.7430000e+01	  -5.2276024e-01	  -2.4287606e+00	  -4.9058263e-01	
   6.7485000e+01	  -5.1937233e-01	  -2.4614988e+00	  -4.9777500e-01	
   6.7540000e+01	  -5.1457779e-01	  -2.4962023e+00	  -5.0436083e-01	
   6.7595000e+01	  -5.0845781e-01	  -2.5323191e+00	  -5.1027436e-01	
   6.7650000e+01	  -5.0110449e-01	  -2.5692093e+00	  -5.1541827e-01	
   6.7705000e+01	  -4.9261687e-01	  -2.6061629e+00	  -5.1966191e-01	
   6.7760000e+01	  -4.8310072e-01	  -2.6424235e+00	  -5.2284665e-01	
   6.7815000e+01	  -4.7267070e-01	  -2.6772153e+00	  -5.2479727e-01	
   6.7870000e+01	  -4.6145422e-01	  -2.7097741e+00	  -5.2533897e-01	
   6.7925000e+01	  -4.4959718e-01	  -2.7393798e+00	  -5.2431860e-01	
   6.7980000e+01	  -4.3727010e-01	  -2.7653897e+00	  -5.2162711e-01	
   6.8035000e+01	  -4.2467185e-01	  -2.7872653e+00	  -5.1721826e-01	
   6.8090000e+01	  -4.1202775e-01	  -2.8045899e+00	  -5.1111900e-01	
   6.8145000e+01	  -3.9958067e-01	  -2.8170736e+00	  -5.0342884e-01	
   6.8200000e+01	  -3.8757705e-01	  -2.8245477e+00	  -4.9430850e-01	
   6.8255000e+01	  -3.7625115e-01	  -2.8269516e+00	  -4.8396207e-01	
   6.8310000e+01	  -3.6581125e-01	  -2.8243152e+00	  -4.7261853e-01	
   6.8365000e+01	  -3.5643028e-01	  -2.8167396e+00	  -4.6051728e-01	
   6.8420000e+01	  -3.4824167e-01	  -2.8043767e+00	  -4.4789835e-01	
   6.8475000e+01	  -3.4134009e-01	  -2.7874105e+00	  -4.3499643e-01	
   6.8530000e+01	  -3.3578582e-01	  -2.7660413e+00	  -4.2203843e-01	
   6.8585000e+01	  -3.3161221e-01	  -2.7404760e+00	  -4.0924525e-01	
   6.8640000e+01	  -3.2883496e-01	  -2.7109275e+00	  -3.9683718e-01	
   6.8695000e+01	  -3.2746146e-01	  -2.6776227e+00	  -3.8504003e-01	
   6.8750000e+01	  -3.2749750e-01	  -2.6408163e+00	  -3.7408759e-01	
   6.8805000e+01	  -3.2894866e-01	  -2.6008057e+00	  -3.6421640e-01	
   6.8860000e+01	  -3.3181410e-01	  -2.5579426e+00	  -3.5565203e-01	
   6.8915000e+01	  -3.3607402e-01	  -2.5126383e+00	  -3.4858926e-01	
   6.8970000e+01	  -3.4167489e-01	  -2.4653624e+00	  -3.4317173e-01	
   6.9025000e+01	  -3.4851805e-01	  -2.4166363e+00	  -3.3947665e-01	
   6.9080000e+01	  -3.5645514e-01	  -2.3670214e+00	  -3.3750814e-01	
   6.9135000e+01	  -3.6529102e-01	  -2.3171037e+00	  -3.3719935e-01	
   6.9190000e+01	  -3.7479295e-01	  -2.2674773e+00	  -3.3842248e-01	
   6.9245000e+01	  -3.8470432e-01	  -2.2187302e+00	  -3.4100522e-01	
   6.9300000e+01	  -3.9476113e-01	  -2.1714315e+00	  -3.4475184e-01	
   6.9355000e+01	  -4.0470896e-01	  -2.1261196e+00	  -3.4946516e-01	
   6.9410000e+01	  -4.1431798e-01	  -2.0832901e+00	  -3.5496496e-01	
   6.9465000e+01	  -4.2339418e-01	  -2.0433835e+00	  -3.6110055e-01	
   6.9520000e+01	  -4.3178479e-01	  -2.0067727e+00	  -3.6775613e-01	
   6.9575000e+01	  -4.3937660e-01	  -1.9737479e+00	  -3.7484809e-01	
   6.9630000e+01	  -4.4608834e-01	  -1.9445002e+00	  -3.8231577e-01	
   6.9685000e+01	  -4.5186093e-01	  -1.9191062e+00	  -3.9011065e-01	
   6.9740000e+01	  -4.5665005e-01	  -1.8975204e+00	  -3.9818788e-01	
   6.9795000e+01	  -4.6042272e-01	  -1.8795790e+00	  -4.0650037e-01	
   6.9850000e+01	  -4.6315805e-01	  -1.8650133e+00	  -4.1499435e-01	
   6.9905000e+01	  -4.6485122e-01	  -1.8534707e+00	  -4.2360682e-01	
   6.9960000e+01	  -4.6551932e-01	  -1.8445403e+00	  -4.3226651e-01	
   7.0015000e+01	  -4.6520749e-01	  -1.8377796e+00	  -4.4089876e-01	
   7.0070000e+01	  -4.6399322e-01	  -1.8327428e+00	  -4.4943304e-01	
   7.0125000e+01	  -4.6198734e-01	  -1.8290047e+00	  -4.5781116e-01	
   7.0180000e+01	  -4.5933051e-01	  -1.8261808e+00	  -4.6599294e-01	
   7.0235000e+01	  -4.5618446e-01	  -1.8239411e+00	  -4.7395614e-01	
   7.0290000e+01	  -4.5271850e-01	  -1.8220165e+00	  -4.8168962e-01	
   7.0345000e+01	  -4.4909391e-01	  -1.8201986e+00	  -4.8918136e-01	
   7.0400000e+01	  -4.4545009e-01	  -1.8183343e+00	  -4.9640571e-01	
   7.0455000e+01	  -4.4189478e-01	  -1.8163146e+00	  -5.0331472e-01	
   7.0510000e+01	  -4.3849922e-01	  -1.8140616e+00	  -5.0983606e-01	
   7.0565000e+01	  -4.3529864e-01	  -1.8115151e+00	  -5.1587761e-01	
   7.0620000e+01	  -4.3229787e-01	  -1.8086242e+00	  -5.2133800e-01	
   7.0675000e+01	  -4.2948141e-01	  -1.8053451e+00	  -5.2612143e-01	
   7.0730000e+01	  -4.2682562e-01	  -1.8016435e+00	  -5.3015359e-01	
   7.0785000e+01	  -4.2431019e-01	  -1.7974983e+00	  -5.3339543e-01	
   7.0840000e+01	  -4.2192552e-01	  -1.7929050e+00	  -5.3585244e-01	
   7.0895000e+01	  -4.1967357e-01	  -1.7878779e+00	  -5.3757747e-01	
   7.0950000e+01	  -4.1756108e-01	  -1.7824517e+00	  -5.3866451e-01	
   7.1005000e+01	  -4.1558661e-01	  -1.7766780e+00	  -5.3923280e-01	
   7.1060000e+01	  -4.1372581e-01	  -1.7706210e+00	  -5.3940526e-01	
   7.1115000e+01	  -4.1191991e-01	  -1.7643498e+00	  -5.3928727e-01	
   7.1170000e+01	  -4.1007090e-01	  -1.7579315e+00	  -5.3895075e-01	
   7.1225000e+01	  -4.0804467e-01	  -1.7514240e+00	  -5.3842616e-01	
   7.1280000e+01	  -4.0568205e-01	  -1.7448693e+00	  -5.3770354e-01	
   7.1335000e+01	  -4.0281648e-01	  -1.7382890e+00	  -5.3674193e-01	
   7.1390000e+01	  -3.9929485e-01	  -1.7316832e+00	  -5.3548395e-01	
   7.1445000e+01	  -3.9499676e-01	  -1.7250314e+00	  -5.3387158e-01	
   7.1500000e+01	  -3.8984860e-01	  -1.7182930e+00	  -5.3186010e-01	
   7.1555000e+01	  -3.8383081e-01	  -1.7114070e+00	  -5.2942717e-01	
   7.1610000e+01	  -3.7697779e-01	  -1.7042875e+00	  -5.2657398e-01	
   7.1665000e+01	  -3.6936985e-01	  -1.6968160e+00	  -5.2331633e-01	
   7.1720000e+01	  -3.6111868e-01	  -1.6888341e+00	  -5.1966758e-01	
   7.1775000e+01	  -3.5235134e-01	  -1.6801394e+00	  -5.1562011e-01	
   7.1830000e+01	  -3.4319679e-01	  -1.6704863e+00	  -5.1113257e-01	
   7.1885000e+01	  -3.3377612e-01	  -1.6595929e+00	  -5.0612679e-01	
   7.1940000e+01	  -3.2419607e-01	  -1.6471518e+00	  -5.0049395e-01	
   7.1995000e+01	  -3.1454645e-01	  -1.6328462e+00	  -4.9410884e-01	
   7.2050000e+01	  -3.0490225e-01	  -1.6163712e+00	  -4.8685089e-01	
   7.2105000e+01	  -2.9533009e-01	  -1.5974586e+00	  -4.7862901e-01	
   7.2160000e+01	  -2.8589657e-01	  -1.5759027e+00	  -4.6940527e-01	
   7.2215000e+01	  -2.7667652e-01	  -1.5515833e+00	  -4.5921180e-01	
   7.2270000e+01	  -2.6775808e-01	  -1.5244842e+00	  -4.4815737e-01	
   7.2325000e+01	  -2.5924183e-01	  -1.4947035e+00	  -4.3642146e-01	
   7.2380000e+01	  -2.5123227e-01	  -1.4624545e+00	  -4.2423651e-01	
   7.2435000e+01	  -2.4382386e-01	  -1.4280590e+00	  -4.1186269e-01	
   7.2490000e+01	  -2.3708636e-01	  -1.3919315e+00	  -3.9956254e-01	
   7.2545000e+01	  -2.3105470e-01	  -1.3545567e+00	  -3.8758071e-01	
   7.2600000e+01	  -2.2572577e-01	  -1.3164592e+00	  -3.7613003e-01	
   7.2655000e+01	  -2.2106193e-01	  -1.2781714e+00	  -3.6538372e-01	
   7.2710000e+01	  -2.1699960e-01	  -1.2402030e+00	  -3.5547411e-01	
   7.2765000e+01	  -2.1346069e-01	  -1.2030174e+00	  -3.4649762e-01	
   7.2820000e+01	  -2.1036469e-01	  -1.1670150e+00	  -3.3852446e-01	
   7.2875000e+01	  -2.0764037e-01	  -1.1325241e+00	  -3.3161019e-01	
   7.2930000e+01	  -2.0523560e-01	  -1.0997981e+00	  -3.2580515e-01	
   7.2985000e+01	  -2.0312351e-01	  -1.0690180e+00	  -3.2115804e-01	
   7.3040000e+01	  -2.0130278e-01	  -1.0402970e+00	  -3.1771259e-01	
   7.3095000e+01	  -1.9979155e-01	  -1.0136859e+00	  -3.1549822e-01	
   7.3150000e+01	  -1.9861724e-01	  -9.8917910e-01	  -3.1451747e-01	
   7.3205000e+01	  -1.9780562e-01	  -9.6672138e-01	  -3.1473406e-01	
   7.3260000e+01	  -1.9737215e-01	  -9.4621672e-01	  -3.1606535e-01	
   7.3315000e+01	  -1.9731656e-01	  -9.2753870e-01	  -3.1838232e-01	
   7.3370000e+01	  -1.9762123e-01	  -9.1054260e-01	  -3.2151778e-01	
   7.3425000e+01	  -1.9825292e-01	  -8.9507806e-01	  -3.2528099e-01	
   7.3480000e+01	  -1.9916682e-01	  -8.8100065e-01	  -3.2947588e-01	
   7.3535000e+01	  -2.0031171e-01	  -8.6818141e-01	  -3.3391973e-01	
   7.3590000e+01	  -2.0163547e-01	  -8.5651477e-01	  -3.3846009e-01	
   7.3645000e+01	  -2.0309008e-01	  -8.4592583e-01	  -3.4298725e-01	
   7.3700000e+01	  -2.0463447e-01	  -8.3637559e-01	  -3.4743878e-01	
   7.3755000e+01	  -2.0623375e-01	  -8.2786170e-01	  -3.5179457e-01	
   7.3810000e+01	  -2.0785433e-01	  -8.2041330e-01	  -3.5606419e-01	
   7.3865000e+01	  -2.0945650e-01	  -8.1408138e-01	  -3.6027136e-01	
   7.3920000e+01	  -2.1098759e-01	  -8.0892742e-01	  -3.6444046e-01	
   7.3975000e+01	  -2.1237818e-01	  -8.0501262e-01	  -3.6858854e-01	
   7.4030000e+01	  -2.1354246e-01	  -8.0238866e-01	  -3.7272356e-01	
   7.4085000e+01	  -2.1438312e-01	  -8.0109114e-01	  -3.7684699e-01	
   7.4140000e+01	  -2.1479981e-01	  -8.0113680e-01	  -3.8095864e-01	
   7.4195000e+01	  -2.1469989e-01	  -8.0252463e-01	  -3.8506291e-01	
   7.4250000e+01	  -2.1401007e-01	  -8.0524022e-01	  -3.8917613e-01	
   7.4305000e+01	  -2.1268788e-01	  -8.0926206e-01	  -3.9333353e-01	
   7.4360000e+01	  -2.1073093e-01	  -8.1456688e-01	  -3.9759361e-01	
   7.4415000e+01	  -2.0818093e-01	  -8.2113056e-01	  -4.0203695e-01	
   7.4470000e+01	  -2.0512011e-01	  -8.2892228e-01	  -4.0675671e-01	
   7.4525000e+01	  -2.0166003e-01	  -8.3789276e-01	  -4.1184030e-01	
   7.4580000e+01	  -1.9792529e-01	  -8.4796035e-01	  -4.1734645e-01	
   7.4635000e+01	  -1.9403641e-01	  -8.5899860e-01	  -4.2328459e-01	
   7.4690000e+01	  -1.9009606e-01	  -8.7082776e-01	  -4.2960314e-01	
   7.4745000e+01	  -1.8618122e-01	  -8.8321247e-01	  -4.3618998e-01	
   7.4800000e+01	  -1.8234192e-01	  -8.9586678e-01	  -4.4288454e-01	
   7.4855000e+01	  -1.7860575e-01	  -9.0846669e-01	  -4.4949828e-01	
   7.4910000e+01	  -1.7498671e-01	  -9.2066800e-01	  -4.5583858e-01	
   7.4965000e+01	  -1.7149694e-01	  -9.3212685e-01	  -4.6173312e-01	
   7.5020000e+01	  -1.6815961e-01	  -9.4251952e-01	  -4.6705169e-01	
   7.5075000e+01	  -1.6501963e-01	  -9.5155722e-01	  -4.7172191e-01	
   7.5130000e+01	  -1.6214898e-01	  -9.5899248e-01	  -4.7573497e-01	
   7.5185000e+01	  -1.5964499e-01	  -9.6461626e-01	  -4.7913876e-01	
   7.5240000e+01	  -1.5762116e-01	  -9.6824802e-01	  -4.8201879e-01	
   7.5295000e+01	  -1.5619206e-01	  -9.6972250e-01	  -4.8447016e-01	
   7.5350000e+01	  -1.5545598e-01	  -9.6887804e-01	  -4.8656828e-01	
   7.5405000e+01	  -1.5548063e-01	  -9.6555011e-01	  -4.8834802e-01	
   7.5460000e+01	  -1.5629511e-01	  -9.5957141e-01	  -4.8979705e-01	
   7.5515000e+01	  -1.5788901e-01	  -9.5077797e-01	  -4.9086238e-01	
   7.5570000e+01	  -1.6021759e-01	  -9.3902002e-01	  -4.9146555e-01	
   7.5625000e+01	  -1.6321191e-01	  -9.2417744e-01	  -4.9152286e-01	
   7.5680000e+01	  -1.6679233e-01	  -9.0617983e-01	  -4.9096754e-01	
   7.5735000e+01	  -1.7088324e-01	  -8.8502921e-01	  -4.8977107e-01	
   7.5790000e+01	  -1.7542650e-01	  -8.6082147e-01	  -4.8796069e-01	
   7.5845000e+01	  -1.8039094e-01	  -8.3376211e-01	  -4.8562957e-01	
   7.5900000e+01	  -1.8577581e-01	  -8.0417364e-01	  -4.8293648e-01	
   7.5955000e+01	  -1.9160662e-01	  -7.7249163e-01	  -4.8009284e-01	
   7.6010000e+01	  -1.9792340e-01	  -7.3924715e-01	  -4.7733791e-01	
   7.6065000e+01	  -2.0476400e-01	  -7.0503690e-01	  -4.7490645e-01	
   7.6120000e+01	  -2.1214798e-01	  -6.7048684e-01	  -4.7299756e-01	
   7.6175000e+01	  -2.2006605e-01	  -6.3621449e-01	  -4.7175262e-01	
   7.6230000e+01	  -2.2847683e-01	  -6.0279423e-01	  -4.7124565e-01	
   7.6285000e+01	  -2.3731001e-01	  -5.7072907e-01	  -4.7148462e-01	
   7.6340000e+01	  -2.4647407e-01	  -5.4043248e-01	  -4.7242149e-01	
   7.6395000e+01	  -2.5586694e-01	  -5.1222151e-01	  -4.7396906e-01	
   7.6450000e+01	  -2.6538779e-01	  -4.8632066e-01	  -4.7602154e-01	
   7.6505000e+01	  -2.7494863e-01	  -4.6287374e-01	  -4.7847516e-01	
   7.6560000e+01	  -2.8448463e-01	  -4.4195957e-01	  -4.8124460e-01	
   7.6615000e+01	  -2.9396203e-01	  -4.2360660e-01	  -4.8427326e-01	
   7.6670000e+01	  -3.0338167e-01	  -4.0780287e-01	  -4.8753664e-01	
   7.6725000e+01	  -3.1277632e-01	  -3.9449971e-01	  -4.9103919e-01	
   7.6780000e+01	  -3.2220097e-01	  -3.8360927e-01	  -4.9480428e-01	
   7.6835000e+01	  -3.3171825e-01	  -3.7499843e-01	  -4.9885893e-01	
   7.6890000e+01	  -3.4138333e-01	  -3.6848313e-01	  -5.0321704e-01	
   7.6945000e+01	  -3.5123195e-01	  -3.6382778e-01	  -5.0786635e-01	
   7.7000000e+01	  -3.6127366e-01	  -3.6075193e-01	  -5.1276221e-01	
   7.7055000e+01	  -3.7149061e-01	  -3.5894370e-01	  -5.1782921e-01	
   7.7110000e+01	  -3.8184075e-01	  -3.5807702e-01	  -5.2296868e-01	
   7.7165000e+01	  -3.9226423e-01	  -3.5782994e-01	  -5.2807022e-01	
   7.7220000e+01	  -4.0269198e-01	  -3.5790291e-01	  -5.3302512e-01	
   7.7275000e+01	  -4.1305510e-01	  -3.5803547e-01	  -5.3773883e-01	
   7.7330000e+01	  -4.2329359e-01	  -3.5801791e-01	  -5.4213976e-01	
   7.7385000e+01	  -4.3336224e-01	  -3.5769485e-01	  -5.4618329e-01	
   7.7440000e+01	  -4.4323149e-01	  -3.5696062e-01	  -5.4985146e-01	
   7.7495000e+01	  -4.5288221e-01	  -3.5574970e-01	  -5.5314811e-01	
   7.7550000e+01	  -4.6229535e-01	  -3.5402524e-01	  -5.5608807e-01	
   7.7605000e+01	  -4.7143908e-01	  -3.5176784e-01	  -5.5868139e-01	
   7.7660000e+01	  -4.8025723e-01	  -3.4896650e-01	  -5.6091657e-01	
   7.7715000e+01	  -4.8866272e-01	  -3.4561340e-01	  -5.6274921e-01	
   7.7770000e+01	  -4.9653779e-01	  -3.4170345e-01	  -5.6410028e-01	
   7.7825000e+01	  -5.0374002e-01	  -3.3723793e-01	  -5.6486355e-01	
   7.7880000e+01	  -5.1011256e-01	  -3.3223039e-01	  -5.6491894e-01	
   7.7935000e+01	  -5.1549673e-01	  -3.2671427e-01	  -5.6414872e-01	
   7.7990000e+01	  -5.1974593e-01	  -3.2075142e-01	  -5.6245463e-01	
   7.8045000e+01	  -5.2273885e-01	  -3.1443937e-01	  -5.5977283e-01	
   7.8100000e+01	  -5.2438989e-01	  -3.0791450e-01	  -5.5608391e-01	
   7.8155000e+01	  -5.2465396e-01	  -3.0134980e-01	  -5.5141541e-01	
   7.8210000e+01	  -5.2352351e-01	  -2.9494808e-01	  -5.4583482e-01	
   7.8265000e+01	  -5.2101797e-01	  -2.8893225e-01	  -5.3943355e-01	
   7.8320000e+01	  -5.1716882e-01	  -2.8353480e-01	  -5.3230581e-01	
   7.8375000e+01	  -5.1200544e-01	  -2.7898939e-01	  -5.2452968e-01	
   7.8430000e+01	  -5.0554593e-01	  -2.7552575e-01	  -5.1615572e-01	
   7.8485000e+01	  -4.9779465e-01	  -2.7336708e-01	  -5.0720499e-01	
   7.8540000e+01	  -4.8874556e-01	  -2.7272820e-01	  -4.9767488e-01	
   7.8595000e+01	  -4.7838954e-01	  -2.7381367e-01	  -4.8755103e-01	
   7.8650000e+01	  -4.6672431e-01	  -2.7681695e-01	  -4.7682391e-01	
   7.8705000e+01	  -4.5376513e-01	  -2.8192074e-01	  -4.6550771e-01	
   7.8760000e+01	  -4.3955411e-01	  -2.8929541e-01	  -4.5365671e-01	
   7.8815000e+01	  -4.2416582e-01	  -2.9909297e-01	  -4.4137391e-01	
   7.8870000e+01	  -4.0770801e-01	  -3.1143546e-01	  -4.2880868e-01	
   7.8925000e+01	  -3.9031709e-01	  -3.2639936e-01	  -4.1614448e-01	
   7.8980000e+01	  -3.7214853e-01	  -3.4399739e-01	  -4.0358046e-01	
   7.9035000e+01	  -3.5336415e-01	  -3.6415983e-01	  -3.9131154e-01	
   7.9090000e+01	  -3.3411949e-01	  -3.8671841e-01	  -3.7951185e-01	
   7.9145000e+01	  -3.1455475e-01	  -4.1139515e-01	  -3.6832451e-01	
   7.9200000e+01	  -2.9479100e-01	  -4.3779679e-01	  -3.5785832e-01	
   7.9255000e+01	  -2.7493184e-01	  -4.6541560e-01	  -3.4819043e-01	
   7.9310000e+01	  -2.5506967e-01	  -4.9363863e-01	  -3.3937417e-01	
   7.9365000e+01	  -2.3529565e-01	  -5.2176795e-01	  -3.3144993e-01	
   7.9420000e+01	  -2.1571079e-01	  -5.4905091e-01	  -3.2445544e-01	
   7.9475000e+01	  -1.9643572e-01	  -5.7471552e-01	  -3.1843211e-01	
   7.9530000e+01	  -1.7761737e-01	  -5.9800535e-01	  -3.1342735e-01	
   7.9585000e+01	  -1.5943178e-01	  -6.1821028e-01	  -3.0949371e-01	
   7.9640000e+01	  -1.4208108e-01	  -6.3469016e-01	  -3.0668313e-01	
   7.9695000e+01	  -1.2578243e-01	  -6.4688797e-01	  -3.0503375e-01	
   7.9750000e+01	  -1.1074994e-01	  -6.5433183e-01	  -3.0454919e-01	
   7.9805000e+01	  -9.7174046e-02	  -6.5662980e-01	  -3.0517563e-01	
   7.9860000e+01	  -8.5204462e-02	  -6.5346326e-01	  -3.0678545e-01	
   7.9915000e+01	  -7.4940267e-02	  -6.4458374e-01	  -3.0917391e-01	
   7.9970000e+01	  -6.6427789e-02	  -6.2981647e-01	  -3.1206971e-01	
   8.0025000e+01	  -5.9664563e-02	  -6.0907127e-01	  -3.1515611e-01	
   8.0080000e+01	  -5.4607610e-02	  -5.8235968e-01	  -3.1809733e-01	
   8.0135000e+01	  -5.1184774e-02	  -5.4981485e-01	  -3.2056635e-01	
   8.0190000e+01	  -4.9307456e-02	  -5.1170940e-01	  -3.2227088e-01	
   8.0245000e+01	  -4.8882377e-02	  -4.6846695e-01	  -3.2297507e-01	
   8.0300000e+01	  -4.9819859e-02	  -4.2066502e-01	  -3.2251445e-01	
   8.0355000e+01	  -5.2036664e-02	  -3.6902707e-01	  -3.2080063e-01	
   8.0410000e+01	  -5.5452595e-02	  -3.1440178e-01	  -3.1781416e-01	
   8.0465000e+01	  -5.9982355e-02	  -2.5773061e-01	  -3.1358812e-01	
   8.0520000e+01	  -6.5526018e-02	  -2.0000726e-01	  -3.0818808e-01	
   8.0575000e+01	  -7.1961298e-02	  -1.4223243e-01	  -3.0169460e-01	
   8.0630000e+01	  -7.9139396e-02	  -8.5367241e-02	  -2.9419131e-01	
   8.0685000e+01	  -8.6885362e-02	  -3.0291032e-02	  -2.8575914e-01	
   8.0740000e+01	  -9.5003399e-02	   2.2230276e-02	  -2.7647580e-01	
   8.0795000e+01	  -1.0328684e-01	   7.1561932e-02	  -2.6642023e-01	
   8.0850000e+01	  -1.1153173e-01	   1.1720610e-01	  -2.5568026e-01	
   8.0905000e+01	  -1.1955224e-01	   1.5879942e-01	  -2.4436085e-01	
   8.0960000e+01	  -1.2719588e-01	   1.9610593e-01	  -2.3259034e-01	
   8.1015000e+01	  -1.3435616e-01	   2.2900770e-01	  -2.2052430e-01	
   8.1070000e+01	  -1.4098021e-01	   2.5749466e-01	  -2.0834594e-01	
   8.1125000e+01	  -1.4706920e-01	   2.8165338e-01	  -1.9626057e-01	
   8.1180000e+01	  -1.5267096e-01	   3.0165473e-01	  -1.8448248e-01	
   8.1235000e+01	  -1.5786675e-01	   3.1774112e-01	  -1.7321633e-01	
   8.1290000e+01	  -1.6275591e-01	   3.3021503e-01	  -1.6263882e-01	
   8.1345000e+01	  -1.6744161e-01	   3.3942958e-01	  -1.5288587e-01	
   8.1400000e+01	  -1.7201984e-01	   3.4577976e-01	  -1.4404836e-01	
   8.1455000e+01	  -1.7657239e-01	   3.4969132e-01	  -1.3617565e-01	
   8.1510000e+01	  -1.8116339e-01	   3.5160623e-01	  -1.2928379e-01	
   8.1565000e+01	  -1.8583867e-01	   3.5196625e-01	  -1.2336515e-01	
   8.1620000e+01	  -1.9062813e-01	   3.5119651e-01	  -1.1839846e-01	
   8.1675000e+01	  -1.9555066e-01	   3.4969003e-01	  -1.1435923e-01	
   8.1730000e+01	  -2.0061940e-01	   3.4779375e-01	  -1.1122868e-01	
   8.1785000e+01	  -2.0584399e-01	   3.4579889e-01	  -1.0899711e-01	
   8.1840000e+01	  -2.1122717e-01	   3.4393818e-01	  -1.0765947e-01	
   8.1895000e+01	  -2.1675616e-01	   3.4239067e-01	  -1.0720493e-01	
   8.1950000e+01	  -2.2239176e-01	   3.4129119e-01	  -1.0760411e-01	
   8.2005000e+01	  -2.2805963e-01	   3.4074116e-01	  -1.0879744e-01	
   8.2060000e+01	  -2.3364680e-01	   3.4081825e-01	  -1.1068755e-01	
   8.2115000e+01	  -2.3900504e-01	   3.4158394e-01	  -1.1313833e-01	
   8.2170000e+01	  -2.4396065e-01	   3.4308839e-01	  -1.1598171e-01	
   8.2225000e+01	  -2.4832907e-01	   3.4537211e-01	  -1.1903107e-01	
   8.2280000e+01	  -2.5193164e-01	   3.4846510e-01	  -1.2209810e-01	
   8.2335000e+01	  -2.5461160e-01	   3.5238448e-01	  -1.2501022e-01	
   8.2390000e+01	  -2.5624671e-01	   3.5713156e-01	  -1.2762535e-01	
   8.2445000e+01	  -2.5675625e-01	   3.6268895e-01	  -1.2984186e-01	
   8.2500000e+01	  -2.5610179e-01	   3.6901891e-01	  -1.3160086e-01	
   8.2555000e+01	  -2.5428175e-01	   3.7606318e-01	  -1.3287961e-01	
   8.2610000e+01	  -2.5132137e-01	   3.8374386e-01	  -1.3367753e-01	
   8.2665000e+01	  -2.4726023e-01	   3.9196505e-01	  -1.3399860e-01	
   8.2720000e+01	  -2.4214015e-01	   4.0061521e-01	  -1.3383504e-01	
   8.2775000e+01	  -2.3599619e-01	   4.0956959e-01	  -1.3315715e-01	
   8.2830000e+01	  -2.2885239e-01	   4.1869187e-01	  -1.3191194e-01	
   8.2885000e+01	  -2.2072295e-01	   4.2783460e-01	  -1.3003019e-01	
   8.2940000e+01	  -2.1161839e-01	   4.3683872e-01	  -1.2743888e-01	
   8.2995000e+01	  -2.0155530e-01	   4.4553230e-01	  -1.2407695e-01	
   8.3050000e+01	  -1.9056721e-01	   4.5372969e-01	  -1.1991229e-01	
   8.3105000e+01	  -1.7871418e-01	   4.6123278e-01	  -1.1495655e-01	
   8.3160000e+01	  -1.6608809e-01	   4.6783520e-01	  -1.0927277e-01	
   8.3215000e+01	  -1.5281239e-01	   4.7333015e-01	  -1.0297339e-01	
   8.3270000e+01	  -1.3903570e-01	   4.7752283e-01	  -9.6208956e-02	
   8.3325000e+01	  -1.2492028e-01	   4.8024835e-01	  -8.9149696e-02	
   8.3380000e+01	  -1.1062797e-01	   4.8139409e-01	  -8.1963775e-02	
   8.3435000e+01	  -9.6307200e-02	   4.8092243e-01	  -7.4797223e-02	
   8.3490000e+01	  -8.2084352e-02	   4.7888859e-01	  -6.7760473e-02	
   8.3545000e+01	  -6.8060975e-02	   4.7544905e-01	  -6.0924046e-02	
   8.3600000e+01	  -5.4316906e-02	   4.7085804e-01	  -5.4323209e-02	
   8.3655000e+01	  -4.0917872e-02	   4.6545176e-01	  -4.7969271e-02	
   8.3710000e+01	  -2.7925549e-02	   4.5962303e-01	  -4.1864547e-02	
   8.3765000e+01	  -1.5407771e-02	   4.5379177e-01	  -3.6018114e-02	
   8.3820000e+01	  -3.4464355e-03	   4.4837733e-01	  -3.0458965e-02	
   8.3875000e+01	   7.8588708e-03	   4.4377683e-01	  -2.5242927e-02	
   8.3930000e+01	   1.8392530e-02	   4.4035060e-01	  -2.0451039e-02	
   8.3985000e+01	   2.8029776e-02	   4.3841479e-01	  -1.6179357e-02	
   8.4040000e+01	   3.6647720e-02	   4.3824058e-01	  -1.2521890e-02	
   8.4095000e+01	   4.4138425e-02	   4.4005795e-01	  -9.5499521e-03	
   8.4150000e+01	   5.0421426e-02	   4.4405958e-01	  -7.2929822e-03	
   8.4205000e+01	   5.5453395e-02	   4.5040084e-01	  -5.7266748e-03	
   8.4260000e+01	   5.9233261e-02	   4.5919504e-01	  -4.7721084e-03	
   8.4315000e+01	   6.1802074e-02	   4.7050507e-01	  -4.3051311e-03	
   8.4370000e+01	   6.3237897e-02	   4.8433346e-01	  -4.1721588e-03	
   8.4425000e+01	   6.3646536e-02	   5.0061263e-01	  -4.2088944e-03	
   8.4480000e+01	   6.3148977e-02	   5.1919800e-01	  -4.2597823e-03	
   8.4535000e+01	   6.1867052e-02	   5.3986683e-01	  -4.1961668e-03	
   8.4590000e+01	   5.9909984e-02	   5.6232466e-01	  -3.9310564e-03	
   8.4645000e+01	   5.7364782e-02	   5.8621864e-01	  -3.4281241e-03	
   8.4700000e+01	   5.4292411e-02	   6.1115600e-01	  -2.7018995e-03	
   8.4755000e+01	   5.0730081e-02	   6.3672584e-01	  -1.8075625e-03	
   8.4810000e+01	   4.6698487e-02	   6.6252098e-01	  -8.2322803e-04	
   8.4865000e+01	   4.2211333e-02	   6.8815507e-01	   1.6895055e-04	
   8.4920000e+01	   3.7284278e-02	   7.1327281e-01	   1.0975736e-03	
   8.4975000e+01	   3.1941638e-02	   7.3755511e-01	   1.9109639e-03	
   8.5030000e+01	   2.6220098e-02	   7.6072225e-01	   2.5808210e-03	
   8.5085000e+01	   2.0168451e-02	   7.8253643e-01	   3.1011071e-03	
   8.5140000e+01	   1.3843043e-02	   8.0280296e-01	   3.4824915e-03	
   8.5195000e+01	   7.3008381e-03	   8.2136900e-01	   3.7434601e-03	
   8.5250000e+01	   5.9323613e-04	   8.3811892e-01	   3.9001162e-03	
   8.5305000e+01	  -6.2373810e-03	   8.5296725e-01	   3.9571953e-03	
   8.5360000e+01	  -1.3157722e-02	   8.6585272e-01	   3.9034344e-03	
   8.5415000e+01	  -2.0139832e-02	   8.7673665e-01	   3.7143939e-03	
   8.5470000e+01	  -2.7153649e-02	   8.8560682e-01	   3.3635913e-03	
   8.5525000e+01	  -3.4157833e-02	   8.9248465e-01	   2.8389862e-03	
   8.5580000e+01	  -4.1092112e-02	   8.9743291e-01	   2.1592314e-03	
   8.5635000e+01	  -4.7873343e-02	   9.0056103e-01	   1.3846494e-03	
   8.5690000e+01	  -5.4395317e-02	   9.0202615e-01	   6.2056480e-04	
   8.5745000e+01	  -6.0531483e-02	   9.0202815e-01	   1.2618005e-05	
   8.5800000e+01	  -6.6140559e-02	   9.0079773e-01	  -2.6576886e-04	
   8.5855000e+01	  -7.1075379e-02	   8.9858032e-01	  -3.2152904e-05	
   8.5910000e+01	  -7.5194143e-02	   8.9562039e-01	   8.8436387e-04	
   8.5965000e+01	  -7.8371823e-02	   8.9214931e-01	   2.6259170e-03	
   8.6020000e+01	  -8.0509373e-02	   8.8837600e-01	   5.2950197e-03	
   8.6075000e+01	  -8.1538747e-02	   8.8448037e-01	   8.9514979e-03	
   8.6130000e+01	  -8.1422003e-02	   8.8061181e-01	   1.3618152e-02	
   8.6185000e+01	  -8.0144605e-02	   8.7689397e-01	   1.9293610e-02	
   8.6240000e+01	  -7.7706122e-02	   8.7343199e-01	   2.5967187e-02	
   8.6295000e+01	  -7.4112575e-02	   8.7031697e-01	   3.3630076e-02	
   8.6350000e+01	  -6.9372498e-02	   8.6762595e-01	   4.2280425e-02	
   8.6405000e+01	  -6.3496142e-02	   8.6541967e-01	   5.1922815e-02	
   8.6460000e+01	  -5.6496903e-02	   8.6374016e-01	   6.2563438e-02	
   8.6515000e+01	  -4.8395250e-02	   8.6260775e-01	   7.4202181e-02	
   8.6570000e+01	  -3.9225380e-02	   8.6201668e-01	   8.6822902e-02	
   8.6625000e+01	  -2.9043196e-02	   8.6193013e-01	   1.0038320e-01	
   8.6680000e+01	  -1.7933115e-02	   8.6227784e-01	   1.1480524e-01	
   8.6735000e+01	  -6.0113928e-03	   8.6295885e-01	   1.2997006e-01	
   8.6790000e+01	   6.5762475e-03	   8.6385098e-01	   1.4571867e-01	
   8.6845000e+01	   1.9664345e-02	   8.6482688e-01	   1.6186223e-01	
   8.6900000e+01	   3.3083512e-02	   8.6577407e-01	   1.7819997e-01	
   8.6955000e+01	   4.6677458e-02	   8.6661353e-01	   1.9454043e-01	
   8.7010000e+01	   6.0315715e-02	   8.6731223e-01	   2.1071962e-01	
   8.7065000e+01	   7.3899119e-02	   8.6788817e-01	   2.2661198e-01	
   8.7120000e+01	   8.7358140e-02	   8.6840938e-01	   2.4213287e-01	
   8.7175000e+01	   1.0064576e-01	   8.6898822e-01	   2.5723385e-01	
   8.7230000e+01	   1.1372701e-01	   8.6977120e-01	   2.7189239e-01	
   8.7285000e+01	   1.2656704e-01	   8.7092437e-01	   2.8609764e-01	
   8.7340000e+01	   1.3912018e-01	   8.7261618e-01	   2.9983507e-01	
   8.7395000e+01	   1.5132186e-01	   8.7500060e-01	   3.1307362e-01	
   8.7450000e+01	   1.6308512e-01	   8.7820326e-01	   3.2575864e-01	
   8.7505000e+01	   1.7430298e-01	   8.8231358e-01	   3.3781330e-01	
   8.7560000e+01	   1.8485757e-01	   8.8738458e-01	   3.4914888e-01	
   8.7615000e+01	   1.9463443e-01	   8.9343899e-01	   3.5968204e-01	
   8.7670000e+01	   2.0353803e-01	   9.0047742e-01	   3.6935382e-01	
   8.7725000e+01	   2.1150391e-01	   9.0848462e-01	   3.7814513e-01	
   8.7780000e+01	   2.1850522e-01	   9.1743237e-01	   3.8608483e-01	
   8.7835000e+01	   2.2455307e-01	   9.2727952e-01	   3.9324931e-01	
   8.7890000e+01	   2.2969099e-01	   9.3797017e-01	   3.9975382e-01	
   8.7945000e+01	   2.3398484e-01	   9.4943024e-01	   4.0573679e-01	
   8.8000000e+01	   2.3751016e-01	   9.6156264e-01	   4.1133976e-01	
   8.8055000e+01	   2.4033895e-01	   9.7424204e-01	   4.1668605e-01	
   8.8110000e+01	   2.4252690e-01	   9.8731075e-01	   4.2186182e-01	
   8.8165000e+01	   2.4410254e-01	   1.0005774e+00	   4.2690351e-01	
   8.8220000e+01	   2.4506052e-01	   1.0138212e+00	   4.3179519e-01	
   8.8275000e+01	   2.4536247e-01	   1.0268039e+00	   4.3647745e-01	
   8.8330000e+01	   2.4494593e-01	   1.0392894e+00	   4.4086563e-01	
   8.8385000e+01	   2.4373902e-01	   1.0510643e+00	   4.4487333e-01	
   8.8440000e+01	   2.4167656e-01	   1.0619552e+00	   4.4843577e-01	
   8.8495000e+01	   2.3871411e-01	   1.0718384e+00	   4.5152816e-01	
   8.8550000e+01	   2.3483784e-01	   1.0806427e+00	   4.5417524e-01	
   8.8605000e+01	   2.3006881e-01	   1.0883455e+00	   4.5645032e-01	
   8.8660000e+01	   2.2446065e-01	   1.0949655e+00	   4.5846442e-01	
   8.8715000e+01	   2.1809162e-01	   1.1005510e+00	   4.6034773e-01	
   8.8770000e+01	   2.1105323e-01	   1.1051691e+00	   4.6222674e-01	
   8.8825000e+01	   2.0343817e-01	   1.1088954e+00	   4.6420099e-01	
   8.8880000e+01	   1.9532951e-01	   1.1118074e+00	   4.6632458e-01	
   8.8935000e+01	   1.8679296e-01	   1.1139811e+00	   4.6859582e-01	
   8.8990000e+01	   1.7787415e-01	   1.1154913e+00	   4.7095688e-01	
   8.9045000e+01	   1.6860182e-01	   1.1164134e+00	   4.7330355e-01	
   8.9100000e+01	   1.5899577e-01	   1.1168250e+00	   4.7550282e-01	
   8.9155000e+01	   1.4907694e-01	   1.1168053e+00	   4.7741285e-01	
   8.9210000e+01	   1.3887640e-01	   1.1164304e+00	   4.7890045e-01	
   8.9265000e+01	   1.2844117e-01	   1.1157659e+00	   4.7985288e-01	
   8.9320000e+01	   1.1783507e-01	   1.1148567e+00	   4.8018329e-01	
   8.9375000e+01	   1.0713489e-01	   1.1137187e+00	   4.7983110e-01	
   8.9430000e+01	   9.6423411e-02	   1.1123321e+00	   4.7875919e-01	
   8.9485000e+01	   8.5781645e-02	   1.1106406e+00	   4.7694930e-01	
   8.9540000e+01	   7.5282084e-02	   1.1085538e+00	   4.7439622e-01	
   8.9595000e+01	   6.4984623e-02	   1.1059528e+00	   4.7110166e-01	
   8.9650000e+01	   5.4936428e-02	   1.1026972e+00	   4.6707011e-01	
   8.9705000e+01	   4.5176694e-02	   1.0986331e+00	   4.6231022e-01	
   8.9760000e+01	   3.5745902e-02	   1.0936037e+00	   4.5684307e-01	
   8.9815000e+01	   2.6697034e-02	   1.0874620e+00	   4.5071528e-01	
   8.9870000e+01	   1.8105431e-02	   1.0800844e+00	   4.4401236e-01	
   8.9925000e+01	   1.0074835e-02	   1.0713822e+00	   4.3686671e-01	
   8.9980000e+01	   2.7381743e-03	   1.0613082e+00	   4.2945657e-01	
   9.0035000e+01	  -3.7479101e-03	   1.0498555e+00	   4.2199502e-01	
   9.0090000e+01	  -9.2148301e-03	   1.0370503e+00	   4.1471056e-01	
   9.0145000e+01	  -1.3498871e-02	   1.0229411e+00	   4.0782201e-01	
   9.0200000e+01	  -1.6460649e-02	   1.0075872e+00	   4.0151101e-01	
   9.0255000e+01	  -1.8004151e-02	   9.9104709e-01	   3.9589591e-01	
   9.0310000e+01	  -1.8091954e-02	   9.7337309e-01	   3.9101236e-01	
   9.0365000e+01	  -1.6753130e-02	   9.5461231e-01	   3.8680687e-01	
   9.0420000e+01	  -1.4081520e-02	   9.3481611e-01	   3.8314747e-01	
   9.0475000e+01	  -1.0224491e-02	   9.1405574e-01	   3.7984951e-01	
   9.0530000e+01	  -5.3649584e-03	   8.9244081e-01	   3.7670954e-01	
   9.0585000e+01	   2.9877668e-04	   8.7013640e-01	   3.7353817e-01	
   9.0640000e+01	   6.5706594e-03	   8.4737507e-01	   3.7018454e-01	
   9.0695000e+01	   1.3269038e-02	   8.2446086e-01	   3.6654866e-01	
   9.0750000e+01	   2.0232872e-02	   8.0176311e-01	   3.6258330e-01	
   9.0805000e+01	   2.7323021e-02	   7.7969993e-01	   3.5828891e-01	
   9.0860000e+01	   3.4419531e-02	   7.5871372e-01	   3.5370436e-01	
   9.0915000e+01	   4.1415453e-02	   7.3924262e-01	   3.4889352e-01	
   9.0970000e+01	   4.8208168e-02	   7.2169155e-01	   3.4392809e-01	
   9.1025000e+01	   5.4690382e-02	   7.0640755e-01	   3.3886948e-01	
   9.1080000e+01	   6.0743768e-02	   6.9366386e-01	   3.3375502e-01	
   9.1135000e+01	   6.6237922e-02	   6.8365524e-01	   3.2859378e-01	
   9.1190000e+01	   7.1035884e-02	   6.7650399e-01	   3.2337442e-01	
   9.1245000e+01	   7.5005183e-02	   6.7227415e-01	   3.1808269e-01	
   9.1300000e+01	   7.8031574e-02	   6.7098998e-01	   3.1272316e-01	
   9.1355000e+01	   8.0031791e-02	   6.7265386e-01	   3.0733824e-01	
   9.1410000e+01	   8.0962100e-02	   6.7726107e-01	   3.0201916e-01	
   9.1465000e+01	   8.0820996e-02	   6.8481062e-01	   2.9690622e-01	
   9.1520000e+01	   7.9646426e-02	   6.9531192e-01	   2.9217841e-01	
   9.1575000e+01	   7.7508693e-02	   7.0878441e-01	   2.8803475e-01	
   9.1630000e+01	   7.4500057e-02	   7.2524754e-01	   2.8467161e-01	
   9.1685000e+01	   7.0722383e-02	   7.4470107e-01	   2.8225953e-01	
   9.1740000e+01	   6.6274984e-02	   7.6710070e-01	   2.8092281e-01	
   9.1795000e+01	   6.1244684e-02	   7.9233546e-01	   2.8072404e-01	
   9.1850000e+01	   5.5699561e-02	   8.2021066e-01	   2.8165626e-01	
   9.1905000e+01	   4.9687658e-02	   8.5043747e-01	   2.8364417e-01	
   9.1960000e+01	   4.3241532e-02	   8.8263083e-01	   2.8655438e-01	
   9.2015000e+01	   3.6387585e-02	   9.1631933e-01	   2.9021371e-01	
   9.2070000e+01	   2.9156788e-02	   9.5096698e-01	   2.9443172e-01	
   9.2125000e+01	   2.1592894e-02	   9.8600209e-01	   2.9902220e-01	
   9.2180000e+01	   1.3756049e-02	   1.0208473e+00	   3.0381918e-01	
   9.2235000e+01	   5.7219905e-03	   1.0549466e+00	   3.0868494e-01	
   9.2290000e+01	  -2.4219253e-03	   1.0877867e+00	   3.1350888e-01	
   9.2345000e+01	  -1.0582875e-02	   1.1189101e+00	   3.1819837e-01	
   9.2400000e+01	  -1.8669939e-02	   1.1479205e+00	   3.2266553e-01	
   9.2455000e+01	  -2.6601525e-02	   1.1744823e+00	   3.2681413e-01	
   9.2510000e+01	  -3.4311601e-02	   1.1983186e+00	   3.3052938e-01	
   9.2565000e+01	  -4.1753542e-02	   1.2192090e+00	   3.3367363e-01	
   9.2620000e+01	  -4.8900248e-02	   1.2369887e+00	   3.3609033e-01	
   9.2675000e+01	  -5.5739318e-02	   1.2515517e+00	   3.3761722e-01	
   9.2730000e+01	  -6.2263720e-02	   1.2628554e+00	   3.3810601e-01	
   9.2785000e+01	  -6.8461101e-02	   1.2709275e+00	   3.3744366e-01	
   9.2840000e+01	  -7.4305608e-02	   1.2758689e+00	   3.3557001e-01	
   9.2895000e+01	  -7.9753920e-02	   1.2778537e+00	   3.3248850e-01	
   9.2950000e+01	  -8.4745131e-02	   1.2771242e+00	   3.2826908e-01	
   9.3005000e+01	  -8.9203992e-02	   1.2739826e+00	   3.2304293e-01	
   9.3060000e+01	  -9.3047437e-02	   1.2687800e+00	   3.1698881e-01	
   9.3115000e+01	  -9.6193404e-02	   1.2619004e+00	   3.1031397e-01	
   9.3170000e+01	  -9.8569862e-02	   1.2537453e+00	   3.0323410e-01	
   9.3225000e+01	  -1.0012232e-01	   1.2447168e+00	   2.9595612e-01	
   9.3280000e+01	  -1.0081864e-01	   1.2352043e+00	   2.8866548e-01	
   9.3335000e+01	  -1.0064976e-01	   1.2255733e+00	   2.8152055e-01	
   9.3390000e+01	  -9.9625162e-02	   1.2161583e+00	   2.7465522e-01	
   9.3445000e+01	  -9.7764344e-02	   1.2072579e+00	   2.6818788e-01	
   9.3500000e+01	  -9.5086998e-02	   1.1991302e+00	   2.6223156e-01	
   9.3555000e+01	  -9.1605447e-02	   1.1919892e+00	   2.5690049e-01	
   9.3610000e+01	  -8.7321370e-02	   1.1860019e+00	   2.5231003e-01	
   9.3665000e+01	  -8.2227211e-02	   1.1812864e+00	   2.4856902e-01	
   9.3720000e+01	  -7.6311428e-02	   1.1779108e+00	   2.4576611e-01	
   9.3775000e+01	  -6.9566467e-02	   1.1758909e+00	   2.4395282e-01	
   9.3830000e+01	  -6.1997918e-02	   1.1751908e+00	   2.4312733e-01	
   9.3885000e+01	  -5.3632737e-02	   1.1757280e+00	   2.4322326e-01	
   9.3940000e+01	  -4.4524443e-02	   1.1773815e+00	   2.4410596e-01	
   9.3995000e+01	  -3.4753537e-02	   1.1800049e+00	   2.4557803e-01	
   9.4050000e+01	  -2.4421969e-02	   1.1834410e+00	   2.4739340e-01	
   9.4105000e+01	  -1.3642327e-02	   1.1875398e+00	   2.4927840e-01	
   9.4160000e+01	  -2.5250741e-03	   1.1921752e+00	   2.5095612e-01	
   9.4215000e+01	   8.8322034e-03	   1.1972592e+00	   2.5217000e-01	
   9.4270000e+01	   2.0351381e-02	   1.2027502e+00	   2.5270320e-01	
   9.4325000e+01	   3.1975683e-02	   1.2086559e+00	   2.5239146e-01	
   9.4380000e+01	   4.3666795e-02	   1.2150296e+00	   2.5112698e-01	
   9.4435000e+01	   5.5397746e-02	   1.2219592e+00	   2.4885262e-01	
   9.4490000e+01	   6.7143463e-02	   1.2295502e+00	   2.4554900e-01	
   9.4545000e+01	   7.8871580e-02	   1.2379051e+00	   2.4121907e-01	
   9.4600000e+01	   9.0535523e-02	   1.2471013e+00	   2.3587461e-01	
   9.4655000e+01	   1.0207101e-01	   1.2571701e+00	   2.2952734e-01	
   9.4710000e+01	   1.1339685e-01	   1.2680834e+00	   2.2218669e-01	
   9.4765000e+01	   1.2442096e-01	   1.2797489e+00	   2.1386573e-01	
   9.4820000e+01	   1.3505090e-01	   1.2920163e+00	   2.0459398e-01	
   9.4875000e+01	   1.4520572e-01	   1.3046904e+00	   1.9443315e-01	
   9.4930000e+01	   1.5482548e-01	   1.3175481e+00	   1.8348977e-01	
   9.4985000e+01	   1.6387589e-01	   1.3303550e+00	   1.7191975e-01	
   9.5040000e+01	   1.7234751e-01	   1.3428792e+00	   1.5992255e-01	
   9.5095000e+01	   1.8024928e-01	   1.3549004e+00	   1.4772595e-01	
   9.5150000e+01	   1.8759786e-01	   1.3662155e+00	   1.3556489e-01	
   9.5205000e+01	   1.9440556e-01	   1.3766429e+00	   1.2365911e-01	
   9.5260000e+01	   2.0066946e-01	   1.3860270e+00	   1.1219417e-01	
   9.5315000e+01	   2.0636357e-01	   1.3942428e+00	   1.0130866e-01	
   9.5370000e+01	   2.1143473e-01	   1.4011972e+00	   9.1087972e-02	
   9.5425000e+01	   2.1580423e-01	   1.4068296e+00	   8.1565568e-02	
   9.5480000e+01	   2.1937652e-01	   1.4111100e+00	   7.2732511e-02	
   9.5535000e+01	   2.2205358e-01	   1.4140403e+00	   6.4551980e-02	
