	
0   3   6
   0.0000000e+00	   3.8682409e-01	   2.5734181e-01	
   5.5000000e-02	   4.0829341e-01	   2.5758390e-01	
   1.1000000e-01	   4.3047122e-01	   2.5768113e-01	
   1.6500000e-01	   4.5319816e-01	   2.5766030e-01	
   2.2000000e-01	   4.7631004e-01	   2.5754764e-01	
   2.7500000e-01	   4.9963775e-01	   2.5736567e-01	
   3.3000000e-01	   5.2300525e-01	   2.5713032e-01	
   3.8500000e-01	   5.4622851e-01	   2.5684987e-01	
   4.4000000e-01	   5.6911735e-01	   2.5652645e-01	
   4.9500000e-01	   5.9148020e-01	   2.5615879e-01	
   5.5000000e-01	   6.1312971e-01	   2.5574491e-01	
   6.0500000e-01	   6.3388721e-01	   2.5528428e-01	
   6.6000000e-01	   6.5358603e-01	   2.5477968e-01	
   7.1500000e-01	   6.7207421e-01	   2.5423835e-01	
   7.7000000e-01	   6.8921826e-01	   2.5367286e-01	
   8.2500000e-01	   7.0490989e-01	   2.5310188e-01	
   8.8000000e-01	   7.1907638e-01	   2.5255088e-01	
   9.3500000e-01	   7.3169174e-01	   2.5205204e-01	
   9.9000000e-01	   7.4278477e-01	   2.5164290e-01	
   1.0450000e+00	   7.5244174e-01	   2.5136368e-01	
   1.1000000e+00	   7.6080227e-01	   2.5125355e-01	
   1.1550000e+00	   7.6804654e-01	   2.5134631e-01	
   1.2100000e+00	   7.7437612e-01	   2.5166685e-01	
   1.2650000e+00	   7.7999491e-01	   2.5222947e-01	
   1.3200000e+00	   7.8509627e-01	   2.5303793e-01	
   1.3750000e+00	   7.8985656e-01	   2.5408574e-01	
   1.4300000e+00	   7.9443212e-01	   2.5535597e-01	
   1.4850000e+00	   7.9895753e-01	   2.5682107e-01	
   1.5400000e+00	   8.0354589e-01	   2.5844342e-01	
   1.5950000e+00	   8.0829027e-01	   2.6017585e-01	
   1.6500000e+00	   8.1326394e-01	   2.6196166e-01	
   1.7050000e+00	   8.1851792e-01	   2.6373483e-01	
   1.7600000e+00	   8.2407720e-01	   2.6542165e-01	
   1.8150000e+00	   8.2993958e-01	   2.6694461e-01	
   1.8700000e+00	   8.3607915e-01	   2.6822811e-01	
   1.9250000e+00	   8.4245266e-01	   2.6920491e-01	
   1.9800000e+00	   8.4900560e-01	   2.6982251e-01	
   2.0350000e+00	   8.5567595e-01	   2.7004859e-01	
   2.0900000e+00	   8.6239589e-01	   2.6987487e-01	
   2.1450000e+00	   8.6909309e-01	   2.6931862e-01	
   2.2000000e+00	   8.7569294e-01	   2.6842237e-01	
   2.2550000e+00	   8.8212141e-01	   2.6725202e-01	
   2.3100000e+00	   8.8830658e-01	   2.6589352e-01	
   2.3650000e+00	   8.9417755e-01	   2.6444707e-01	
   2.4200000e+00	   8.9966240e-01	   2.6301886e-01	
   2.4750000e+00	   9.0468702e-01	   2.6171178e-01	
   2.5300000e+00	   9.0917486e-01	   2.6061652e-01	
   2.5850000e+00	   9.1304637e-01	   2.5980411e-01	
   2.6400000e+00	   9.1621833e-01	   2.5932111e-01	
   2.6950000e+00	   9.1860545e-01	   2.5918812e-01	
   2.7500000e+00	   9.2012548e-01	   2.5940092e-01	
   2.8050000e+00	   9.2070592e-01	   2.5993317e-01	
   2.8600000e+00	   9.2029026e-01	   2.6074034e-01	
   2.9150000e+00	   9.1884222e-01	   2.6176498e-01	
   2.9700000e+00	   9.1634762e-01	   2.6294246e-01	
   3.0250000e+00	   9.1281401e-01	   2.6420556e-01	
   3.0800000e+00	   9.0826914e-01	   2.6548732e-01	
   3.1350000e+00	   9.0276101e-01	   2.6672287e-01	
   3.1900000e+00	   8.9635966e-01	   2.6785059e-01	
   3.2450000e+00	   8.8915870e-01	   2.6881228e-01	
   3.3000000e+00	   8.8127386e-01	   2.6955256e-01	
   3.3550000e+00	   8.7283915e-01	   2.7001860e-01	
   3.4100000e+00	   8.6400221e-01	   2.7016119e-01	
   3.4650000e+00	   8.5491963e-01	   2.6993739e-01	
   3.5200000e+00	   8.4575329e-01	   2.6931470e-01	
   3.5750000e+00	   8.3666857e-01	   2.6827545e-01	
   3.6300000e+00	   8.2783340e-01	   2.6681977e-01	
   3.6850000e+00	   8.1941570e-01	   2.6496553e-01	
   3.7400000e+00	   8.1157815e-01	   2.6274539e-01	
   3.7950000e+00	   8.0447187e-01	   2.6020235e-01	
   3.8500000e+00	   7.9823155e-01	   2.5738542e-01	
   3.9050000e+00	   7.9297276e-01	   2.5434618e-01	
   3.9600000e+00	   7.8879055e-01	   2.5113654e-01	
   4.0150000e+00	   7.8575958e-01	   2.4780737e-01	
   4.0700000e+00	   7.8393611e-01	   2.4440792e-01	
   4.1250000e+00	   7.8335974e-01	   2.4098501e-01	
   4.1800000e+00	   7.8405157e-01	   2.3758200e-01	
   4.2350000e+00	   7.8600933e-01	   2.3423817e-01	
   4.2900000e+00	   7.8920269e-01	   2.3098902e-01	
   4.3450000e+00	   7.9357153e-01	   2.2786678e-01	
   4.4000000e+00	   7.9902671e-01	   2.2490042e-01	
   4.4550000e+00	   8.0545191e-01	   2.2211562e-01	
   4.5100000e+00	   8.1270542e-01	   2.1953532e-01	
   4.5650000e+00	   8.2062197e-01	   2.1718096e-01	
   4.6200000e+00	   8.2901522e-01	   2.1507365e-01	
   4.6750000e+00	   8.3768234e-01	   2.1323501e-01	
   4.7300000e+00	   8.4641197e-01	   2.1168823e-01	
   4.7850000e+00	   8.5499529e-01	   2.1045909e-01	
   4.8400000e+00	   8.6323722e-01	   2.0957597e-01	
   4.8950000e+00	   8.7096442e-01	   2.0906784e-01	
   4.9500000e+00	   8.7803057e-01	   2.0896093e-01	
   5.0050000e+00	   8.8432103e-01	   2.0927562e-01	
   5.0600000e+00	   8.8975767e-01	   2.1002395e-01	
   5.1150000e+00	   8.9430180e-01	   2.1120725e-01	
   5.1700000e+00	   8.9795386e-01	   2.1281381e-01	
   5.2250000e+00	   9.0074997e-01	   2.1481804e-01	
   5.2800000e+00	   9.0275563e-01	   2.1718155e-01	
   5.3350000e+00	   9.0405722e-01	   2.1985585e-01	
   5.3900000e+00	   9.0475193e-01	   2.2278530e-01	
   5.4450000e+00	   9.0493748e-01	   2.2590989e-01	
   5.5000000e+00	   9.0470297e-01	   2.2916748e-01	
   5.5550000e+00	   9.0412180e-01	   2.3249506e-01	
   5.6100000e+00	   9.0324643e-01	   2.3582924e-01	
   5.6650000e+00	   9.0210469e-01	   2.3910720e-01	
   5.7200000e+00	   9.0069831e-01	   2.4226878e-01	
   5.7750000e+00	   8.9900439e-01	   2.4525925e-01	
   5.8300000e+00	   8.9698000e-01	   2.4803201e-01	
   5.8850000e+00	   8.9456941e-01	   2.5055146e-01	
   5.9400000e+00	   8.9171335e-01	   2.5279579e-01	
   5.9950000e+00	   8.8835830e-01	   2.5475873e-01	
   6.0500000e+00	   8.8446306e-01	   2.5644886e-01	
   6.1050000e+00	   8.8000120e-01	   2.5788603e-01	
   6.1600000e+00	   8.7496033e-01	   2.5909629e-01	
   6.2150000e+00	   8.6934024e-01	   2.6010677e-01	
   6.2700000e+00	   8.6315054e-01	   2.6094195e-01	
   6.3250000e+00	   8.5640742e-01	   2.6162121e-01	
   6.3800000e+00	   8.4912969e-01	   2.6215805e-01	
   6.4350000e+00	   8.4133551e-01	   2.6256099e-01	
   6.4900000e+00	   8.3303949e-01	   2.6283491e-01	
   6.5450000e+00	   8.2424968e-01	   2.6298217e-01	
   6.6000000e+00	   8.1496595e-01	   2.6300403e-01	
   6.6550000e+00	   8.0518292e-01	   2.6290317e-01	
   6.7100000e+00	   7.9489647e-01	   2.6268602e-01	
   6.7650000e+00	   7.8411086e-01	   2.6236316e-01	
   6.8200000e+00	   7.7284444e-01	   2.6194777e-01	
   6.8750000e+00	   7.6113386e-01	   2.6145273e-01	
   6.9300000e+00	   7.4903590e-01	   2.6088750e-01	
   6.9850000e+00	   7.3662677e-01	   2.6025527e-01	
   7.0400000e+00	   7.2399969e-01	   2.5955158e-01	
   7.0950000e+00	   7.1126184e-01	   2.5876509e-01	
   7.1500000e+00	   6.9853076e-01	   2.5787991e-01	
   7.2050000e+00	   6.8592881e-01	   2.5687891e-01	
   7.2600000e+00	   6.7357532e-01	   2.5574759e-01	
   7.3150000e+00	   6.6157841e-01	   2.5447796e-01	
   7.3700000e+00	   6.5002910e-01	   2.5307139e-01	
   7.4250000e+00	   6.3899772e-01	   2.5153828e-01	
   7.4800000e+00	   6.2852992e-01	   2.4989474e-01	
   7.5350000e+00	   6.1864142e-01	   2.4815781e-01	
   7.5900000e+00	   6.0931342e-01	   2.4634163e-01	
   7.6450000e+00	   6.0048946e-01	   2.4445464e-01	
   7.7000000e+00	   5.9207356e-01	   2.4249718e-01	
   7.7550000e+00	   5.8393126e-01	   2.4045981e-01	
   7.8100000e+00	   5.7589563e-01	   2.3832320e-01	
   7.8650000e+00	   5.6777853e-01	   2.3605941e-01	
   7.9200000e+00	   5.5938509e-01	   2.3363305e-01	
   7.9750000e+00	   5.5052884e-01	   2.3100167e-01	
   8.0300000e+00	   5.4104495e-01	   2.2811572e-01	
   8.0850000e+00	   5.3079931e-01	   2.2491901e-01	
   8.1400000e+00	   5.1969270e-01	   2.2135106e-01	
   8.1950000e+00	   5.0765994e-01	   2.1735197e-01	
   8.2500000e+00	   4.9466417e-01	   2.1286882e-01	
   8.3050000e+00	   4.8068746e-01	   2.0786168e-01	
   8.3600000e+00	   4.6572099e-01	   2.0230785e-01	
   8.4150000e+00	   4.4975940e-01	   1.9620440e-01	
   8.4700000e+00	   4.3280289e-01	   1.8957044e-01	
   8.5250000e+00	   4.1486567e-01	   1.8244933e-01	
   8.5800000e+00	   3.9598453e-01	   1.7490964e-01	
   8.6350000e+00	   3.7622251e-01	   1.6704346e-01	
   8.6900000e+00	   3.5566750e-01	   1.5896314e-01	
   8.7450000e+00	   3.3442770e-01	   1.5079750e-01	
   8.8000000e+00	   3.1262620e-01	   1.4268769e-01	
   8.8550000e+00	   2.9039730e-01	   1.3478132e-01	
   8.9100000e+00	   2.6788571e-01	   1.2722461e-01	
   8.9650000e+00	   2.4524815e-01	   1.2015379e-01	
   9.0200000e+00	   2.2265477e-01	   1.1368773e-01	
   9.0750000e+00	   2.0028803e-01	   1.0792301e-01	
   9.1300000e+00	   1.7833831e-01	   1.0293188e-01	
   9.1850000e+00	   1.5699806e-01	   9.8762422e-02	
   9.2400000e+00	   1.3645632e-01	   9.5438638e-02	
   9.2950000e+00	   1.1689380e-01	   9.2959602e-02	
   9.3500000e+00	   9.8478649e-02	   9.1298634e-02	
   9.4050000e+00	   8.1362631e-02	   9.0404630e-02	
   9.4600000e+00	   6.5677282e-02	   9.0206101e-02	
   9.5150000e+00	   5.1529608e-02	   9.0616415e-02	
   9.5700000e+00	   3.8996882e-02	   9.1538374e-02	
   9.6250000e+00	   2.8120675e-02	   9.2867294e-02	
   9.6800000e+00	   1.8900876e-02	   9.4493018e-02	
   9.7350000e+00	   1.1290195e-02	   9.6301787e-02	
   9.7900000e+00	   5.1893543e-03	   9.8178872e-02	
   9.8450000e+00	   4.4446750e-04	   1.0001223e-01	
   9.9000000e+00	  -3.1510189e-03	   1.0169635e-01	
   9.9550000e+00	  -5.8491796e-03	   1.0313467e-01	
   1.0010000e+01	  -7.9366197e-03	   1.0423993e-01	
   1.0065000e+01	  -9.7210780e-03	   1.0493364e-01	
   1.0120000e+01	  -1.1516589e-02	   1.0514612e-01	
   1.0175000e+01	  -1.3628537e-02	   1.0481775e-01	
   1.0230000e+01	  -1.6340254e-02	   1.0390083e-01	
   1.0285000e+01	  -1.9902024e-02	   1.0236151e-01	
   1.0340000e+01	  -2.4522411e-02	   1.0018209e-01	
   1.0395000e+01	  -3.0362564e-02	   9.7363747e-02	
   1.0450000e+01	  -3.7535103e-02	   9.3928120e-02	
   1.0505000e+01	  -4.6107782e-02	   8.9915916e-02	
   1.0560000e+01	  -5.6109874e-02	   8.5382723e-02	
   1.0615000e+01	  -6.7539513e-02	   8.0393484e-02	
   1.0670000e+01	  -8.0371484e-02	   7.5017155e-02	
   1.0725000e+01	  -9.4564483e-02	   6.9322603e-02	
   1.0780000e+01	  -1.1006550e-01	   6.3376194e-02	
   1.0835000e+01	  -1.2680947e-01	   5.7240668e-02	
   1.0890000e+01	  -1.4471466e-01	   5.0974426e-02	
   1.0945000e+01	  -1.6367597e-01	   4.4630767e-02	
   1.1000000e+01	  -1.8355898e-01	   3.8257366e-02	
   1.1055000e+01	  -2.0419779e-01	   3.1896347e-02	
   1.1110000e+01	  -2.2539866e-01	   2.5584550e-02	
   1.1165000e+01	  -2.4694851e-01	   1.9353179e-02	
   1.1220000e+01	  -2.6862429e-01	   1.3226750e-02	
   1.1275000e+01	  -2.9019923e-01	   7.2222385e-03	
   1.1330000e+01	  -3.1144578e-01	   1.3491642e-03	
   1.1385000e+01	  -3.3213895e-01	  -4.3892706e-03	
   1.1440000e+01	  -3.5206314e-01	  -9.9939904e-03	
   1.1495000e+01	  -3.7102139e-01	  -1.5466917e-02	
   1.1550000e+01	  -3.8884379e-01	  -2.0807909e-02	
   1.1605000e+01	  -4.0539262e-01	  -2.6013389e-02	
   1.1660000e+01	  -4.2056316e-01	  -3.1077253e-02	
   1.1715000e+01	  -4.3428095e-01	  -3.5993118e-02	
   1.1770000e+01	  -4.4649731e-01	  -4.0756741e-02	
   1.1825000e+01	  -4.5718589e-01	  -4.5368174e-02	
   1.1880000e+01	  -4.6634318e-01	  -4.9833362e-02	
   1.1935000e+01	  -4.7399318e-01	  -5.4164717e-02	
   1.1990000e+01	  -4.8019357e-01	  -5.8380673e-02	
   1.2045000e+01	  -4.8503988e-01	  -6.2504736e-02	
   1.2100000e+01	  -4.8866607e-01	  -6.6563937e-02	
   1.2155000e+01	  -4.9124207e-01	  -7.0586065e-02	
   1.2210000e+01	  -4.9296925e-01	  -7.4595937e-02	
   1.2265000e+01	  -4.9407433e-01	  -7.8612276e-02	
   1.2320000e+01	  -4.9480078e-01	  -8.2646871e-02	
   1.2375000e+01	  -4.9539699e-01	  -8.6706589e-02	
   1.2430000e+01	  -4.9610228e-01	  -9.0797273e-02	
   1.2485000e+01	  -4.9713168e-01	  -9.4927656e-02	
   1.2540000e+01	  -4.9865974e-01	  -9.9111881e-02	
   1.2595000e+01	  -5.0080500e-01	  -1.0337017e-01	
   1.2650000e+01	  -5.0361806e-01	  -1.0772755e-01	
   1.2705000e+01	  -5.0707641e-01	  -1.1221101e-01	
   1.2760000e+01	  -5.1108746e-01	  -1.1684645e-01	
   1.2815000e+01	  -5.1549862e-01	  -1.2165629e-01	
   1.2870000e+01	  -5.2011035e-01	  -1.2665710e-01	
   1.2925000e+01	  -5.2468896e-01	  -1.3185713e-01	
   1.2980000e+01	  -5.2897860e-01	  -1.3725433e-01	
   1.3035000e+01	  -5.3271243e-01	  -1.4283619e-01	
   1.3090000e+01	  -5.3562317e-01	  -1.4858153e-01	
   1.3145000e+01	  -5.3745443e-01	  -1.5446392e-01	
   1.3200000e+01	  -5.3797467e-01	  -1.6045657e-01	
   1.3255000e+01	  -5.3699325e-01	  -1.6653770e-01	
   1.3310000e+01	  -5.3437569e-01	  -1.7269518e-01	
   1.3365000e+01	  -5.3005524e-01	  -1.7892872e-01	
   1.3420000e+01	  -5.2404005e-01	  -1.8524975e-01	
   1.3475000e+01	  -5.1641554e-01	  -1.9168007e-01	
   1.3530000e+01	  -5.0734067e-01	  -1.9825033e-01	
   1.3585000e+01	  -4.9703656e-01	  -2.0499841e-01	
   1.3640000e+01	  -4.8576888e-01	  -2.1196734e-01	
   1.3695000e+01	  -4.7382979e-01	  -2.1920269e-01	
   1.3750000e+01	  -4.6152395e-01	  -2.2674953e-01	
   1.3805000e+01	  -4.4915847e-01	  -2.3464869e-01	
   1.3860000e+01	  -4.3703430e-01	  -2.4293208e-01	
   1.3915000e+01	  -4.2543827e-01	  -2.5161835e-01	
   1.3970000e+01	  -4.1463667e-01	  -2.6071054e-01	
   1.4025000e+01	  -4.0486983e-01	  -2.7019596e-01	
   1.4080000e+01	  -3.9634641e-01	  -2.8004790e-01	
   1.4135000e+01	  -3.8923764e-01	  -2.9022790e-01	
   1.4190000e+01	  -3.8367351e-01	  -3.0068768e-01	
   1.4245000e+01	  -3.7974173e-01	  -3.1137004e-01	
   1.4300000e+01	  -3.7748910e-01	  -3.2220911e-01	
   1.4355000e+01	  -3.7692407e-01	  -3.3313162e-01	
   1.4410000e+01	  -3.7801828e-01	  -3.4405962e-01	
   1.4465000e+01	  -3.8070557e-01	  -3.5491395e-01	
   1.4520000e+01	  -3.8487954e-01	  -3.6561707e-01	
   1.4575000e+01	  -3.9039364e-01	  -3.7609584e-01	
   1.4630000e+01	  -3.9706708e-01	  -3.8628497e-01	
   1.4685000e+01	  -4.0469529e-01	  -3.9613049e-01	
   1.4740000e+01	  -4.1306110e-01	  -4.0559218e-01	
   1.4795000e+01	  -4.2194305e-01	  -4.1464432e-01	
   1.4850000e+01	  -4.3112056e-01	  -4.2327547e-01	
   1.4905000e+01	  -4.4037724e-01	  -4.3148771e-01	
   1.4960000e+01	  -4.4950389e-01	  -4.3929573e-01	
   1.5015000e+01	  -4.5830261e-01	  -4.4672626e-01	
   1.5070000e+01	  -4.6659266e-01	  -4.5381804e-01	
   1.5125000e+01	  -4.7421766e-01	  -4.6062237e-01	
   1.5180000e+01	  -4.8105175e-01	  -4.6720358e-01	
   1.5235000e+01	  -4.8700210e-01	  -4.7363807e-01	
   1.5290000e+01	  -4.9200783e-01	  -4.8001140e-01	
   1.5345000e+01	  -4.9603699e-01	  -4.8641459e-01	
   1.5400000e+01	  -4.9908101e-01	  -4.9294057e-01	
   1.5455000e+01	  -5.0114692e-01	  -4.9968071e-01	
   1.5510000e+01	  -5.0224957e-01	  -5.0672140e-01	
   1.5565000e+01	  -5.0240604e-01	  -5.1414026e-01	
   1.5620000e+01	  -5.0163111e-01	  -5.2200230e-01	
   1.5675000e+01	  -4.9993276e-01	  -5.3035622e-01	
   1.5730000e+01	  -4.9730972e-01	  -5.3923156e-01	
   1.5785000e+01	  -4.9375326e-01	  -5.4863735e-01	
   1.5840000e+01	  -4.8925320e-01	  -5.5856213e-01	
   1.5895000e+01	  -4.8380649e-01	  -5.6897457e-01	
   1.5950000e+01	  -4.7742755e-01	  -5.7982473e-01	
   1.6005000e+01	  -4.7015788e-01	  -5.9104644e-01	
   1.6060000e+01	  -4.6207252e-01	  -6.0256105e-01	
   1.6115000e+01	  -4.5328134e-01	  -6.1428133e-01	
   1.6170000e+01	  -4.4392467e-01	  -6.2611444e-01	
   1.6225000e+01	  -4.3416458e-01	  -6.3796390e-01	
   1.6280000e+01	  -4.2417539e-01	  -6.4973173e-01	
   1.6335000e+01	  -4.1413680e-01	  -6.6132096e-01	
   1.6390000e+01	  -4.0423015e-01	  -6.7263855e-01	
   1.6445000e+01	  -3.9463593e-01	  -6.8359848e-01	
   1.6500000e+01	  -3.8553117e-01	  -6.9412594e-01	
   1.6555000e+01	  -3.7708789e-01	  -7.0416189e-01	
   1.6610000e+01	  -3.6947262e-01	  -7.1366666e-01	
   1.6665000e+01	  -3.6284588e-01	  -7.2262159e-01	
   1.6720000e+01	  -3.5735910e-01	  -7.3102864e-01	
   1.6775000e+01	  -3.5314745e-01	  -7.3890817e-01	
   1.6830000e+01	  -3.5031810e-01	  -7.4629451e-01	
   1.6885000e+01	  -3.4893641e-01	  -7.5323084e-01	
   1.6940000e+01	  -3.4901463e-01	  -7.5976497e-01	
   1.6995000e+01	  -3.5050646e-01	  -7.6594711e-01	
   1.7050000e+01	  -3.5330904e-01	  -7.7182871e-01	
   1.7105000e+01	  -3.5727087e-01	  -7.7746159e-01	
   1.7160000e+01	  -3.6220376e-01	  -7.8289697e-01	
   1.7215000e+01	  -3.6789632e-01	  -7.8818419e-01	
   1.7270000e+01	  -3.7412708e-01	  -7.9336872e-01	
   1.7325000e+01	  -3.8067526e-01	  -7.9848911e-01	
   1.7380000e+01	  -3.8732889e-01	  -8.0357351e-01	
   1.7435000e+01	  -3.9389136e-01	  -8.0863684e-01	
   1.7490000e+01	  -4.0018690e-01	  -8.1367959e-01	
   1.7545000e+01	  -4.0606413e-01	  -8.1868853e-01	
   1.7600000e+01	  -4.1139751e-01	  -8.2363896e-01	
   1.7655000e+01	  -4.1608810e-01	  -8.2849734e-01	
   1.7710000e+01	  -4.2006434e-01	  -8.3322334e-01	
   1.7765000e+01	  -4.2328139e-01	  -8.3777065e-01	
   1.7820000e+01	  -4.2571721e-01	  -8.4208766e-01	
   1.7875000e+01	  -4.2736654e-01	  -8.4611916e-01	
   1.7930000e+01	  -4.2823669e-01	  -8.4980949e-01	
   1.7985000e+01	  -4.2834697e-01	  -8.5310629e-01	
   1.8040000e+01	  -4.2773018e-01	  -8.5596328e-01	
   1.8095000e+01	  -4.2643467e-01	  -8.5834149e-01	
   1.8150000e+01	  -4.2452575e-01	  -8.6020880e-01	
   1.8205000e+01	  -4.2208488e-01	  -8.6153836e-01	
   1.8260000e+01	  -4.1920498e-01	  -8.6230681e-01	
   1.8315000e+01	  -4.1598344e-01	  -8.6249286e-01	
   1.8370000e+01	  -4.1251505e-01	  -8.6207631e-01	
   1.8425000e+01	  -4.0888556e-01	  -8.6103724e-01	
   1.8480000e+01	  -4.0516537e-01	  -8.5935534e-01	
   1.8535000e+01	  -4.0140449e-01	  -8.5700952e-01	
   1.8590000e+01	  -3.9763093e-01	  -8.5397822e-01	
   1.8645000e+01	  -3.9385288e-01	  -8.5024017e-01	
   1.8700000e+01	  -3.9006207e-01	  -8.4577505e-01	
   1.8755000e+01	  -3.8623565e-01	  -8.4056407e-01	
   1.8810000e+01	  -3.8233659e-01	  -8.3459170e-01	
   1.8865000e+01	  -3.7831485e-01	  -8.2784879e-01	
   1.8920000e+01	  -3.7411022e-01	  -8.2033639e-01	
   1.8975000e+01	  -3.6965564e-01	  -8.1206855e-01	
   1.9030000e+01	  -3.6487938e-01	  -8.0307337e-01	
   1.9085000e+01	  -3.5970557e-01	  -7.9339252e-01	
   1.9140000e+01	  -3.5405505e-01	  -7.8307955e-01	
   1.9195000e+01	  -3.4784888e-01	  -7.7219746e-01	
   1.9250000e+01	  -3.4101371e-01	  -7.6081641e-01	
   1.9305000e+01	  -3.3348630e-01	  -7.4901144e-01	
   1.9360000e+01	  -3.2521664e-01	  -7.3686011e-01	
   1.9415000e+01	  -3.1617181e-01	  -7.2444051e-01	
   1.9470000e+01	  -3.0634169e-01	  -7.1183015e-01	
   1.9525000e+01	  -2.9574447e-01	  -6.9910549e-01	
   1.9580000e+01	  -2.8442898e-01	  -6.8634085e-01	
   1.9635000e+01	  -2.7247327e-01	  -6.7360640e-01	
   1.9690000e+01	  -2.5998067e-01	  -6.6096575e-01	
   1.9745000e+01	  -2.4707384e-01	  -6.4847414e-01	
   1.9800000e+01	  -2.3388704e-01	  -6.3617808e-01	
   1.9855000e+01	  -2.2055853e-01	  -6.2411646e-01	
   1.9910000e+01	  -2.0722578e-01	  -6.1232254e-01	
   1.9965000e+01	  -1.9402385e-01	  -6.0082560e-01	
   2.0020000e+01	  -1.8108403e-01	  -5.8965136e-01	
   2.0075000e+01	  -1.6853058e-01	  -5.7882101e-01	
   2.0130000e+01	  -1.5647637e-01	  -5.6835001e-01	
   2.0185000e+01	  -1.4502001e-01	  -5.5824748e-01	
   2.0240000e+01	  -1.3424515e-01	  -5.4851626e-01	
   2.0295000e+01	  -1.2422090e-01	  -5.3915307e-01	
   2.0350000e+01	  -1.1500283e-01	  -5.3014888e-01	
   2.0405000e+01	  -1.0663606e-01	  -5.2148987e-01	
   2.0460000e+01	  -9.9160474e-02	  -5.1315849e-01	
   2.0515000e+01	  -9.2615143e-02	  -5.0513419e-01	
   2.0570000e+01	  -8.7037782e-02	  -4.9739330e-01	
   2.0625000e+01	  -8.2458080e-02	  -4.8990810e-01	
   2.0680000e+01	  -7.8886518e-02	  -4.8264509e-01	
   2.0735000e+01	  -7.6301838e-02	  -4.7556342e-01	
   2.0790000e+01	  -7.4640950e-02	  -4.6861399e-01	
   2.0845000e+01	  -7.3795059e-02	  -4.6174027e-01	
   2.0900000e+01	  -7.3612981e-02	  -4.5488051e-01	
   2.0955000e+01	  -7.3909005e-02	  -4.4797109e-01	
   2.1010000e+01	  -7.4472823e-02	  -4.4095055e-01	
   2.1065000e+01	  -7.5081504e-02	  -4.3376482e-01	
   2.1120000e+01	  -7.5513763e-02	  -4.2637349e-01	
   2.1175000e+01	  -7.5564470e-02	  -4.1875530e-01	
   2.1230000e+01	  -7.5055672e-02	  -4.1091059e-01	
   2.1285000e+01	  -7.3842576e-02	  -4.0285998e-01	
   2.1340000e+01	  -7.1816150e-02	  -3.9464082e-01	
   2.1395000e+01	  -6.8904515e-02	  -3.8630353e-01	
   2.1450000e+01	  -6.5074007e-02	  -3.7790841e-01	
   2.1505000e+01	  -6.0330310e-02	  -3.6952290e-01	
   2.1560000e+01	  -5.4719238e-02	  -3.6121953e-01	
   2.1615000e+01	  -4.8325351e-02	  -3.5307469e-01	
   2.1670000e+01	  -4.1266548e-02	  -3.4516786e-01	
   2.1725000e+01	  -3.3684390e-02	  -3.3758064e-01	
   2.1780000e+01	  -2.5731776e-02	  -3.3039538e-01	
   2.1835000e+01	  -1.7560666e-02	  -3.2369252e-01	
   2.1890000e+01	  -9.3126378e-03	  -3.1754599e-01	
   2.1945000e+01	  -1.1142504e-03	  -3.1201699e-01	
   2.2000000e+01	   6.9221867e-03	  -3.0714787e-01	
   2.2055000e+01	   1.4693596e-02	  -3.0295822e-01	
   2.2110000e+01	   2.2100412e-02	  -2.9944425e-01	
   2.2165000e+01	   2.9044368e-02	  -2.9658110e-01	
   2.2220000e+01	   3.5430716e-02	  -2.9432671e-01	
   2.2275000e+01	   4.1171944e-02	  -2.9262667e-01	
   2.2330000e+01	   4.6190571e-02	  -2.9141919e-01	
   2.2385000e+01	   5.0421330e-02	  -2.9063930e-01	
   2.2440000e+01	   5.3813218e-02	  -2.9022220e-01	
   2.2495000e+01	   5.6330624e-02	  -2.9010603e-01	
   2.2550000e+01	   5.7953930e-02	  -2.9023419e-01	
   2.2605000e+01	   5.8682191e-02	  -2.9055626e-01	
   2.2660000e+01	   5.8539172e-02	  -2.9102771e-01	
   2.2715000e+01	   5.7579496e-02	  -2.9160927e-01	
   2.2770000e+01	   5.5889947e-02	  -2.9226669e-01	
   2.2825000e+01	   5.3583908e-02	  -2.9297051e-01	
   2.2880000e+01	   5.0789195e-02	  -2.9369545e-01	
   2.2935000e+01	   4.7630454e-02	  -2.9441984e-01	
   2.2990000e+01	   4.4209811e-02	  -2.9512614e-01	
   2.3045000e+01	   4.0591667e-02	  -2.9580202e-01	
   2.3100000e+01	   3.6796485e-02	  -2.9644062e-01	
   2.3155000e+01	   3.2804697e-02	  -2.9703881e-01	
   2.3210000e+01	   2.8567704e-02	  -2.9759374e-01	
   2.3265000e+01	   2.4021275e-02	  -2.9809889e-01	
   2.3320000e+01	   1.9098174e-02	  -2.9854095e-01	
   2.3375000e+01	   1.3738630e-02	  -2.9889949e-01	
   2.3430000e+01	   7.8981792e-03	  -2.9914999e-01	
   2.3485000e+01	   1.5537199e-03	  -2.9926923e-01	
   2.3540000e+01	  -5.2907387e-03	  -2.9924057e-01	
   2.3595000e+01	  -1.2599039e-02	  -2.9905784e-01	
   2.3650000e+01	  -2.0301172e-02	  -2.9872797e-01	
   2.3705000e+01	  -2.8296405e-02	  -2.9827236e-01	
   2.3760000e+01	  -3.6459493e-02	  -2.9772670e-01	
   2.3815000e+01	  -4.4646830e-02	  -2.9713880e-01	
   2.3870000e+01	  -5.2700800e-02	  -2.9656498e-01	
   2.3925000e+01	  -6.0452886e-02	  -2.9606590e-01	
   2.3980000e+01	  -6.7727076e-02	  -2.9570264e-01	
   2.4035000e+01	  -7.4344280e-02	  -2.9553277e-01	
   2.4090000e+01	  -8.0127913e-02	  -2.9560648e-01	
   2.4145000e+01	  -8.4911192e-02	  -2.9596330e-01	
   2.4200000e+01	  -8.8546440e-02	  -2.9662957e-01	
   2.4255000e+01	  -9.0915759e-02	  -2.9761690e-01	
   2.4310000e+01	  -9.1941253e-02	  -2.9892201e-01	
   2.4365000e+01	  -9.1591655e-02	  -3.0052803e-01	
   2.4420000e+01	  -8.9882054e-02	  -3.0240549e-01	
   2.4475000e+01	  -8.6866401e-02	  -3.0451143e-01	
   2.4530000e+01	  -8.2626185e-02	  -3.0678747e-01	
   2.4585000e+01	  -7.7258873e-02	  -3.0915965e-01	
   2.4640000e+01	  -7.0867014e-02	  -3.1154132e-01	
   2.4695000e+01	  -6.3548190e-02	  -3.1383841e-01	
   2.4750000e+01	  -5.5387703e-02	  -3.1595524e-01	
   2.4805000e+01	  -4.6456779e-02	  -3.1779990e-01	
   2.4860000e+01	  -3.6817806e-02	  -3.1928893e-01	
   2.4915000e+01	  -2.6536092e-02	  -3.2035165e-01	
   2.4970000e+01	  -1.5695041e-02	  -3.2093437e-01	
   2.5025000e+01	  -4.4095474e-03	  -3.2100328e-01	
   2.5080000e+01	   7.1670075e-03	  -3.2054511e-01	
   2.5135000e+01	   1.8843713e-02	  -3.1956493e-01	
   2.5190000e+01	   3.0399549e-02	  -3.1808318e-01	
   2.5245000e+01	   4.1594332e-02	  -3.1613379e-01	
   2.5300000e+01	   5.2180706e-02	  -3.1376402e-01	
   2.5355000e+01	   6.1916212e-02	  -3.1103392e-01	
   2.5410000e+01	   7.0574449e-02	  -3.0801391e-01	
   2.5465000e+01	   7.7953027e-02	  -3.0478083e-01	
   2.5520000e+01	   8.3876653e-02	  -3.0141370e-01	
   2.5575000e+01	   8.8197038e-02	  -2.9798992e-01	
   2.5630000e+01	   9.0793412e-02	  -2.9458202e-01	
   2.5685000e+01	   9.1575891e-02	  -2.9125518e-01	
   2.5740000e+01	   9.0491061e-02	  -2.8806626e-01	
   2.5795000e+01	   8.7528082e-02	  -2.8506376e-01	
   2.5850000e+01	   8.2724132e-02	  -2.8228850e-01	
   2.5905000e+01	   7.6167955e-02	  -2.7977448e-01	
   2.5960000e+01	   6.7999990e-02	  -2.7754989e-01	
   2.6015000e+01	   5.8408418e-02	  -2.7563793e-01	
   2.6070000e+01	   4.7621902e-02	  -2.7405725e-01	
   2.6125000e+01	   3.5900647e-02	  -2.7282233e-01	
   2.6180000e+01	   2.3527126e-02	  -2.7194317e-01	
   2.6235000e+01	   1.0797239e-02	  -2.7142409e-01	
   2.6290000e+01	  -1.9873927e-03	  -2.7126199e-01	
   2.6345000e+01	  -1.4525960e-02	  -2.7144535e-01	
   2.6400000e+01	  -2.6525852e-02	  -2.7195435e-01	
   2.6455000e+01	  -3.7713172e-02	  -2.7276191e-01	
   2.6510000e+01	  -4.7845893e-02	  -2.7383476e-01	
   2.6565000e+01	  -5.6726322e-02	  -2.7513444e-01	
   2.6620000e+01	  -6.4209245e-02	  -2.7661835e-01	
   2.6675000e+01	  -7.0204183e-02	  -2.7824113e-01	
   2.6730000e+01	  -7.4673343e-02	  -2.7995670e-01	
   2.6785000e+01	  -7.7628551e-02	  -2.8172051e-01	
   2.6840000e+01	  -7.9129589e-02	  -2.8349269e-01	
   2.6895000e+01	  -7.9283737e-02	  -2.8524229e-01	
   2.6950000e+01	  -7.8243884e-02	  -2.8695201e-01	
   2.7005000e+01	  -7.6202399e-02	  -2.8862110e-01	
   2.7060000e+01	  -7.3381034e-02	  -2.9026513e-01	
   2.7115000e+01	  -7.0019893e-02	  -2.9191335e-01	
   2.7170000e+01	  -6.6367009e-02	  -2.9360477e-01	
   2.7225000e+01	  -6.2667493e-02	  -2.9538383e-01	
   2.7280000e+01	  -5.9152598e-02	  -2.9729552e-01	
   2.7335000e+01	  -5.6032087e-02	  -2.9938010e-01	
   2.7390000e+01	  -5.3492002e-02	  -3.0166767e-01	
   2.7445000e+01	  -5.1696128e-02	  -3.0417196e-01	
   2.7500000e+01	  -5.0788060e-02	  -3.0688424e-01	
   2.7555000e+01	  -5.0891785e-02	  -3.0976885e-01	
   2.7610000e+01	  -5.2109548e-02	  -3.1276180e-01	
   2.7665000e+01	  -5.4516711e-02	  -3.1577274e-01	
   2.7720000e+01	  -5.8155336e-02	  -3.1868985e-01	
   2.7775000e+01	  -6.3029908e-02	  -3.2138785e-01	
   2.7830000e+01	  -6.9107239e-02	  -3.2373856e-01	
   2.7885000e+01	  -7.6319240e-02	  -3.2562198e-01	
   2.7940000e+01	  -8.4566551e-02	  -3.2693594e-01	
   2.7995000e+01	  -9.3723201e-02	  -3.2760300e-01	
   2.8050000e+01	  -1.0364300e-01	  -3.2757493e-01	
   2.8105000e+01	  -1.1416651e-01	  -3.2683410e-01	
   2.8160000e+01	  -1.2512687e-01	  -3.2539179e-01	
   2.8215000e+01	  -1.3635367e-01	  -3.2328369e-01	
   2.8270000e+01	  -1.4767503e-01	  -3.2056387e-01	
   2.8325000e+01	  -1.5891751e-01	  -3.1729797e-01	
   2.8380000e+01	  -1.6990429e-01	  -3.1355654e-01	
   2.8435000e+01	  -1.8045378e-01	  -3.0940985e-01	
   2.8490000e+01	  -1.9038138e-01	  -3.0492549e-01	
   2.8545000e+01	  -1.9950451e-01	  -3.0016832e-01	
   2.8600000e+01	  -2.0764900e-01	  -2.9520174e-01	
   2.8655000e+01	  -2.1465672e-01	  -2.9008891e-01	
   2.8710000e+01	  -2.2039627e-01	  -2.8489361e-01	
   2.8765000e+01	  -2.2477848e-01	  -2.7968020e-01	
   2.8820000e+01	  -2.2777450e-01	  -2.7451262e-01	
   2.8875000e+01	  -2.2943043e-01	  -2.6945232e-01	
   2.8930000e+01	  -2.2987255e-01	  -2.6455563e-01	
   2.8985000e+01	  -2.2930207e-01	  -2.5987119e-01	
   2.9040000e+01	  -2.2798183e-01	  -2.5543831e-01	
   2.9095000e+01	  -2.2621788e-01	  -2.5128625e-01	
   2.9150000e+01	  -2.2433781e-01	  -2.4743454e-01	
   2.9205000e+01	  -2.2266828e-01	  -2.4389435e-01	
   2.9260000e+01	  -2.2151299e-01	  -2.4067045e-01	
   2.9315000e+01	  -2.2113260e-01	  -2.3776290e-01	
   2.9370000e+01	  -2.2172848e-01	  -2.3516807e-01	
   2.9425000e+01	  -2.2343163e-01	  -2.3287967e-01	
   2.9480000e+01	  -2.2629624e-01	  -2.3089044e-01	
   2.9535000e+01	  -2.3029815e-01	  -2.2919369e-01	
   2.9590000e+01	  -2.3534002e-01	  -2.2778368e-01	
   2.9645000e+01	  -2.4126411e-01	  -2.2665451e-01	
   2.9700000e+01	  -2.4787024e-01	  -2.2579762e-01	
   2.9755000e+01	  -2.5493502e-01	  -2.2519858e-01	
   2.9810000e+01	  -2.6222993e-01	  -2.2483441e-01	
   2.9865000e+01	  -2.6953857e-01	  -2.2467296e-01	
   2.9920000e+01	  -2.7667268e-01	  -2.2467407e-01	
   2.9975000e+01	  -2.8348647e-01	  -2.2479172e-01	
   3.0030000e+01	  -2.8988791e-01	  -2.2497636e-01	
   3.0085000e+01	  -2.9584619e-01	  -2.2517751e-01	
   3.0140000e+01	  -3.0139306e-01	  -2.2534656e-01	
   3.0195000e+01	  -3.0661713e-01	  -2.2543896e-01	
   3.0250000e+01	  -3.1165233e-01	  -2.2541511e-01	
   3.0305000e+01	  -3.1666298e-01	  -2.2524013e-01	
   3.0360000e+01	  -3.2182809e-01	  -2.2488308e-01	
   3.0415000e+01	  -3.2732637e-01	  -2.2431648e-01	
   3.0470000e+01	  -3.3332233e-01	  -2.2351644e-01	
   3.0525000e+01	  -3.3995340e-01	  -2.2246338e-01	
   3.0580000e+01	  -3.4731933e-01	  -2.2114292e-01	
   3.0635000e+01	  -3.5547530e-01	  -2.1954646e-01	
   3.0690000e+01	  -3.6442869e-01	  -2.1767089e-01	
   3.0745000e+01	  -3.7413908e-01	  -2.1551735e-01	
   3.0800000e+01	  -3.8452055e-01	  -2.1309040e-01	
   3.0855000e+01	  -3.9544521e-01	  -2.1039749e-01	
   3.0910000e+01	  -4.0674645e-01	  -2.0744763e-01	
   3.0965000e+01	  -4.1822185e-01	  -2.0424887e-01	
   3.1020000e+01	  -4.2963683e-01	  -2.0080663e-01	
   3.1075000e+01	  -4.4073064e-01	  -1.9712445e-01	
   3.1130000e+01	  -4.5122534e-01	  -1.9320707e-01	
   3.1185000e+01	  -4.6083810e-01	  -1.8906485e-01	
   3.1240000e+01	  -4.6929662e-01	  -1.8471770e-01	
   3.1295000e+01	  -4.7635568e-01	  -1.8019705e-01	
   3.1350000e+01	  -4.8181242e-01	  -1.7554495e-01	
   3.1405000e+01	  -4.8551863e-01	  -1.7081103e-01	
   3.1460000e+01	  -4.8738877e-01	  -1.6604939e-01	
   3.1515000e+01	  -4.8740249e-01	  -1.6131653e-01	
   3.1570000e+01	  -4.8560107e-01	  -1.5667015e-01	
   3.1625000e+01	  -4.8207852e-01	  -1.5216734e-01	
   3.1680000e+01	  -4.7696890e-01	  -1.4786091e-01	
   3.1735000e+01	  -4.7043224e-01	  -1.4379468e-01	
   3.1790000e+01	  -4.6264111e-01	  -1.3999927e-01	
   3.1845000e+01	  -4.5376813e-01	  -1.3648882e-01	
   3.1900000e+01	  -4.4397421e-01	  -1.3325838e-01	
   3.1955000e+01	  -4.3339782e-01	  -1.3028245e-01	
   3.2010000e+01	  -4.2214659e-01	  -1.2751508e-01	
   3.2065000e+01	  -4.1029275e-01	  -1.2489208e-01	
   3.2120000e+01	  -3.9787385e-01	  -1.2233537e-01	
   3.2175000e+01	  -3.8489909e-01	  -1.1975923e-01	
   3.2230000e+01	  -3.7135912e-01	  -1.1707701e-01	
   3.2285000e+01	  -3.5723492e-01	  -1.1420631e-01	
   3.2340000e+01	  -3.4250374e-01	  -1.1107145e-01	
   3.2395000e+01	  -3.2714362e-01	  -1.0760466e-01	
   3.2450000e+01	  -3.1113915e-01	  -1.0374784e-01	
   3.2505000e+01	  -2.9448860e-01	  -9.9454931e-02	
   3.2560000e+01	  -2.7721114e-01	  -9.4694645e-02	
   3.2615000e+01	  -2.5935207e-01	  -8.9452797e-02	
   3.2670000e+01	  -2.4098488e-01	  -8.3733779e-02	
   3.2725000e+01	  -2.2220912e-01	  -7.7560222e-02	
   3.2780000e+01	  -2.0314404e-01	  -7.0970624e-02	
   3.2835000e+01	  -1.8392073e-01	  -6.4015884e-02	
   3.2890000e+01	  -1.6467583e-01	  -5.6755940e-02	
   3.2945000e+01	  -1.4554659e-01	  -4.9256838e-02	
   3.3000000e+01	  -1.2666549e-01	  -4.1587957e-02	
   3.3055000e+01	  -1.0815485e-01	  -3.3819359e-02	
   3.3110000e+01	  -9.0124250e-02	  -2.6019417e-02	
   3.3165000e+01	  -7.2671806e-02	  -1.8252605e-02	
   3.3220000e+01	  -5.5887158e-02	  -1.0577477e-02	
   3.3275000e+01	  -3.9852855e-02	  -3.0452308e-03	
   3.3330000e+01	  -2.4642636e-02	   4.3008802e-03	
   3.3385000e+01	  -1.0317511e-02	   1.1425537e-02	
   3.3440000e+01	   3.0783148e-03	   1.8301237e-02	
   3.3495000e+01	   1.5520433e-02	   2.4908289e-02	
   3.3550000e+01	   2.7005940e-02	   3.1234795e-02	
   3.3605000e+01	   3.7553797e-02	   3.7276369e-02	
   3.3660000e+01	   4.7203944e-02	   4.3035404e-02	
   3.3715000e+01	   5.6015973e-02	   4.8519640e-02	
   3.3770000e+01	   6.4068059e-02	   5.3740285e-02	
   3.3825000e+01	   7.1455953e-02	   5.8710696e-02	
   3.3880000e+01	   7.8290613e-02	   6.3446506e-02	
   3.3935000e+01	   8.4692713e-02	   6.7966928e-02	
   3.3990000e+01	   9.0784252e-02	   7.2295925e-02	
   3.4045000e+01	   9.6680346e-02	   7.6462452e-02	
   3.4100000e+01	   1.0248444e-01	   8.0500401e-02	
   3.4155000e+01	   1.0828744e-01	   8.4448740e-02	
   3.4210000e+01	   1.1416924e-01	   8.8351081e-02	
   3.4265000e+01	   1.2020156e-01	   9.2253883e-02	
   3.4320000e+01	   1.2645224e-01	   9.6203616e-02	
   3.4375000e+01	   1.3299149e-01	   1.0024376e-01	
   3.4430000e+01	   1.3989892e-01	   1.0441234e-01	
   3.4485000e+01	   1.4726895e-01	   1.0874046e-01	
   3.4540000e+01	   1.5521136e-01	   1.1325245e-01	
   3.4595000e+01	   1.6384652e-01	   1.1796783e-01	
   3.4650000e+01	   1.7329745e-01	   1.2290408e-01	
   3.4705000e+01	   1.8368236e-01	   1.2807912e-01	
   3.4760000e+01	   1.9510933e-01	   1.3351311e-01	
   3.4815000e+01	   2.0767173e-01	   1.3923023e-01	
   3.4870000e+01	   2.2144276e-01	   1.4526067e-01	
   3.4925000e+01	   2.3646984e-01	   1.5164123e-01	
   3.4980000e+01	   2.5277087e-01	   1.5841341e-01	
   3.5035000e+01	   2.7033452e-01	   1.6561916e-01	
   3.5090000e+01	   2.8912453e-01	   1.7329588e-01	
   3.5145000e+01	   3.0908537e-01	   1.8147194e-01	
   3.5200000e+01	   3.3014616e-01	   1.9016321e-01	
   3.5255000e+01	   3.5222172e-01	   1.9937125e-01	
   3.5310000e+01	   3.7521175e-01	   2.0908307e-01	
   3.5365000e+01	   3.9899962e-01	   2.1927202e-01	
   3.5420000e+01	   4.2345192e-01	   2.2989903e-01	
   3.5475000e+01	   4.4841949e-01	   2.4091445e-01	
   3.5530000e+01	   4.7373987e-01	   2.5226007e-01	
   3.5585000e+01	   4.9924039e-01	   2.6387048e-01	
   3.5640000e+01	   5.2474251e-01	   2.7567367e-01	
   3.5695000e+01	   5.5006833e-01	   2.8759215e-01	
   3.5750000e+01	   5.7504884e-01	   2.9954550e-01	
   3.5805000e+01	   5.9953159e-01	   3.1145350e-01	
   3.5860000e+01	   6.2338517e-01	   3.2323825e-01	
   3.5915000e+01	   6.4650036e-01	   3.3482473e-01	
   3.5970000e+01	   6.6879028e-01	   3.4614035e-01	
   3.6025000e+01	   6.9019254e-01	   3.5711536e-01	
   3.6080000e+01	   7.1067276e-01	   3.6768451e-01	
   3.6135000e+01	   7.3022712e-01	   3.7778956e-01	
   3.6190000e+01	   7.4888288e-01	   3.8738196e-01	
   3.6245000e+01	   7.6669671e-01	   3.9642548e-01	
   3.6300000e+01	   7.8374914e-01	   4.0489769e-01	
   3.6355000e+01	   8.0013399e-01	   4.1278933e-01	
   3.6410000e+01	   8.1594529e-01	   4.2010199e-01	
   3.6465000e+01	   8.3126578e-01	   4.2684505e-01	
   3.6520000e+01	   8.4615887e-01	   4.3303296e-01	
   3.6575000e+01	   8.6066486e-01	   4.3868336e-01	
   3.6630000e+01	   8.7480179e-01	   4.4381665e-01	
   3.6685000e+01	   8.8857064e-01	   4.4845624e-01	
   3.6740000e+01	   9.0196276e-01	   4.5262850e-01	
   3.6795000e+01	   9.1496668e-01	   4.5636190e-01	
   3.6850000e+01	   9.2757216e-01	   4.5968614e-01	
   3.6905000e+01	   9.3977137e-01	   4.6263170e-01	
   3.6960000e+01	   9.5155758e-01	   4.6523008e-01	
   3.7015000e+01	   9.6292109e-01	   4.6751377e-01	
   3.7070000e+01	   9.7384316e-01	   4.6951520e-01	
   3.7125000e+01	   9.8428922e-01	   4.7126501e-01	
   3.7180000e+01	   9.9420305e-01	   4.7279050e-01	
   3.7235000e+01	   1.0035021e+00	   4.7411510e-01	
   3.7290000e+01	   1.0120740e+00	   4.7525889e-01	
   3.7345000e+01	   1.0197763e+00	   4.7624055e-01	
   3.7400000e+01	   1.0264397e+00	   4.7708051e-01	
   3.7455000e+01	   1.0318782e+00	   4.7780409e-01	
   3.7510000e+01	   1.0359035e+00	   4.7844327e-01	
   3.7565000e+01	   1.0383450e+00	   4.7903662e-01	
   3.7620000e+01	   1.0390725e+00	   4.7962767e-01	
   3.7675000e+01	   1.0380133e+00	   4.8026169e-01	
   3.7730000e+01	   1.0351605e+00	   4.8098130e-01	
   3.7785000e+01	   1.0305711e+00	   4.8182177e-01	
   3.7840000e+01	   1.0243572e+00	   4.8280685e-01	
   3.7895000e+01	   1.0166730e+00	   4.8394529e-01	
   3.7950000e+01	   1.0077021e+00	   4.8522878e-01	
   3.8005000e+01	   9.9764716e-01	   4.8663276e-01	
   3.8060000e+01	   9.8672495e-01	   4.8812040e-01	
   3.8115000e+01	   9.7516359e-01	   4.8964770e-01	
   3.8170000e+01	   9.6319717e-01	   4.9116753e-01	
   3.8225000e+01	   9.5105660e-01	   4.9263232e-01	
   3.8280000e+01	   9.3895865e-01	   4.9399663e-01	
   3.8335000e+01	   9.2709615e-01	   4.9522005e-01	
   3.8390000e+01	   9.1563037e-01	   4.9626993e-01	
   3.8445000e+01	   9.0468617e-01	   4.9712303e-01	
   3.8500000e+01	   8.9434934e-01	   4.9776615e-01	
   3.8555000e+01	   8.8466539e-01	   4.9819527e-01	
   3.8610000e+01	   8.7563930e-01	   4.9841383e-01	
   3.8665000e+01	   8.6723726e-01	   4.9843100e-01	
   3.8720000e+01	   8.5939070e-01	   4.9826108e-01	
   3.8775000e+01	   8.5200194e-01	   4.9792370e-01	
   3.8830000e+01	   8.4495080e-01	   4.9744300e-01	
   3.8885000e+01	   8.3810206e-01	   4.9684505e-01	
   3.8940000e+01	   8.3131336e-01	   4.9615417e-01	
   3.8995000e+01	   8.2444278e-01	   4.9538923e-01	
   3.9050000e+01	   8.1735467e-01	   4.9456055e-01	
   3.9105000e+01	   8.0992219e-01	   4.9366795e-01	
   3.9160000e+01	   8.0202691e-01	   4.9270058e-01	
   3.9215000e+01	   7.9355704e-01	   4.9163858e-01	
   3.9270000e+01	   7.8440581e-01	   4.9045570e-01	
   3.9325000e+01	   7.7447083e-01	   4.8912297e-01	
   3.9380000e+01	   7.6365471e-01	   4.8761381e-01	
   3.9435000e+01	   7.5186643e-01	   4.8591015e-01	
   3.9490000e+01	   7.3902220e-01	   4.8400763e-01	
   3.9545000e+01	   7.2504599e-01	   4.8191859e-01	
   3.9600000e+01	   7.0987058e-01	   4.7967267e-01	
   3.9655000e+01	   6.9344013e-01	   4.7731528e-01	
   3.9710000e+01	   6.7571231e-01	   4.7490389e-01	
   3.9765000e+01	   6.5665833e-01	   4.7250236e-01	
   3.9820000e+01	   6.3626235e-01	   4.7017444e-01	
   3.9875000e+01	   6.1452346e-01	   4.6797808e-01	
   3.9930000e+01	   5.9146033e-01	   4.6596120e-01	
   3.9985000e+01	   5.6711568e-01	   4.6415917e-01	
   4.0040000e+01	   5.4155874e-01	   4.6259350e-01	
   4.0095000e+01	   5.1488648e-01	   4.6127096e-01	
   4.0150000e+01	   4.8722410e-01	   4.6018183e-01	
   4.0205000e+01	   4.5872401e-01	   4.5929712e-01	
   4.0260000e+01	   4.2956283e-01	   4.5856622e-01	
   4.0315000e+01	   3.9993716e-01	   4.5791701e-01	
   4.0370000e+01	   3.7005831e-01	   4.5725859e-01	
   4.0425000e+01	   3.4014486e-01	   4.5648583e-01	
   4.0480000e+01	   3.1041466e-01	   4.5548475e-01	
   4.0535000e+01	   2.8107855e-01	   4.5413872e-01	
   4.0590000e+01	   2.5233707e-01	   4.5233527e-01	
   4.0645000e+01	   2.2437803e-01	   4.4997318e-01	
   4.0700000e+01	   1.9737288e-01	   4.4696946e-01	
   4.0755000e+01	   1.7147127e-01	   4.4326508e-01	
   4.0810000e+01	   1.4679447e-01	   4.3882828e-01	
   4.0865000e+01	   1.2342929e-01	   4.3365456e-01	
   4.0920000e+01	   1.0142442e-01	   4.2776354e-01	
   4.0975000e+01	   8.0789292e-02	   4.2119408e-01	
   4.1030000e+01	   6.1494638e-02	   4.1399900e-01	
   4.1085000e+01	   4.3474745e-02	   4.0623988e-01	
   4.1140000e+01	   2.6631797e-02	   3.9798218e-01	
   4.1195000e+01	   1.0841785e-02	   3.8929109e-01	
   4.1250000e+01	  -4.0395457e-03	   3.8022914e-01	
   4.1305000e+01	  -1.8172599e-02	   3.7085577e-01	
   4.1360000e+01	  -3.1732458e-02	   3.6122861e-01	
   4.1415000e+01	  -4.4908157e-02	   3.5140544e-01	
   4.1470000e+01	  -5.7899565e-02	   3.4144582e-01	
   4.1525000e+01	  -7.0910908e-02	   3.3141183e-01	
   4.1580000e+01	  -8.4143501e-02	   3.2136748e-01	
   4.1635000e+01	  -9.7790963e-02	   3.1137724e-01	
   4.1690000e+01	  -1.1203759e-01	   3.0150457e-01	
   4.1745000e+01	  -1.2705851e-01	   2.9181052e-01	
   4.1800000e+01	  -1.4302018e-01	   2.8235199e-01	
   4.1855000e+01	  -1.6007959e-01	   2.7317906e-01	
   4.1910000e+01	  -1.7838136e-01	   2.6433221e-01	
   4.1965000e+01	  -1.9805340e-01	   2.5583969e-01	
   4.2020000e+01	  -2.1920197e-01	   2.4771545e-01	
   4.2075000e+01	  -2.4190665e-01	   2.3995787e-01	
   4.2130000e+01	  -2.6621545e-01	   2.3254975e-01	
   4.2185000e+01	  -2.9214120e-01	   2.2545932e-01	
   4.2240000e+01	  -3.1965878e-01	   2.1864173e-01	
   4.2295000e+01	  -3.4870212e-01	   2.1204109e-01	
   4.2350000e+01	  -3.7916128e-01	   2.0559355e-01	
   4.2405000e+01	  -4.1088225e-01	   1.9923136e-01	
   4.2460000e+01	  -4.4367161e-01	   1.9288695e-01	
   4.2515000e+01	  -4.7730543e-01	   1.8649630e-01	
   4.2570000e+01	  -5.1153879e-01	   1.8000188e-01	
   4.2625000e+01	  -5.4611310e-01	   1.7335604e-01	
   4.2680000e+01	  -5.8076173e-01	   1.6652459e-01	
   4.2735000e+01	  -6.1521509e-01	   1.5948928e-01	
   4.2790000e+01	  -6.4920529e-01	   1.5224794e-01	
   4.2845000e+01	  -6.8246914e-01	   1.4481240e-01	
   4.2900000e+01	  -7.1474915e-01	   1.3720564e-01	
   4.2955000e+01	  -7.4579381e-01	   1.2945914e-01	
   4.3010000e+01	  -7.7535953e-01	   1.2161117e-01	
   4.3065000e+01	  -8.0321572e-01	   1.1370653e-01	
   4.3120000e+01	  -8.2915221e-01	   1.0579734e-01	
   4.3175000e+01	  -8.5298719e-01	   9.7944198e-02	
   4.3230000e+01	  -8.7457328e-01	   9.0217246e-02	
   4.3285000e+01	  -8.9379942e-01	   8.2697208e-02	
   4.3340000e+01	  -9.1058965e-01	   7.5475887e-02	
   4.3395000e+01	  -9.2490156e-01	   6.8654360e-02	
   4.3450000e+01	  -9.3672738e-01	   6.2337820e-02	
   4.3505000e+01	  -9.4609750e-01	   5.6628095e-02	
   4.3560000e+01	  -9.5308534e-01	   5.1616115e-02	
   4.3615000e+01	  -9.5781227e-01	   4.7376015e-02	
   4.3670000e+01	  -9.6045129e-01	   4.3961228e-02	
   4.3725000e+01	  -9.6122721e-01	   4.1402151e-02	
   4.3780000e+01	  -9.6041213e-01	   3.9705282e-02	
   4.3835000e+01	  -9.5831743e-01	   3.8854015e-02	
   4.3890000e+01	  -9.5528456e-01	   3.8811060e-02	
   4.3945000e+01	  -9.5167523e-01	   3.9521982e-02	
   4.4000000e+01	  -9.4786063e-01	   4.0918983e-02	
   4.4055000e+01	  -9.4420820e-01	   4.2924073e-02	
   4.4110000e+01	  -9.4106417e-01	   4.5451421e-02	
   4.4165000e+01	  -9.3873162e-01	   4.8409394e-02	
   4.4220000e+01	  -9.3744675e-01	   5.1702807e-02	
   4.4275000e+01	  -9.3735779e-01	   5.5235272e-02	
   4.4330000e+01	  -9.3851053e-01	   5.8911528e-02	
   4.4385000e+01	  -9.4084236e-01	   6.2640014e-02	
   4.4440000e+01	  -9.4418502e-01	   6.6335587e-02	
   4.4495000e+01	  -9.4827507e-01	   6.9921383e-02	
   4.4550000e+01	  -9.5276969e-01	   7.3329142e-02	
   4.4605000e+01	  -9.5726577e-01	   7.6498790e-02	
   4.4660000e+01	  -9.6132113e-01	   7.9378542e-02	
   4.4715000e+01	  -9.6447730e-01	   8.1925800e-02	
   4.4770000e+01	  -9.6628158e-01	   8.4108109e-02	
   4.4825000e+01	  -9.6630489e-01	   8.5903639e-02	
   4.4880000e+01	  -9.6415411e-01	   8.7301087e-02	
   4.4935000e+01	  -9.5948069e-01	   8.8298743e-02	
   4.4990000e+01	  -9.5198843e-01	   8.8902483e-02	
   4.5045000e+01	  -9.4144131e-01	   8.9123497e-02	
   4.5100000e+01	  -9.2767015e-01	   8.8977109e-02	
   4.5155000e+01	  -9.1057741e-01	   8.8483323e-02	
   4.5210000e+01	  -8.9014009e-01	   8.7668796e-02	
   4.5265000e+01	  -8.6641057e-01	   8.6569713e-02	
   4.5320000e+01	  -8.3951548e-01	   8.5234258e-02	
   4.5375000e+01	  -8.0965371e-01	   8.3722743e-02	
   4.5430000e+01	  -7.7709518e-01	   8.2104330e-02	
   4.5485000e+01	  -7.4218140e-01	   8.0451326e-02	
   4.5540000e+01	  -7.0532659e-01	   7.8833295e-02	
   4.5595000e+01	  -6.6701579e-01	   7.7312772e-02	
   4.5650000e+01	  -6.2779685e-01	   7.5942276e-02	
   4.5705000e+01	  -5.8826698e-01	   7.4761117e-02	
   4.5760000e+01	  -5.4905735e-01	   7.3791732e-02	
   4.5815000e+01	  -5.1081887e-01	   7.3037073e-02	
   4.5870000e+01	  -4.7421047e-01	   7.2480409e-02	
   4.5925000e+01	  -4.3989061e-01	   7.2087373e-02	
   4.5980000e+01	  -4.0851000e-01	   7.1809522e-02	
   4.6035000e+01	  -3.8070114e-01	   7.1588709e-02	
   4.6090000e+01	  -3.5705890e-01	   7.1361592e-02	
   4.6145000e+01	  -3.3810477e-01	   7.1064102e-02	
   4.6200000e+01	  -3.2422681e-01	   7.0636844e-02	
   4.6255000e+01	  -3.1560650e-01	   7.0031743e-02	
   4.6310000e+01	  -3.1217213e-01	   6.9217824e-02	
   4.6365000e+01	  -3.1361007e-01	   6.8183427e-02	
   4.6420000e+01	  -3.1942178e-01	   6.6934546e-02	
   4.6475000e+01	  -3.2899244e-01	   6.5491190e-02	
   4.6530000e+01	  -3.4165001e-01	   6.3883955e-02	
   4.6585000e+01	  -3.5671087e-01	   6.2151779e-02	
   4.6640000e+01	  -3.7351411e-01	   6.0340528e-02	
   4.6695000e+01	  -3.9144801e-01	   5.8501708e-02	
   4.6750000e+01	  -4.0997139e-01	   5.6691095e-02	
   4.6805000e+01	  -4.2863213e-01	   5.4967032e-02	
   4.6860000e+01	  -4.4708258e-01	   5.3388010e-02	
   4.6915000e+01	  -4.6508964e-01	   5.2009915e-02	
   4.6970000e+01	  -4.8253635e-01	   5.0883586e-02	
   4.7025000e+01	  -4.9941495e-01	   5.0052660e-02	
   4.7080000e+01	  -5.1581377e-01	   4.9551561e-02	
   4.7135000e+01	  -5.3189955e-01	   4.9404196e-02	
   4.7190000e+01	  -5.4789601e-01	   4.9624073e-02	
   4.7245000e+01	  -5.6406054e-01	   5.0215868e-02	
   4.7300000e+01	  -5.8066196e-01	   5.1178015e-02	
   4.7355000e+01	  -5.9796023e-01	   5.2505737e-02	
   4.7410000e+01	  -6.1618734e-01	   5.4193498e-02	
   4.7465000e+01	  -6.3552940e-01	   5.6235745e-02	
   4.7520000e+01	  -6.5611092e-01	   5.8625583e-02	
   4.7575000e+01	  -6.7798122e-01	   6.1352356e-02	
   4.7630000e+01	  -7.0110293e-01	   6.4399870e-02	
   4.7685000e+01	  -7.2534469e-01	   6.7746226e-02	
   4.7740000e+01	  -7.5048056e-01	   7.1364709e-02	
   4.7795000e+01	  -7.7619609e-01	   7.5225135e-02	
   4.7850000e+01	  -8.0209863e-01	   7.9295797e-02	
   4.7905000e+01	  -8.2773098e-01	   8.3545562e-02	
   4.7960000e+01	  -8.5259048e-01	   8.7944689e-02	
   4.8015000e+01	  -8.7615537e-01	   9.2463228e-02	
   4.8070000e+01	  -8.9791838e-01	   9.7067042e-02	
   4.8125000e+01	  -9.1742368e-01	   1.0171239e-01	
   4.8180000e+01	  -9.3429450e-01	   1.0634116e-01	
   4.8235000e+01	  -9.4823205e-01	   1.1087984e-01	
   4.8290000e+01	  -9.5898237e-01	   1.1524409e-01	
   4.8345000e+01	  -9.6629716e-01	   1.1934640e-01	
   4.8400000e+01	  -9.6991728e-01	   1.2310326e-01	
   4.8455000e+01	  -9.6958441e-01	   1.2644020e-01	
   4.8510000e+01	  -9.6507094e-01	   1.2929519e-01	
   4.8565000e+01	  -9.5622095e-01	   1.3162015e-01	
   4.8620000e+01	  -9.4299949e-01	   1.3337995e-01	
   4.8675000e+01	  -9.2554927e-01	   1.3454939e-01	
   4.8730000e+01	  -9.0424799e-01	   1.3511017e-01	
   4.8785000e+01	  -8.7974429e-01	   1.3504960e-01	
   4.8840000e+01	  -8.5293672e-01	   1.3436156e-01	
   4.8895000e+01	  -8.2488020e-01	   1.3304884e-01	
   4.8950000e+01	  -7.9665405e-01	   1.3112532e-01	
   4.9005000e+01	  -7.6925109e-01	   1.2861671e-01	
   4.9060000e+01	  -7.4351959e-01	   1.2555929e-01	
   4.9115000e+01	  -7.2014714e-01	   1.2199798e-01	
   4.9170000e+01	  -6.9966231e-01	   1.1798512e-01	
   4.9225000e+01	  -6.8244172e-01	   1.1358027e-01	
   4.9280000e+01	  -6.6871989e-01	   1.0885026e-01	
   4.9335000e+01	  -6.5860157e-01	   1.0386893e-01	
   4.9390000e+01	  -6.5207698e-01	   9.8716739e-02	
   4.9445000e+01	  -6.4903858e-01	   9.3480176e-02	
   4.9500000e+01	  -6.4929520e-01	   8.8250252e-02	
   4.9555000e+01	  -6.5257736e-01	   8.3119560e-02	
   4.9610000e+01	  -6.5852673e-01	   7.8178515e-02	
   4.9665000e+01	  -6.6667353e-01	   7.3512230e-02	
   4.9720000e+01	  -6.7642306e-01	   6.9198268e-02	
   4.9775000e+01	  -6.8706998e-01	   6.5304439e-02	
   4.9830000e+01	  -6.9783658e-01	   6.1886246e-02	
   4.9885000e+01	  -7.0791909e-01	   5.8983889e-02	
   4.9940000e+01	  -7.1653332e-01	   5.6618559e-02	
   4.9995000e+01	  -7.2295903e-01	   5.4788390e-02	
   5.0050000e+01	  -7.2658539e-01	   5.3465131e-02	
   5.0105000e+01	  -7.2695911e-01	   5.2592462e-02	
   5.0160000e+01	  -7.2382828e-01	   5.2086414e-02	
   5.0215000e+01	  -7.1716496e-01	   5.1838300e-02	
   5.0270000e+01	  -7.0715388e-01	   5.1720570e-02	
   5.0325000e+01	  -6.9415418e-01	   5.1595434e-02	
   5.0380000e+01	  -6.7865090e-01	   5.1325215e-02	
   5.0435000e+01	  -6.6120714e-01	   5.0782805e-02	
   5.0490000e+01	  -6.4242085e-01	   4.9860511e-02	
   5.0545000e+01	  -6.2288864e-01	   4.8476102e-02	
   5.0600000e+01	  -6.0317680e-01	   4.6575551e-02	
   5.0655000e+01	  -5.8379822e-01	   4.4132474e-02	
   5.0710000e+01	  -5.6519400e-01	   4.1144850e-02	
   5.0765000e+01	  -5.4771964e-01	   3.7630170e-02	
   5.0820000e+01	  -5.3163697e-01	   3.3620358e-02	
   5.0875000e+01	  -5.1711336e-01	   2.9157537e-02	
   5.0930000e+01	  -5.0422840e-01	   2.4291244e-02	
   5.0985000e+01	  -4.9298551e-01	   1.9077033e-02	
   5.1040000e+01	  -4.8332541e-01	   1.3575816e-02	
   5.1095000e+01	  -4.7513914e-01	   7.8530923e-03	
   5.1150000e+01	  -4.6828172e-01	   1.9773430e-03	
   5.1205000e+01	  -4.6258711e-01	  -3.9826581e-03	
   5.1260000e+01	  -4.5788330e-01	  -9.9610277e-03	
   5.1315000e+01	  -4.5400491e-01	  -1.5897589e-02	
   5.1370000e+01	  -4.5080286e-01	  -2.1740138e-02	
   5.1425000e+01	  -4.4815212e-01	  -2.7446609e-02	
   5.1480000e+01	  -4.4595740e-01	  -3.2987196e-02	
   5.1535000e+01	  -4.4415460e-01	  -3.8345774e-02	
   5.1590000e+01	  -4.4270621e-01	  -4.3520178e-02	
   5.1645000e+01	  -4.4159123e-01	  -4.8521537e-02	
   5.1700000e+01	  -4.4079199e-01	  -5.3372545e-02	
   5.1755000e+01	  -4.4028011e-01	  -5.8104282e-02	
   5.1810000e+01	  -4.4000400e-01	  -6.2752440e-02	
   5.1865000e+01	  -4.3988139e-01	  -6.7354701e-02	
   5.1920000e+01	  -4.3979966e-01	  -7.1950220e-02	
   5.1975000e+01	  -4.3962320e-01	  -7.6580865e-02	
   5.2030000e+01	  -4.3920310e-01	  -8.1293123e-02	
   5.2085000e+01	  -4.3838490e-01	  -8.6139231e-02	
   5.2140000e+01	  -4.3701369e-01	  -9.1176612e-02	
   5.2195000e+01	  -4.3493884e-01	  -9.6465736e-02	
   5.2250000e+01	  -4.3201997e-01	  -1.0206696e-01	
   5.2305000e+01	  -4.2813452e-01	  -1.0803660e-01	
   5.2360000e+01	  -4.2318622e-01	  -1.1442236e-01	
   5.2415000e+01	  -4.1711288e-01	  -1.2125843e-01	
   5.2470000e+01	  -4.0989146e-01	  -1.2856098e-01	
   5.2525000e+01	  -4.0153898e-01	  -1.3632441e-01	
   5.2580000e+01	  -3.9211023e-01	  -1.4451919e-01	
   5.2635000e+01	  -3.8169355e-01	  -1.5309184e-01	
   5.2690000e+01	  -3.7040607e-01	  -1.6196716e-01	
   5.2745000e+01	  -3.5838951e-01	  -1.7105278e-01	
   5.2800000e+01	  -3.4580688e-01	  -1.8024549e-01	
   5.2855000e+01	  -3.3283881e-01	  -1.8943761e-01	
   5.2910000e+01	  -3.1967733e-01	  -1.9852190e-01	
   5.2965000e+01	  -3.0651667e-01	  -2.0739419e-01	
   5.3020000e+01	  -2.9354279e-01	  -2.1595450e-01	
   5.3075000e+01	  -2.8092488e-01	  -2.2410701e-01	
   5.3130000e+01	  -2.6881171e-01	  -2.3175966e-01	
   5.3185000e+01	  -2.5733188e-01	  -2.3882421e-01	
   5.3240000e+01	  -2.4659504e-01	  -2.4521694e-01	
   5.3295000e+01	  -2.3669282e-01	  -2.5085955e-01	
   5.3350000e+01	  -2.2769983e-01	  -2.5568037e-01	
   5.3405000e+01	  -2.1967480e-01	  -2.5961649e-01	
   5.3460000e+01	  -2.1266118e-01	  -2.6261665e-01	
   5.3515000e+01	  -2.0668637e-01	  -2.6464332e-01	
   5.3570000e+01	  -2.0175962e-01	  -2.6567247e-01	
   5.3625000e+01	  -1.9786854e-01	  -2.6569049e-01	
   5.3680000e+01	  -1.9497558e-01	  -2.6468985e-01	
   5.3735000e+01	  -1.9301585e-01	  -2.6266483e-01	
   5.3790000e+01	  -1.9189695e-01	  -2.5960873e-01	
   5.3845000e+01	  -1.9150054e-01	  -2.5551303e-01	
   5.3900000e+01	  -1.9168490e-01	  -2.5036877e-01	
   5.3955000e+01	  -1.9228842e-01	  -2.4416959e-01	
   5.4010000e+01	  -1.9313404e-01	  -2.3691543e-01	
   5.4065000e+01	  -1.9403496e-01	  -2.2861639e-01	
   5.4120000e+01	  -1.9480314e-01	  -2.1929700e-01	
   5.4175000e+01	  -1.9526060e-01	  -2.0900061e-01	
   5.4230000e+01	  -1.9525105e-01	  -1.9779232e-01	
   5.4285000e+01	  -1.9464789e-01	  -1.8575900e-01	
   5.4340000e+01	  -1.9335650e-01	  -1.7300682e-01	
   5.4395000e+01	  -1.9131205e-01	  -1.5965804e-01	
   5.4450000e+01	  -1.8847529e-01	  -1.4584792e-01	
   5.4505000e+01	  -1.8482911e-01	  -1.3172160e-01	
   5.4560000e+01	  -1.8037759e-01	  -1.1743068e-01	
   5.4615000e+01	  -1.7514882e-01	  -1.0312920e-01	
   5.4670000e+01	  -1.6920017e-01	  -8.8968906e-02	
   5.4725000e+01	  -1.6262347e-01	  -7.5094047e-02	
   5.4780000e+01	  -1.5554746e-01	  -6.1637290e-02	
   5.4835000e+01	  -1.4813662e-01	  -4.8717550e-02	
   5.4890000e+01	  -1.4058620e-01	  -3.6439096e-02	
   5.4945000e+01	  -1.3311274e-01	  -2.4890835e-02	
   5.5000000e+01	  -1.2593991e-01	  -1.4145867e-02	
   5.5055000e+01	  -1.1928165e-01	  -4.2618981e-03	
   5.5110000e+01	  -1.1332599e-01	   4.7175860e-03	
   5.5165000e+01	  -1.0822198e-01	   1.2761852e-02	
   5.5220000e+01	  -1.0407150e-01	   1.9851094e-02	
   5.5275000e+01	  -1.0092620e-01	   2.5974136e-02	
   5.5330000e+01	  -9.8788290e-02	   3.1126462e-02	
   5.5385000e+01	  -9.7612141e-02	   3.5309849e-02	
   5.5440000e+01	  -9.7305612e-02	   3.8533808e-02	
   5.5495000e+01	  -9.7732358e-02	   4.0818167e-02	
   5.5550000e+01	  -9.8716542e-02	   4.2196145e-02	
   5.5605000e+01	  -1.0005029e-01	   4.2717337e-02	
   5.5660000e+01	  -1.0150413e-01	   4.2449427e-02	
   5.5715000e+01	  -1.0284089e-01	   4.1477492e-02	
   5.5770000e+01	  -1.0383137e-01	   3.9901016e-02	
   5.5825000e+01	  -1.0426779e-01	   3.7830057e-02	
   5.5880000e+01	  -1.0397169e-01	   3.5381889e-02	
   5.5935000e+01	  -1.0279658e-01	   3.2678361e-02	
   5.5990000e+01	  -1.0062703e-01	   2.9843690e-02	
   5.6045000e+01	  -9.7374250e-02	   2.7002729e-02	
   5.6100000e+01	  -9.2968184e-02	   2.4279781e-02	
   5.6155000e+01	  -8.7349552e-02	   2.1797176e-02	
   5.6210000e+01	  -8.0467101e-02	   1.9672660e-02	
   5.6265000e+01	  -7.2281438e-02	   1.8015638e-02	
   5.6320000e+01	  -6.2772472e-02	   1.6923145e-02	
   5.6375000e+01	  -5.1947401e-02	   1.6475905e-02	
   5.6430000e+01	  -3.9848236e-02	   1.6734402e-02	
   5.6485000e+01	  -2.6558562e-02	   1.7735559e-02	
   5.6540000e+01	  -1.2208590e-02	   1.9490879e-02	
   5.6595000e+01	   3.0223594e-03	   2.1986098e-02	
   5.6650000e+01	   1.8906025e-02	   2.5181927e-02	
   5.6705000e+01	   3.5168699e-02	   2.9016384e-02	
   5.6760000e+01	   5.1499600e-02	   3.3409630e-02	
   5.6815000e+01	   6.7564420e-02	   3.8270764e-02	
   5.6870000e+01	   8.3021780e-02	   4.3504486e-02	
   5.6925000e+01	   9.7539949e-02	   4.9016079e-02	
   5.6980000e+01	   1.1081237e-01	   5.4715151e-02	
   5.7035000e+01	   1.2257068e-01	   6.0519385e-02	
   5.7090000e+01	   1.3259381e-01	   6.6358461e-02	
   5.7145000e+01	   1.4071233e-01	   7.2177142e-02	
   5.7200000e+01	   1.4680865e-01	   7.7936738e-02	
   5.7255000e+01	   1.5081387e-01	   8.3614624e-02	
   5.7310000e+01	   1.5270262e-01	   8.9201557e-02	
   5.7365000e+01	   1.5248664e-01	   9.4697263e-02	
   5.7420000e+01	   1.5020955e-01	   1.0010586e-01	
   5.7475000e+01	   1.4594383e-01	   1.0543225e-01	
   5.7530000e+01	   1.3979032e-01	   1.1067875e-01	
   5.7585000e+01	   1.3187970e-01	   1.1584089e-01	
   5.7640000e+01	   1.2237557e-01	   1.2090262e-01	
   5.7695000e+01	   1.1147801e-01	   1.2583212e-01	
   5.7750000e+01	   9.9425163e-02	   1.3057956e-01	
   5.7805000e+01	   8.6491240e-02	   1.3507704e-01	
   5.7860000e+01	   7.2979960e-02	   1.3924077e-01	
   5.7915000e+01	   5.9214145e-02	   1.4297575e-01	
   5.7970000e+01	   4.5522756e-02	   1.4618240e-01	
   5.8025000e+01	   3.2227519e-02	   1.4876431e-01	
   5.8080000e+01	   1.9632065e-02	   1.5063701e-01	
   5.8135000e+01	   8.0159142e-03	   1.5173737e-01	
   5.8190000e+01	  -2.3673963e-03	   1.5203225e-01	
   5.8245000e+01	  -1.1291467e-02	   1.5152423e-01	
   5.8300000e+01	  -1.8560171e-02	   1.5025369e-01	
   5.8355000e+01	  -2.4012559e-02	   1.4829823e-01	
   5.8410000e+01	  -2.7528375e-02	   1.4577048e-01	
   5.8465000e+01	  -2.9034132e-02	   1.4281391e-01	
   5.8520000e+01	  -2.8509565e-02	   1.3959600e-01	
   5.8575000e+01	  -2.5992467e-02	   1.3629912e-01	
   5.8630000e+01	  -2.1579763e-02	   1.3311024e-01	
   5.8685000e+01	  -1.5424364e-02	   1.3021023e-01	
   5.8740000e+01	  -7.7282938e-03	   1.2776386e-01	
   5.8795000e+01	   1.2671480e-03	   1.2591187e-01	
   5.8850000e+01	   1.1292527e-02	   1.2476533e-01	
   5.8905000e+01	   2.2060957e-02	   1.2440156e-01	
   5.8960000e+01	   3.3277841e-02	   1.2486140e-01	
   5.9015000e+01	   4.4650592e-02	   1.2614831e-01	
   5.9070000e+01	   5.5899189e-02	   1.2822987e-01	
   5.9125000e+01	   6.6766110e-02	   1.3104159e-01	
   5.9180000e+01	   7.7022646e-02	   1.3449189e-01	
   5.9235000e+01	   8.6471328e-02	   1.3846809e-01	
   5.9290000e+01	   9.4947591e-02	   1.4284331e-01	
   5.9345000e+01	   1.0232271e-01	   1.4748372e-01	
   5.9400000e+01	   1.0850663e-01	   1.5225450e-01	
   5.9455000e+01	   1.1344825e-01	   1.5702428e-01	
   5.9510000e+01	   1.1713280e-01	   1.6166813e-01	
   5.9565000e+01	   1.1957767e-01	   1.6606950e-01	
   5.9620000e+01	   1.2082751e-01	   1.7012114e-01	
   5.9675000e+01	   1.2094923e-01	   1.7372465e-01	
   5.9730000e+01	   1.2002843e-01	   1.7678903e-01	
   5.9785000e+01	   1.1816928e-01	   1.7922847e-01	
   5.9840000e+01	   1.1549661e-01	   1.8095968e-01	
   5.9895000e+01	   1.1215729e-01	   1.8189994e-01	
   5.9950000e+01	   1.0831927e-01	   1.8196733e-01	
   6.0005000e+01	   1.0416863e-01	   1.8108364e-01	
   6.0060000e+01	   9.9904653e-02	   1.7917851e-01	
   6.0115000e+01	   9.5733679e-02	   1.7619366e-01	
   6.0170000e+01	   9.1862795e-02	   1.7208705e-01	
   6.0225000e+01	   8.8493207e-02	   1.6683701e-01	
   6.0280000e+01	   8.5810664e-02	   1.6044585e-01	
   6.0335000e+01	   8.3971718e-02	   1.5294144e-01	
   6.0390000e+01	   8.3089490e-02	   1.4437687e-01	
   6.0445000e+01	   8.3224375e-02	   1.3482900e-01	
   6.0500000e+01	   8.4381454e-02	   1.2439696e-01	
   6.0555000e+01	   8.6512586e-02	   1.1320075e-01	
   6.0610000e+01	   8.9521408e-02	   1.0138015e-01	
   6.0665000e+01	   9.3271270e-02	   8.9093668e-02	
   6.0720000e+01	   9.7596151e-02	   7.6516423e-02	
   6.0775000e+01	   1.0231336e-01	   6.3836164e-02	
   6.0830000e+01	   1.0723671e-01	   5.1247956e-02	
   6.0885000e+01	   1.1219006e-01	   3.8948747e-02	
   6.0940000e+01	   1.1702050e-01	   2.7131907e-02	
   6.0995000e+01	   1.2160820e-01	   1.5981070e-02	
   6.1050000e+01	   1.2587151e-01	   5.6636531e-03	
   6.1105000e+01	   1.2976847e-01	  -3.6743371e-03	
   6.1160000e+01	   1.3329691e-01	  -1.1911171e-02	
   6.1215000e+01	   1.3649296e-01	  -1.8950294e-02	
   6.1270000e+01	   1.3942818e-01	  -2.4719719e-02	
   6.1325000e+01	   1.4220632e-01	  -2.9170234e-02	
   6.1380000e+01	   1.4495928e-01	  -3.2273587e-02	
   6.1435000e+01	   1.4784071e-01	  -3.4022018e-02	
   6.1490000e+01	   1.5101640e-01	  -3.4428835e-02	
   6.1545000e+01	   1.5465332e-01	  -3.3528481e-02	
   6.1600000e+01	   1.5890940e-01	  -3.1375451e-02	
   6.1655000e+01	   1.6392494e-01	  -2.8042911e-02	
   6.1710000e+01	   1.6981519e-01	  -2.3621692e-02	
   6.1765000e+01	   1.7666456e-01	  -1.8219148e-02	
   6.1820000e+01	   1.8452231e-01	  -1.1957087e-02	
   6.1875000e+01	   1.9339934e-01	  -4.9689308e-03	
   6.1930000e+01	   2.0326601e-01	   2.6031938e-03	
   6.1985000e+01	   2.1405216e-01	   1.0611295e-02	
   6.2040000e+01	   2.2564900e-01	   1.8904478e-02	
   6.2095000e+01	   2.3791050e-01	   2.7331511e-02	
   6.2150000e+01	   2.5065347e-01	   3.5742167e-02	
   6.2205000e+01	   2.6365852e-01	   4.3987648e-02	
   6.2260000e+01	   2.7667398e-01	   5.1921657e-02	
   6.2315000e+01	   2.8942295e-01	   5.9403162e-02	
   6.2370000e+01	   3.0161207e-01	   6.6300352e-02	
   6.2425000e+01	   3.1294163e-01	   7.2494642e-02	
   6.2480000e+01	   3.2311794e-01	   7.7883988e-02	
   6.2535000e+01	   3.3186764e-01	   8.2385096e-02	
   6.2590000e+01	   3.3895186e-01	   8.5934471e-02	
   6.2645000e+01	   3.4417884e-01	   8.8488650e-02	
   6.2700000e+01	   3.4741578e-01	   9.0023898e-02	
   6.2755000e+01	   3.4860008e-01	   9.0535069e-02	
   6.2810000e+01	   3.4774883e-01	   9.0033085e-02	
   6.2865000e+01	   3.4496480e-01	   8.8541004e-02	
   6.2920000e+01	   3.4043748e-01	   8.6089571e-02	
   6.2975000e+01	   3.3443805e-01	   8.2713202e-02	
   6.3030000e+01	   3.2730639e-01	   7.8446766e-02	
   6.3085000e+01	   3.1942999e-01	   7.3323460e-02	
   6.3140000e+01	   3.1121883e-01	   6.7374418e-02	
   6.3195000e+01	   3.0308157e-01	   6.0630233e-02	
   6.3250000e+01	   2.9540643e-01	   5.3123445e-02	
   6.3305000e+01	   2.8854688e-01	   4.4890967e-02	
   6.3360000e+01	   2.8281166e-01	   3.5976643e-02	
   6.3415000e+01	   2.7845910e-01	   2.6434855e-02	
   6.3470000e+01	   2.7569556e-01	   1.6335131e-02	
   6.3525000e+01	   2.7467644e-01	   5.7661356e-03	
   6.3580000e+01	   2.7550842e-01	  -5.1625984e-03	
   6.3635000e+01	   2.7825167e-01	  -1.6321831e-02	
   6.3690000e+01	   2.8292071e-01	  -2.7566619e-02	
   6.3745000e+01	   2.8948290e-01	  -3.8742837e-02	
   6.3800000e+01	   2.9785703e-01	  -4.9695276e-02	
   6.3855000e+01	   3.0791608e-01	  -6.0276002e-02	
   6.3910000e+01	   3.1949514e-01	  -7.0352093e-02	
   6.3965000e+01	   3.3240249e-01	  -7.9811960e-02	
   6.4020000e+01	   3.4643148e-01	  -8.8569053e-02	
   6.4075000e+01	   3.6137172e-01	  -9.6562473e-02	
   6.4130000e+01	   3.7701842e-01	  -1.0375574e-01	
   6.4185000e+01	   3.9317768e-01	  -1.1013535e-01	
   6.4240000e+01	   4.0966722e-01	  -1.1570921e-01	
   6.4295000e+01	   4.2631378e-01	  -1.2050434e-01	
   6.4350000e+01	   4.4294876e-01	  -1.2456347e-01	
   6.4405000e+01	   4.5940216e-01	  -1.2794126e-01	
   6.4460000e+01	   4.7549574e-01	  -1.3070078e-01	
   6.4515000e+01	   4.9103799e-01	  -1.3291011e-01	
   6.4570000e+01	   5.0582325e-01	  -1.3463857e-01	
   6.4625000e+01	   5.1963545e-01	  -1.3595187e-01	
   6.4680000e+01	   5.3225601e-01	  -1.3690680e-01	
   6.4735000e+01	   5.4347490e-01	  -1.3754706e-01	
   6.4790000e+01	   5.5310273e-01	  -1.3790166e-01	
   6.4845000e+01	   5.6098201e-01	  -1.3798599e-01	
   6.4900000e+01	   5.6699630e-01	  -1.3780499e-01	
   6.4955000e+01	   5.7107690e-01	  -1.3735672e-01	
   6.5010000e+01	   5.7320644e-01	  -1.3663541e-01	
   6.5065000e+01	   5.7341769e-01	  -1.3563395e-01	
   6.5120000e+01	   5.7178721e-01	  -1.3434676e-01	
   6.5175000e+01	   5.6842651e-01	  -1.3277295e-01	
   6.5230000e+01	   5.6347460e-01	  -1.3091898e-01	
   6.5285000e+01	   5.5709351e-01	  -1.2880044e-01	
   6.5340000e+01	   5.4946524e-01	  -1.2644277e-01	
   6.5395000e+01	   5.4078897e-01	  -1.2388100e-01	
   6.5450000e+01	   5.3127768e-01	  -1.2115862e-01	
   6.5505000e+01	   5.2115292e-01	  -1.1832615e-01	
   6.5560000e+01	   5.1063681e-01	  -1.1543998e-01	
   6.5615000e+01	   4.9994202e-01	  -1.1256082e-01	
   6.5670000e+01	   4.8926268e-01	  -1.0975129e-01	
   6.5725000e+01	   4.7876831e-01	  -1.0707232e-01	
   6.5780000e+01	   4.6860021e-01	  -1.0457917e-01	
   6.5835000e+01	   4.5886929e-01	  -1.0231817e-01	
   6.5890000e+01	   4.4965505e-01	  -1.0032458e-01	
   6.5945000e+01	   4.4100637e-01	  -9.8621102e-02	
   6.6000000e+01	   4.3294354e-01	  -9.7215981e-02	
   6.6055000e+01	   4.2546047e-01	  -9.6101044e-02	
   6.6110000e+01	   4.1852690e-01	  -9.5250521e-02	
   6.6165000e+01	   4.1209150e-01	  -9.4622033e-02	
   6.6220000e+01	   4.0608662e-01	  -9.4160611e-02	
   6.6275000e+01	   4.0043497e-01	  -9.3805262e-02	
   6.6330000e+01	   3.9505756e-01	  -9.3495907e-02	
   6.6385000e+01	   3.8988182e-01	  -9.3178820e-02	
   6.6440000e+01	   3.8484677e-01	  -9.2810814e-02	
   6.6495000e+01	   3.7990389e-01	  -9.2363183e-02	
   6.6550000e+01	   3.7501497e-01	  -9.1824704e-02	
   6.6605000e+01	   3.7015026e-01	  -9.1202114e-02	
   6.6660000e+01	   3.6528817e-01	  -9.0518182e-02	
   6.6715000e+01	   3.6041538e-01	  -8.9808866e-02	
   6.6770000e+01	   3.5552554e-01	  -8.9120370e-02	
   6.6825000e+01	   3.5061532e-01	  -8.8506271e-02	
   6.6880000e+01	   3.4567854e-01	  -8.8025246e-02	
   6.6935000e+01	   3.4070035e-01	  -8.7739647e-02	
   6.6990000e+01	   3.3565389e-01	  -8.7713853e-02	
   6.7045000e+01	   3.3050016e-01	  -8.8011384e-02	
   6.7100000e+01	   3.2519004e-01	  -8.8691536e-02	
   6.7155000e+01	   3.1966705e-01	  -8.9806976e-02	
   6.7210000e+01	   3.1387189e-01	  -9.1402397e-02	
   6.7265000e+01	   3.0774923e-01	  -9.3513048e-02	
   6.7320000e+01	   3.0125554e-01	  -9.6162145e-02	
   6.7375000e+01	   2.9436634e-01	  -9.9356897e-02	
   6.7430000e+01	   2.8708243e-01	  -1.0308372e-01	
   6.7485000e+01	   2.7943401e-01	  -1.0730411e-01	
   6.7540000e+01	   2.7148062e-01	  -1.1195295e-01	
   6.7595000e+01	   2.6330601e-01	  -1.1694031e-01	
   6.7650000e+01	   2.5501000e-01	  -1.2215600e-01	
   6.7705000e+01	   2.4670115e-01	  -1.2747508e-01	
   6.7760000e+01	   2.3849113e-01	  -1.3276260e-01	
   6.7815000e+01	   2.3048981e-01	  -1.3787765e-01	
   6.7870000e+01	   2.2280030e-01	  -1.4267775e-01	
   6.7925000e+01	   2.1551517e-01	  -1.4702426e-01	
   6.7980000e+01	   2.0871537e-01	  -1.5078791e-01	
   6.8035000e+01	   2.0247164e-01	  -1.5385364e-01	
   6.8090000e+01	   1.9684694e-01	  -1.5612464e-01	
   6.8145000e+01	   1.9189863e-01	  -1.5752484e-01	
   6.8200000e+01	   1.8767912e-01	  -1.5799984e-01	
   6.8255000e+01	   1.8423400e-01	  -1.5751710e-01	
   6.8310000e+01	   1.8159882e-01	  -1.5606618e-01	
   6.8365000e+01	   1.7979680e-01	  -1.5365913e-01	
   6.8420000e+01	   1.7883863e-01	  -1.5032978e-01	
   6.8475000e+01	   1.7872215e-01	  -1.4613132e-01	
   6.8530000e+01	   1.7942897e-01	  -1.4113322e-01	
   6.8585000e+01	   1.8091731e-01	  -1.3541888e-01	
   6.8640000e+01	   1.8311354e-01	  -1.2908417e-01	
   6.8695000e+01	   1.8590632e-01	  -1.2223649e-01	
   6.8750000e+01	   1.8914579e-01	  -1.1499387e-01	
   6.8805000e+01	   1.9264826e-01	  -1.0748394e-01	
   6.8860000e+01	   1.9620568e-01	  -9.9842221e-02	
   6.8915000e+01	   1.9959734e-01	  -9.2210252e-02	
   6.8970000e+01	   2.0260066e-01	  -8.4734320e-02	
   6.9025000e+01	   2.0500039e-01	  -7.7564511e-02	
   6.9080000e+01	   2.0659723e-01	  -7.0852490e-02	
   6.9135000e+01	   2.0721609e-01	  -6.4746884e-02	
   6.9190000e+01	   2.0671291e-01	  -5.9387175e-02	
   6.9245000e+01	   2.0497921e-01	  -5.4897790e-02	
   6.9300000e+01	   2.0194487e-01	  -5.1383155e-02	
   6.9355000e+01	   1.9757939e-01	  -4.8923668e-02	
   6.9410000e+01	   1.9189123e-01	  -4.7572951e-02	
   6.9465000e+01	   1.8492512e-01	  -4.7357000e-02	
   6.9520000e+01	   1.7675781e-01	  -4.8275233e-02	
   6.9575000e+01	   1.6749359e-01	  -5.0302921e-02	
   6.9630000e+01	   1.5725915e-01	  -5.3394693e-02	
   6.9685000e+01	   1.4619691e-01	  -5.7488693e-02	
   6.9740000e+01	   1.3445798e-01	  -6.2510194e-02	
   6.9795000e+01	   1.2219683e-01	  -6.8373508e-02	
   6.9850000e+01	   1.0956836e-01	  -7.4982398e-02	
   6.9905000e+01	   9.6725579e-02	  -8.2230152e-02	
   6.9960000e+01	   8.3816028e-02	  -8.9999966e-02	
   7.0015000e+01	   7.0975972e-02	  -9.8165818e-02	
   7.0070000e+01	   5.8322530e-02	  -1.0659425e-01	
   7.0125000e+01	   4.5945747e-02	  -1.1514725e-01	
   7.0180000e+01	   3.3904327e-02	  -1.2368587e-01	
   7.0235000e+01	   2.2227570e-02	  -1.3207407e-01	
   7.0290000e+01	   1.0922364e-02	  -1.4018322e-01	
   7.0345000e+01	  -1.8067496e-05	  -1.4789754e-01	
   7.0400000e+01	  -1.0605363e-02	  -1.5512039e-01	
   7.0455000e+01	  -2.0847154e-02	  -1.6177943e-01	
   7.0510000e+01	  -3.0739017e-02	  -1.6782934e-01	
   7.0565000e+01	  -4.0259516e-02	  -1.7325149e-01	
   7.0620000e+01	  -4.9369603e-02	  -1.7805098e-01	
   7.0675000e+01	  -5.8015560e-02	  -1.8225125e-01	
   7.0730000e+01	  -6.6133654e-02	  -1.8588659e-01	
   7.0785000e+01	  -7.3655289e-02	  -1.8899420e-01	
   7.0840000e+01	  -8.0511866e-02	  -1.9160753e-01	
   7.0895000e+01	  -8.6638262e-02	  -1.9375202e-01	
   7.0950000e+01	  -9.1974560e-02	  -1.9544320e-01	
   7.1005000e+01	  -9.6467373e-02	  -1.9668773e-01	
   7.1060000e+01	  -1.0007231e-01	  -1.9748719e-01	
   7.1115000e+01	  -1.0275804e-01	  -1.9784371e-01	
   7.1170000e+01	  -1.0451187e-01	  -1.9776593e-01	
   7.1225000e+01	  -1.0534573e-01	  -1.9727376e-01	
   7.1280000e+01	  -1.0530025e-01	  -1.9640098e-01	
   7.1335000e+01	  -1.0444451e-01	  -1.9519502e-01	
   7.1390000e+01	  -1.0287063e-01	  -1.9371478e-01	
   7.1445000e+01	  -1.0068559e-01	  -1.9202744e-01	
   7.1500000e+01	  -9.8003562e-02	  -1.9020535e-01	
   7.1555000e+01	  -9.4939904e-02	  -1.8832240e-01	
   7.1610000e+01	  -9.1605517e-02	  -1.8644904e-01	
   7.1665000e+01	  -8.8100145e-02	  -1.8464630e-01	
   7.1720000e+01	  -8.4504708e-02	  -1.8296079e-01	
   7.1775000e+01	  -8.0873515e-02	  -1.8142202e-01	
   7.1830000e+01	  -7.7227357e-02	  -1.8004165e-01	
   7.1885000e+01	  -7.3549494e-02	  -1.7881369e-01	
   7.1940000e+01	  -6.9787893e-02	  -1.7771519e-01	
   7.1995000e+01	  -6.5865265e-02	  -1.7670764e-01	
   7.2050000e+01	  -6.1693653e-02	  -1.7573909e-01	
   7.2105000e+01	  -5.7188251e-02	  -1.7474661e-01	
   7.2160000e+01	  -5.2277962e-02	  -1.7365923e-01	
   7.2215000e+01	  -4.6912473e-02	  -1.7240099e-01	
   7.2270000e+01	  -4.1065201e-02	  -1.7089415e-01	
   7.2325000e+01	  -3.4732056e-02	  -1.6906262e-01	
   7.2380000e+01	  -2.7928157e-02	  -1.6683650e-01	
   7.2435000e+01	  -2.0685121e-02	  -1.6415806e-01	
   7.2490000e+01	  -1.3049306e-02	  -1.6098769e-01	
   7.2545000e+01	  -5.0796181e-03	  -1.5730729e-01	
   7.2600000e+01	   3.1552681e-03	  -1.5312018e-01	
   7.2655000e+01	   1.1578324e-02	  -1.4844813e-01	
   7.2710000e+01	   2.0103391e-02	  -1.4332628e-01	
   7.2765000e+01	   2.8634308e-02	  -1.3779727e-01	
   7.2820000e+01	   3.7065890e-02	  -1.3190644e-01	
   7.2875000e+01	   4.5286129e-02	  -1.2569983e-01	
   7.2930000e+01	   5.3178461e-02	  -1.1922441e-01	
   7.2985000e+01	   6.0624477e-02	  -1.1252841e-01	
   7.3040000e+01	   6.7507371e-02	  -1.0566022e-01	
   7.3095000e+01	   7.3714948e-02	  -9.8666031e-02	
   7.3150000e+01	   7.9141561e-02	  -9.1587440e-02	
   7.3205000e+01	   8.3690312e-02	  -8.4460009e-02	
   7.3260000e+01	   8.7276906e-02	  -7.7312985e-02	
   7.3315000e+01	   8.9834817e-02	  -7.0169996e-02	
   7.3370000e+01	   9.1320553e-02	  -6.3050015e-02	
   7.3425000e+01	   9.1717987e-02	  -5.5967812e-02	
   7.3480000e+01	   9.1040568e-02	  -4.8934107e-02	
   7.3535000e+01	   8.9329566e-02	  -4.1956574e-02	
   7.3590000e+01	   8.6647648e-02	  -3.5042274e-02	
   7.3645000e+01	   8.3070333e-02	  -2.8200254e-02	
   7.3700000e+01	   7.8679548e-02	  -2.1442447e-02	
   7.3755000e+01	   7.3561343e-02	  -1.4782467e-02	
   7.3810000e+01	   6.7807097e-02	  -8.2337462e-03	
   7.3865000e+01	   6.1516678e-02	  -1.8086812e-03	
   7.3920000e+01	   5.4801600e-02	   4.4806320e-03	
   7.3975000e+01	   4.7785805e-02	   1.0620748e-02	
   7.4030000e+01	   4.0603756e-02	   1.6595562e-02	
   7.4085000e+01	   3.3398289e-02	   2.2386559e-02	
   7.4140000e+01	   2.6320046e-02	   2.7974776e-02	
   7.4195000e+01	   1.9527218e-02	   3.3343273e-02	
   7.4250000e+01	   1.3183478e-02	   3.8478632e-02	
   7.4305000e+01	   7.4542132e-03	   4.3371010e-02	
   7.4360000e+01	   2.5025677e-03	   4.8013602e-02	
   7.4415000e+01	  -1.5146879e-03	   5.2402632e-02	
   7.4470000e+01	  -4.4533070e-03	   5.6538011e-02	
   7.4525000e+01	  -6.1909126e-03	   6.0423891e-02	
   7.4580000e+01	  -6.6378323e-03	   6.4068643e-02	
   7.4635000e+01	  -5.7461064e-03	   6.7484408e-02	
   7.4690000e+01	  -3.5147985e-03	   7.0686350e-02	
   7.4745000e+01	   8.4266703e-06	   7.3691681e-02	
   7.4800000e+01	   4.7296739e-03	   7.6518822e-02	
   7.4855000e+01	   1.0515711e-02	   7.9186910e-02	
   7.4910000e+01	   1.7204527e-02	   8.1715466e-02	
   7.4965000e+01	   2.4617150e-02	   8.4124079e-02	
   7.5020000e+01	   3.2568444e-02	   8.6432358e-02	
   7.5075000e+01	   4.0875637e-02	   8.8660200e-02	
   7.5130000e+01	   4.9364155e-02	   9.0828042e-02	
   7.5185000e+01	   5.7871653e-02	   9.2957118e-02	
   7.5240000e+01	   6.6251953e-02	   9.5070253e-02	
   7.5295000e+01	   7.4379324e-02	   9.7193150e-02	
   7.5350000e+01	   8.2151766e-02	   9.9355170e-02	
   7.5405000e+01	   8.9492398e-02	   1.0158922e-01	
   7.5460000e+01	   9.6349613e-02	   1.0393159e-01	
   7.5515000e+01	   1.0269689e-01	   1.0642231e-01	
   7.5570000e+01	   1.0853217e-01	   1.0910511e-01	
   7.5625000e+01	   1.1387605e-01	   1.1202596e-01	
   7.5680000e+01	   1.1876786e-01	   1.1523040e-01	
   7.5735000e+01	   1.2325938e-01	   1.1876077e-01	
   7.5790000e+01	   1.2740740e-01	   1.2265366e-01	
   7.5845000e+01	   1.3126751e-01	   1.2693718e-01	
   7.5900000e+01	   1.3489121e-01	   1.3162783e-01	
   7.5955000e+01	   1.3832627e-01	   1.3672755e-01	
   7.6010000e+01	   1.4161931e-01	   1.4222166e-01	
   7.6065000e+01	   1.4481817e-01	   1.4807801e-01	
   7.6120000e+01	   1.4797283e-01	   1.5424783e-01	
   7.6175000e+01	   1.5113584e-01	   1.6066921e-01	
   7.6230000e+01	   1.5436229e-01	   1.6727296e-01	
   7.6285000e+01	   1.5770700e-01	   1.7398849e-01	
   7.6340000e+01	   1.6121750e-01	   1.8074810e-01	
   7.6395000e+01	   1.6492486e-01	   1.8749043e-01	
   7.6450000e+01	   1.6883637e-01	   1.9416359e-01	
   7.6505000e+01	   1.7293230e-01	   2.0072771e-01	
   7.6560000e+01	   1.7716697e-01	   2.0715547e-01	
   7.6615000e+01	   1.8147370e-01	   2.1343032e-01	
   7.6670000e+01	   1.8577208e-01	   2.1954314e-01	
   7.6725000e+01	   1.8997615e-01	   2.2548860e-01	
   7.6780000e+01	   1.9400334e-01	   2.3126240e-01	
   7.6835000e+01	   1.9778338e-01	   2.3685997e-01	
   7.6890000e+01	   2.0126543e-01	   2.4227653e-01	
   7.6945000e+01	   2.0442082e-01	   2.4750738e-01	
   7.7000000e+01	   2.0724057e-01	   2.5254709e-01	
   7.7055000e+01	   2.0972905e-01	   2.5738772e-01	
   7.7110000e+01	   2.1189670e-01	   2.6201737e-01	
   7.7165000e+01	   2.1375385e-01	   2.6642047e-01	
   7.7220000e+01	   2.1530522e-01	   2.7058000e-01	
   7.7275000e+01	   2.1654500e-01	   2.7448065e-01	
   7.7330000e+01	   2.1745379e-01	   2.7811226e-01	
   7.7385000e+01	   2.1799934e-01	   2.8147288e-01	
   7.7440000e+01	   2.1814049e-01	   2.8457055e-01	
   7.7495000e+01	   2.1783295e-01	   2.8742358e-01	
   7.7550000e+01	   2.1703562e-01	   2.9005947e-01	
   7.7605000e+01	   2.1571592e-01	   2.9251300e-01	
   7.7660000e+01	   2.1385340e-01	   2.9482310e-01	
   7.7715000e+01	   2.1144125e-01	   2.9702918e-01	
   7.7770000e+01	   2.0848775e-01	   2.9916765e-01	
   7.7825000e+01	   2.0501908e-01	   3.0126960e-01	
   7.7880000e+01	   2.0108344e-01	   3.0335913e-01	
   7.7935000e+01	   1.9675418e-01	   3.0545162e-01	
   7.7990000e+01	   1.9213075e-01	   3.0755184e-01	
   7.8045000e+01	   1.8733755e-01	   3.0965294e-01	
   7.8100000e+01	   1.8252052e-01	   3.1173691e-01	
   7.8155000e+01	   1.7784073e-01	   3.1377579e-01	
   7.8210000e+01	   1.7346613e-01	   3.1573280e-01	
   7.8265000e+01	   1.6956288e-01	   3.1756331e-01	
   7.8320000e+01	   1.6628635e-01	   3.1921588e-01	
   7.8375000e+01	   1.6377193e-01	   3.2063395e-01	
   7.8430000e+01	   1.6212724e-01	   3.2175797e-01	
   7.8485000e+01	   1.6142754e-01	   3.2252749e-01	
   7.8540000e+01	   1.6171416e-01	   3.2288240e-01	
   7.8595000e+01	   1.6299395e-01	   3.2276290e-01	
   7.8650000e+01	   1.6523853e-01	   3.2210862e-01	
   7.8705000e+01	   1.6838381e-01	   3.2085853e-01	
   7.8760000e+01	   1.7233129e-01	   3.1895285e-01	
   7.8815000e+01	   1.7695221e-01	   3.1633772e-01	
   7.8870000e+01	   1.8209565e-01	   3.1297168e-01	
   7.8925000e+01	   1.8760147e-01	   3.0883320e-01	
   7.8980000e+01	   1.9331629e-01	   3.0392735e-01	
   7.9035000e+01	   1.9910811e-01	   2.9829004e-01	
   7.9090000e+01	   2.0487515e-01	   2.9198899e-01	
   7.9145000e+01	   2.1054905e-01	   2.8512354e-01	
   7.9200000e+01	   2.1609342e-01	   2.7782446e-01	
   7.9255000e+01	   2.2149855e-01	   2.7025307e-01	
   7.9310000e+01	   2.2677323e-01	   2.6259751e-01	
   7.9365000e+01	   2.3193612e-01	   2.5506585e-01	
   7.9420000e+01	   2.3700887e-01	   2.4787663e-01	
   7.9475000e+01	   2.4201093e-01	   2.4124796e-01	
   7.9530000e+01	   2.4695493e-01	   2.3538582e-01	
   7.9585000e+01	   2.5184189e-01	   2.3047329e-01	
   7.9640000e+01	   2.5665752e-01	   2.2666258e-01	
   7.9695000e+01	   2.6137074e-01	   2.2407026e-01	
   7.9750000e+01	   2.6593404e-01	   2.2277471e-01	
   7.9805000e+01	   2.7028417e-01	   2.2281456e-01	
   7.9860000e+01	   2.7434387e-01	   2.2418873e-01	
   7.9915000e+01	   2.7802681e-01	   2.2685925e-01	
   7.9970000e+01	   2.8124554e-01	   2.3075612e-01	
   8.0025000e+01	   2.8391914e-01	   2.3578246e-01	
   8.0080000e+01	   2.8597889e-01	   2.4181903e-01	
   8.0135000e+01	   2.8737328e-01	   2.4872835e-01	
   8.0190000e+01	   2.8807302e-01	   2.5635897e-01	
   8.0245000e+01	   2.8807393e-01	   2.6455019e-01	
   8.0300000e+01	   2.8739720e-01	   2.7313712e-01	
   8.0355000e+01	   2.8608823e-01	   2.8195551e-01	
   8.0410000e+01	   2.8421559e-01	   2.9084582e-01	
   8.0465000e+01	   2.8187004e-01	   2.9965619e-01	
   8.0520000e+01	   2.7916326e-01	   3.0824467e-01	
   8.0575000e+01	   2.7622544e-01	   3.1648155e-01	
   8.0630000e+01	   2.7320112e-01	   3.2425234e-01	
   8.0685000e+01	   2.7024229e-01	   3.3146120e-01	
   8.0740000e+01	   2.6749954e-01	   3.3803394e-01	
   8.0795000e+01	   2.6511245e-01	   3.4391996e-01	
   8.0850000e+01	   2.6320038e-01	   3.4909200e-01	
   8.0905000e+01	   2.6185527e-01	   3.5354274e-01	
   8.0960000e+01	   2.6113782e-01	   3.5727941e-01	
   8.1015000e+01	   2.6107766e-01	   3.6031879e-01	
   8.1070000e+01	   2.6167682e-01	   3.6268415e-01	
   8.1125000e+01	   2.6291532e-01	   3.6440427e-01	
   8.1180000e+01	   2.6475607e-01	   3.6551340e-01	
   8.1235000e+01	   2.6714762e-01	   3.6605152e-01	
   8.1290000e+01	   2.7002510e-01	   3.6606436e-01	
   8.1345000e+01	   2.7331051e-01	   3.6560278e-01	
   8.1400000e+01	   2.7691272e-01	   3.6472176e-01	
   8.1455000e+01	   2.8072871e-01	   3.6348029e-01	
   8.1510000e+01	   2.8464739e-01	   3.6194230e-01	
   8.1565000e+01	   2.8855571e-01	   3.6017729e-01	
   8.1620000e+01	   2.9234518e-01	   3.5825943e-01	
   8.1675000e+01	   2.9591864e-01	   3.5626516e-01	
   8.1730000e+01	   2.9919749e-01	   3.5427027e-01	
   8.1785000e+01	   3.0212900e-01	   3.5234712e-01	
   8.1840000e+01	   3.0469142e-01	   3.5056203e-01	
   8.1895000e+01	   3.0689469e-01	   3.4897308e-01	
   8.1950000e+01	   3.0877596e-01	   3.4762780e-01	
   8.2005000e+01	   3.1039179e-01	   3.4656064e-01	
   8.2060000e+01	   3.1180976e-01	   3.4579005e-01	
   8.2115000e+01	   3.1310196e-01	   3.4531562e-01	
   8.2170000e+01	   3.1434136e-01	   3.4511603e-01	
   8.2225000e+01	   3.1560038e-01	   3.4514859e-01	
   8.2280000e+01	   3.1695005e-01	   3.4535096e-01	
   8.2335000e+01	   3.1845900e-01	   3.4564471e-01	
   8.2390000e+01	   3.2019206e-01	   3.4594060e-01	
   8.2445000e+01	   3.2220849e-01	   3.4614502e-01	
   8.2500000e+01	   3.2455840e-01	   3.4616658e-01	
   8.2555000e+01	   3.2727704e-01	   3.4592111e-01	
   8.2610000e+01	   3.3037896e-01	   3.4533447e-01	
   8.2665000e+01	   3.3385543e-01	   3.4434377e-01	
   8.2720000e+01	   3.3767570e-01	   3.4289727e-01	
   8.2775000e+01	   3.4179010e-01	   3.4095317e-01	
   8.2830000e+01	   3.4613324e-01	   3.3847751e-01	
   8.2885000e+01	   3.5062692e-01	   3.3544191e-01	
   8.2940000e+01	   3.5518228e-01	   3.3182136e-01	
   8.2995000e+01	   3.5970139e-01	   3.2759246e-01	
   8.3050000e+01	   3.6407885e-01	   3.2273338e-01	
   8.3105000e+01	   3.6820449e-01	   3.1722619e-01	
   8.3160000e+01	   3.7196686e-01	   3.1106012e-01	
   8.3215000e+01	   3.7525710e-01	   3.0423430e-01	
   8.3270000e+01	   3.7797282e-01	   2.9675926e-01	
   8.3325000e+01	   3.8002219e-01	   2.8865775e-01	
   8.3380000e+01	   3.8132803e-01	   2.7996505e-01	
   8.3435000e+01	   3.8183147e-01	   2.7072864e-01	
   8.3490000e+01	   3.8149536e-01	   2.6100688e-01	
   8.3545000e+01	   3.8030817e-01	   2.5086756e-01	
   8.3600000e+01	   3.7828780e-01	   2.4038662e-01	
   8.3655000e+01	   3.7548414e-01	   2.2964674e-01	
   8.3710000e+01	   3.7197895e-01	   2.1873465e-01	
   8.3765000e+01	   3.6788269e-01	   2.0773785e-01	
   8.3820000e+01	   3.6332909e-01	   1.9674206e-01	
   8.3875000e+01	   3.5846989e-01	   1.8582967e-01	
   8.3930000e+01	   3.5347068e-01	   1.7507862e-01	
   8.3985000e+01	   3.4850727e-01	   1.6456167e-01	
   8.4040000e+01	   3.4376138e-01	   1.5434659e-01	
   8.4095000e+01	   3.3941459e-01	   1.4449694e-01	
   8.4150000e+01	   3.3563992e-01	   1.3507201e-01	
   8.4205000e+01	   3.3259051e-01	   1.2612527e-01	
   8.4260000e+01	   3.3038738e-01	   1.1770135e-01	
   8.4315000e+01	   3.2910969e-01	   1.0983238e-01	
   8.4370000e+01	   3.2878953e-01	   1.0253431e-01	
   8.4425000e+01	   3.2941123e-01	   9.5803925e-02	
   8.4480000e+01	   3.3091328e-01	   8.9617619e-02	
   8.4535000e+01	   3.3319077e-01	   8.3932338e-02	
   8.4590000e+01	   3.3609743e-01	   7.8689009e-02	
   8.4645000e+01	   3.3944857e-01	   7.3817923e-02	
   8.4700000e+01	   3.4302797e-01	   6.9245713e-02	
   8.4755000e+01	   3.4659967e-01	   6.4903086e-02	
   8.4810000e+01	   3.4992232e-01	   6.0731388e-02	
   8.4865000e+01	   3.5276190e-01	   5.6686192e-02	
   8.4920000e+01	   3.5490083e-01	   5.2737803e-02	
   8.4975000e+01	   3.5614526e-01	   4.8870396e-02	
   8.5030000e+01	   3.5633302e-01	   4.5081553e-02	
   8.5085000e+01	   3.5534259e-01	   4.1382522e-02	
   8.5140000e+01	   3.5310153e-01	   3.7798149e-02	
   8.5195000e+01	   3.4959303e-01	   3.4365513e-02	
   8.5250000e+01	   3.4485922e-01	   3.1131068e-02	
   8.5305000e+01	   3.3899947e-01	   2.8146932e-02	
   8.5360000e+01	   3.3216334e-01	   2.5467384e-02	
   8.5415000e+01	   3.2454118e-01	   2.3146215e-02	
   8.5470000e+01	   3.1635484e-01	   2.1234651e-02	
   8.5525000e+01	   3.0784847e-01	   1.9779094e-02	
   8.5580000e+01	   2.9927889e-01	   1.8818380e-02	
   8.5635000e+01	   2.9090563e-01	   1.8381099e-02	
   8.5690000e+01	   2.8298071e-01	   1.8483294e-02	
   8.5745000e+01	   2.7573712e-01	   1.9126080e-02	
   8.5800000e+01	   2.6937614e-01	   2.0293077e-02	
   8.5855000e+01	   2.6405595e-01	   2.1948782e-02	
   8.5910000e+01	   2.5988345e-01	   2.4039188e-02	
   8.5965000e+01	   2.5690959e-01	   2.6494601e-02	
   8.6020000e+01	   2.5512718e-01	   2.9233580e-02	
   8.6075000e+01	   2.5447155e-01	   3.2167332e-02	
   8.6130000e+01	   2.5482468e-01	   3.5204419e-02	
   8.6185000e+01	   2.5602167e-01	   3.8254874e-02	
   8.6240000e+01	   2.5785806e-01	   4.1232314e-02	
   8.6295000e+01	   2.6009844e-01	   4.4054159e-02	
   8.6350000e+01	   2.6248829e-01	   4.6641664e-02	
   8.6405000e+01	   2.6476841e-01	   4.8920810e-02	
   8.6460000e+01	   2.6668782e-01	   5.0823655e-02	
   8.6515000e+01	   2.6801277e-01	   5.2289881e-02	
   8.6570000e+01	   2.6853337e-01	   5.3269180e-02	
   8.6625000e+01	   2.6807049e-01	   5.3724434e-02	
   8.6680000e+01	   2.6648238e-01	   5.3634583e-02	
   8.6735000e+01	   2.6366874e-01	   5.2996313e-02	
   8.6790000e+01	   2.5957260e-01	   5.1824820e-02	
   8.6845000e+01	   2.5418180e-01	   5.0154046e-02	
   8.6900000e+01	   2.4752998e-01	   4.8036302e-02	
   8.6955000e+01	   2.3969549e-01	   4.5541376e-02	
   8.7010000e+01	   2.3079783e-01	   4.2755627e-02	
   8.7065000e+01	   2.2099299e-01	   3.9781074e-02	
   8.7120000e+01	   2.1046878e-01	   3.6733378e-02	
   8.7175000e+01	   1.9943934e-01	   3.3737528e-02	
   8.7230000e+01	   1.8813602e-01	   3.0921386e-02	
   8.7285000e+01	   1.7679323e-01	   2.8408351e-02	
   8.7340000e+01	   1.6563099e-01	   2.6310316e-02	
   8.7395000e+01	   1.5483815e-01	   2.4721444e-02	
   8.7450000e+01	   1.4456073e-01	   2.3713374e-02	
   8.7505000e+01	   1.3489854e-01	   2.3332743e-02	
   8.7560000e+01	   1.2590913e-01	   2.3601235e-02	
   8.7615000e+01	   1.1761483e-01	   2.4517095e-02	
   8.7670000e+01	   1.1000914e-01	   2.6056774e-02	
   8.7725000e+01	   1.0306236e-01	   2.8176422e-02	
   8.7780000e+01	   9.6727751e-02	   3.0813516e-02	
   8.7835000e+01	   9.0946845e-02	   3.3888375e-02	
   8.7890000e+01	   8.5651719e-02	   3.7305200e-02	
   8.7945000e+01	   8.0764526e-02	   4.0953254e-02	
   8.8000000e+01	   7.6197203e-02	   4.4709336e-02	
   8.8055000e+01	   7.1853133e-02	   4.8441607e-02	
   8.8110000e+01	   6.7630387e-02	   5.2013950e-02	
   8.8165000e+01	   6.3425917e-02	   5.5290680e-02	
   8.8220000e+01	   5.9140762e-02	   5.8142063e-02	
   8.8275000e+01	   5.4685581e-02	   6.0450519e-02	
   8.8330000e+01	   4.9984679e-02	   6.2116742e-02	
   8.8385000e+01	   4.4977310e-02	   6.3065242e-02	
   8.8440000e+01	   3.9617121e-02	   6.3248886e-02	
   8.8495000e+01	   3.3871175e-02	   6.2651557e-02	
   8.8550000e+01	   2.7719176e-02	   6.1288226e-02	
   8.8605000e+01	   2.1153629e-02	   5.9202924e-02	
   8.8660000e+01	   1.4181568e-02	   5.6465632e-02	
   8.8715000e+01	   6.8260695e-03	   5.3168357e-02	
   8.8770000e+01	  -8.7586371e-04	   4.9419826e-02	
   8.8825000e+01	  -8.8794979e-03	   4.5338576e-02	
   8.8880000e+01	  -1.7138650e-02	   4.1045390e-02	
   8.8935000e+01	  -2.5607972e-02	   3.6656617e-02	
   8.8990000e+01	  -3.4241061e-02	   3.2279500e-02	
   8.9045000e+01	  -4.2986956e-02	   2.8009689e-02	
   8.9100000e+01	  -5.1787215e-02	   2.3930101e-02	
   8.9155000e+01	  -6.0574221e-02	   2.0109663e-02	
   8.9210000e+01	  -6.9270965e-02	   1.6600944e-02	
   8.9265000e+01	  -7.7793195e-02	   1.3437032e-02	
   8.9320000e+01	  -8.6054671e-02	   1.0629119e-02	
   8.9375000e+01	  -9.3975206e-02	   8.1660317e-03	
   8.9430000e+01	  -1.0149057e-01	   6.0158389e-03	
   8.9485000e+01	  -1.0856291e-01	   4.1286314e-03	
   8.9540000e+01	  -1.1518934e-01	   2.4398280e-03	
   8.9595000e+01	  -1.2140639e-01	   8.7405683e-04	
   8.9650000e+01	  -1.2728986e-01	  -6.5021356e-04	
   8.9705000e+01	  -1.3295076e-01	  -2.2155032e-03	
   8.9760000e+01	  -1.3852797e-01	  -3.9000547e-03	
   8.9815000e+01	  -1.4417765e-01	  -5.7730365e-03	
   8.9870000e+01	  -1.5005937e-01	  -7.8907854e-03	
   8.9925000e+01	  -1.5632081e-01	  -1.0294383e-02	
   8.9980000e+01	  -1.6308404e-01	  -1.3008515e-02	
   9.0035000e+01	  -1.7043675e-01	  -1.6041518e-02	
   9.0090000e+01	  -1.7842905e-01	  -1.9386641e-02	
   9.0145000e+01	  -1.8707437e-01	  -2.3024414e-02	
   9.0200000e+01	  -1.9635256e-01	  -2.6925486e-02	
   9.0255000e+01	  -2.0621430e-01	  -3.1053065e-02	
   9.0310000e+01	  -2.1658619e-01	  -3.5364458e-02	
   9.0365000e+01	  -2.2737578e-01	  -3.9812049e-02	
   9.0420000e+01	  -2.3847547e-01	  -4.4344401e-02	
   9.0475000e+01	  -2.4976442e-01	  -4.8907651e-02	
   9.0530000e+01	  -2.6110833e-01	  -5.3447292e-02	
   9.0585000e+01	  -2.7235982e-01	  -5.7910661e-02	
   9.0640000e+01	  -2.8336116e-01	  -6.2249868e-02	
   9.0695000e+01	  -2.9394955e-01	  -6.6423932e-02	
   9.0750000e+01	  -3.0396332e-01	  -7.0399574e-02	
   9.0805000e+01	  -3.1324727e-01	  -7.4151488e-02	
   9.0860000e+01	  -3.2165573e-01	  -7.7662821e-02	
   9.0915000e+01	  -3.2905223e-01	  -8.0925099e-02	
   9.0970000e+01	  -3.3530653e-01	  -8.3936354e-02	
   9.1025000e+01	  -3.4029147e-01	  -8.6697299e-02	
   9.1080000e+01	  -3.4388274e-01	  -8.9206832e-02	
   9.1135000e+01	  -3.4596231e-01	  -9.1458580e-02	
   9.1190000e+01	  -3.4642331e-01	  -9.3439110e-02	
   9.1245000e+01	  -3.4517436e-01	  -9.5127413e-02	
   9.1300000e+01	  -3.4214437e-01	  -9.6495435e-02	
   9.1355000e+01	  -3.3728801e-01	  -9.7509680e-02	
   9.1410000e+01	  -3.3059085e-01	  -9.8133697e-02	
   9.1465000e+01	  -3.2207431e-01	  -9.8331176e-02	
   9.1520000e+01	  -3.1180155e-01	  -9.8069722e-02	
   9.1575000e+01	  -2.9988411e-01	  -9.7325464e-02	
   9.1630000e+01	  -2.8648692e-01	  -9.6088017e-02	
   9.1685000e+01	  -2.7182947e-01	  -9.4364555e-02	
   9.1740000e+01	  -2.5618228e-01	  -9.2181982e-02	
   9.1795000e+01	  -2.3985842e-01	  -8.9586994e-02	
   9.1850000e+01	  -2.2320092e-01	  -8.6644095e-02	
   9.1905000e+01	  -2.0656713e-01	  -8.3431677e-02	
   9.1960000e+01	  -1.9031190e-01	  -8.0036967e-02	
   9.2015000e+01	  -1.7477212e-01	  -7.6551359e-02	
   9.2070000e+01	  -1.6025458e-01	  -7.3067024e-02	
   9.2125000e+01	  -1.4702744e-01	  -6.9674053e-02	
   9.2180000e+01	  -1.3531477e-01	  -6.6456929e-02	
   9.2235000e+01	  -1.2529483e-01	  -6.3490495e-02	
   9.2290000e+01	  -1.1710317e-01	  -6.0836834e-02	
   9.2345000e+01	  -1.1083935e-01	  -5.8543894e-02	
   9.2400000e+01	  -1.0657259e-01	  -5.6645363e-02	
   9.2455000e+01	  -1.0434306e-01	  -5.5161018e-02	
   9.2510000e+01	  -1.0416043e-01	  -5.4097604e-02	
   9.2565000e+01	  -1.0600263e-01	  -5.3450545e-02	
   9.2620000e+01	  -1.0981481e-01	  -5.3206107e-02	
   9.2675000e+01	  -1.1550791e-01	  -5.3343747e-02	
   9.2730000e+01	  -1.2295809e-01	  -5.3839087e-02	
   9.2785000e+01	  -1.3200878e-01	  -5.4667442e-02	
   9.2840000e+01	  -1.4247415e-01	  -5.5806670e-02	
   9.2895000e+01	  -1.5414196e-01	  -5.7238183e-02	
   9.2950000e+01	  -1.6677645e-01	  -5.8946085e-02	
   9.3005000e+01	  -1.8012352e-01	  -6.0915214e-02	
   9.3060000e+01	  -1.9391861e-01	  -6.3128726e-02	
   9.3115000e+01	  -2.0789563e-01	  -6.5565624e-02	
   9.3170000e+01	  -2.2179555e-01	  -6.8198776e-02	
   9.3225000e+01	  -2.3537443e-01	  -7.0993960e-02	
   9.3280000e+01	  -2.4840986e-01	  -7.3909794e-02	
   9.3335000e+01	  -2.6070452e-01	  -7.6898275e-02	
   9.3390000e+01	  -2.7208700e-01	  -7.9906060e-02	
   9.3445000e+01	  -2.8241174e-01	  -8.2876690e-02	
   9.3500000e+01	  -2.9155864e-01	  -8.5753133e-02	
   9.3555000e+01	  -2.9943153e-01	  -8.8479869e-02	
   9.3610000e+01	  -3.0595632e-01	  -9.1004823e-02	
   9.3665000e+01	  -3.1108050e-01	  -9.3282125e-02	
   9.3720000e+01	  -3.1477513e-01	  -9.5275624e-02	
   9.3775000e+01	  -3.1703778e-01	  -9.6961609e-02	
   9.3830000e+01	  -3.1789487e-01	  -9.8329514e-02	
   9.3885000e+01	  -3.1740307e-01	  -9.9380988e-02	
   9.3940000e+01	  -3.1564940e-01	  -1.0012786e-01	
   9.3995000e+01	  -3.1274782e-01	  -1.0058872e-01	
   9.4050000e+01	  -3.0883120e-01	  -1.0078440e-01	
   9.4105000e+01	  -3.0404039e-01	  -1.0073401e-01	
   9.4160000e+01	  -2.9851370e-01	  -1.0045302e-01	
   9.4215000e+01	  -2.9237869e-01	  -9.9953225e-02	
   9.4270000e+01	  -2.8574689e-01	  -9.9243589e-02	
   9.4325000e+01	  -2.7871135e-01	  -9.8331010e-02	
   9.4380000e+01	  -2.7134712e-01	  -9.7221254e-02	
   9.4435000e+01	  -2.6371354e-01	  -9.5920432e-02	
   9.4490000e+01	  -2.5585751e-01	  -9.4436885e-02	
   9.4545000e+01	  -2.4781731e-01	  -9.2782975e-02	
   9.4600000e+01	  -2.3962645e-01	  -9.0976137e-02	
   9.4655000e+01	  -2.3131592e-01	  -8.9038349e-02	
   9.4710000e+01	  -2.2291359e-01	  -8.6993797e-02	
   9.4765000e+01	  -2.1444174e-01	  -8.4866235e-02	
   9.4820000e+01	  -2.0591450e-01	  -8.2677836e-02	
   9.4875000e+01	  -1.9733622e-01	  -8.0449554e-02	
   9.4930000e+01	  -1.8870137e-01	  -7.8201422e-02	
   9.4985000e+01	  -1.7999581e-01	  -7.5951869e-02	
   9.5040000e+01	  -1.7119915e-01	  -7.3716838e-02	
   9.5095000e+01	  -1.6228746e-01	  -7.1509881e-02	
   9.5150000e+01	  -1.5323537e-01	  -6.9342919e-02	
   9.5205000e+01	  -1.4401761e-01	  -6.7226387e-02	
   9.5260000e+01	  -1.3461138e-01	  -6.5168581e-02	
   9.5315000e+01	  -1.2500115e-01	  -6.3175329e-02	
   9.5370000e+01	  -1.1518487e-01	  -6.1250548e-02	
   9.5425000e+01	  -1.0517817e-01	  -5.9397284e-02	
   9.5480000e+01	  -9.5015798e-02	  -5.7618979e-02	
   9.5535000e+01	  -8.4751659e-02	  -5.5920880e-02	
   9.5590000e+01	  -7.4457603e-02	  -5.4310829e-02	
   9.5645000e+01	  -6.4219732e-02	  -5.2798667e-02	
   9.5700000e+01	  -5.4131791e-02	  -5.1394736e-02	
   9.5755000e+01	  -4.4286500e-02	  -5.0108854e-02	
   9.5810000e+01	  -3.4766056e-02	  -4.8950360e-02	
   9.5865000e+01	  -2.5632995e-02	  -4.7928407e-02	
   9.5920000e+01	  -1.6922411e-02	  -4.7051400e-02	
   9.5975000e+01	  -8.6365685e-03	  -4.6325438e-02	
   9.6030000e+01	  -7.4285381e-04	  -4.5752226e-02	
   9.6085000e+01	   6.8244353e-03	  -4.5326902e-02	
   9.6140000e+01	   1.4158171e-02	  -4.5036682e-02	
   9.6195000e+01	   2.1368007e-02	  -4.4861900e-02	
   9.6250000e+01	   2.8566719e-02	  -4.4779941e-02	
   9.6305000e+01	   3.5856881e-02	  -4.4770177e-02	
   9.6360000e+01	   4.3321112e-02	  -4.4817179e-02	
   9.6415000e+01	   5.1016204e-02	  -4.4911205e-02	
   9.6470000e+01	   5.8969793e-02	  -4.5047036e-02	
   9.6525000e+01	   6.7178941e-02	  -4.5222723e-02	
   9.6580000e+01	   7.5610338e-02	  -4.5439600e-02	
   9.6635000e+01	   8.4201471e-02	  -4.5704248e-02	
   9.6690000e+01	   9.2862767e-02	  -4.6031561e-02	
   9.6745000e+01	   1.0148182e-01	  -4.6446790e-02	
   9.6800000e+01	   1.0992992e-01	  -4.6985115e-02	
   9.6855000e+01	   1.1806883e-01	  -4.7689174e-02	
   9.6910000e+01	   1.2575540e-01	  -4.8605847e-02	
   9.6965000e+01	   1.3284359e-01	  -4.9783059e-02	
   9.7020000e+01	   1.3918530e-01	  -5.1266898e-02	
   9.7075000e+01	   1.4463117e-01	  -5.3099666e-02	
   9.7130000e+01	   1.4903170e-01	  -5.5319377e-02	
   9.7185000e+01	   1.5223979e-01	  -5.7960116e-02	
   9.7240000e+01	   1.5411615e-01	  -6.1052169e-02	
   9.7295000e+01	   1.5453754e-01	  -6.4621523e-02	
   9.7350000e+01	   1.5340516e-01	  -6.8688974e-02	
   9.7405000e+01	   1.5065129e-01	  -7.3269179e-02	
   9.7460000e+01	   1.4624501e-01	  -7.8369433e-02	
   9.7515000e+01	   1.4019873e-01	  -8.3987879e-02	
   9.7570000e+01	   1.3257460e-01	  -9.0111816e-02	
   9.7625000e+01	   1.2348739e-01	  -9.6717572e-02	
   9.7680000e+01	   1.1310241e-01	  -1.0377243e-01	
   9.7735000e+01	   1.0162996e-01	  -1.1123740e-01	
   9.7790000e+01	   8.9318566e-02	  -1.1906917e-01	
   9.7845000e+01	   7.6446905e-02	  -1.2722099e-01	
   9.7900000e+01	   6.3313651e-02	  -1.3564269e-01	
   9.7955000e+01	   5.0226113e-02	  -1.4428038e-01	
   9.8010000e+01	   3.7489312e-02	  -1.5307551e-01	
   9.8065000e+01	   2.5395833e-02	  -1.6196406e-01	
   9.8120000e+01	   1.4216372e-02	  -1.7087639e-01	
   9.8175000e+01	   4.1913057e-03	  -1.7973808e-01	
   9.8230000e+01	  -4.4768273e-03	  -1.8847147e-01	
   9.8285000e+01	  -1.1630522e-02	  -1.9699851e-01	
   9.8340000e+01	  -1.7163309e-02	  -2.0524531e-01	
   9.8395000e+01	  -2.1021717e-02	  -2.1314709e-01	
   9.8450000e+01	  -2.3201462e-02	  -2.2065167e-01	
   9.8505000e+01	  -2.3739982e-02	  -2.2772082e-01	
   9.8560000e+01	  -2.2709160e-02	  -2.3432994e-01	
   9.8615000e+01	  -2.0209974e-02	  -2.4046641e-01	
   9.8670000e+01	  -1.6368906e-02	  -2.4612684e-01	
   9.8725000e+01	  -1.1336273e-02	  -2.5131390e-01	
   9.8780000e+01	  -5.2858310e-03	  -2.5603394e-01	
   9.8835000e+01	   1.5868407e-03	  -2.6029519e-01	
   9.8890000e+01	   9.0684996e-03	  -2.6410621e-01	
   9.8945000e+01	   1.6933002e-02	  -2.6747430e-01	
   9.9000000e+01	   2.4944527e-02	  -2.7040506e-01	
   9.9055000e+01	   3.2860172e-02	  -2.7290345e-01	
   9.9110000e+01	   4.0434820e-02	  -2.7497520e-01	
   9.9165000e+01	   4.7429736e-02	  -2.7662747e-01	
   9.9220000e+01	   5.3623649e-02	  -2.7786892e-01	
   9.9275000e+01	   5.8823774e-02	  -2.7870970e-01	
   9.9330000e+01	   6.2874398e-02	  -2.7916123e-01	
   9.9385000e+01	   6.5661791e-02	  -2.7923589e-01	
   9.9440000e+01	   6.7115372e-02	  -2.7894800e-01	
   9.9495000e+01	   6.7205708e-02	  -2.7831593e-01	
   9.9550000e+01	   6.5940721e-02	  -2.7736362e-01	
   9.9605000e+01	   6.3361967e-02	  -2.7611952e-01	
   9.9660000e+01	   5.9541325e-02	  -2.7461315e-01	
   9.9715000e+01	   5.4576981e-02	  -2.7287142e-01	
   9.9770000e+01	   4.8588943e-02	  -2.7091617e-01	
   9.9825000e+01	   4.1715556e-02	  -2.6876323e-01	
   9.9880000e+01	   3.4110946e-02	  -2.6642210e-01	
   9.9935000e+01	   2.5941570e-02	  -2.6389568e-01	
   9.9990000e+01	   1.7380954e-02	  -2.6118039e-01	
   1.0004500e+02	   8.6035625e-03	  -2.5826656e-01	
   1.0010000e+02	  -2.2183048e-04	  -2.5513962e-01	
   1.0015500e+02	  -8.9398686e-03	  -2.5178260e-01	
   1.0021000e+02	  -1.7416258e-02	  -2.4817887e-01	
   1.0026500e+02	  -2.5542175e-02	  -2.4431418e-01	
   1.0032000e+02	  -3.3233782e-02	  -2.4017722e-01	
   1.0037500e+02	  -4.0428347e-02	  -2.3575992e-01	
   1.0043000e+02	  -4.7079660e-02	  -2.3105876e-01	
   1.0048500e+02	  -5.3154585e-02	  -2.2607695e-01	
   1.0054000e+02	  -5.8631597e-02	  -2.2082659e-01	
   1.0059500e+02	  -6.3501517e-02	  -2.1532965e-01	
   1.0065000e+02	  -6.7769596e-02	  -2.0961743e-01	
   1.0070500e+02	  -7.1456908e-02	  -2.0372866e-01	
   1.0076000e+02	  -7.4599003e-02	  -1.9770714e-01	
   1.0081500e+02	  -7.7241863e-02	  -1.9159993e-01	
   1.0087000e+02	  -7.9437236e-02	  -1.8545695e-01	
   1.0092500e+02	  -8.1239256e-02	  -1.7933166e-01	
   1.0098000e+02	  -8.2702754e-02	  -1.7328195e-01	
   1.0103500e+02	  -8.3882815e-02	  -1.6737038e-01	
   1.0109000e+02	  -8.4834760e-02	  -1.6166341e-01	
   1.0114500e+02	  -8.5612984e-02	  -1.5622984e-01	
   1.0120000e+02	  -8.6267475e-02	  -1.5113860e-01	
   1.0125500e+02	  -8.6839175e-02	  -1.4645675e-01	
   1.0131000e+02	  -8.7356922e-02	  -1.4224817e-01	
   1.0136500e+02	  -8.7837009e-02	  -1.3857339e-01	
   1.0142000e+02	  -8.8283807e-02	  -1.3549009e-01	
   1.0147500e+02	  -8.8689859e-02	  -1.3305271e-01	
   1.0153000e+02	  -8.9036201e-02	  -1.3131038e-01	
   1.0158500e+02	  -8.9294287e-02	  -1.3030337e-01	
   1.0164000e+02	  -8.9428516e-02	  -1.3005859e-01	
   1.0169500e+02	  -8.9397158e-02	  -1.3058523e-01	
   1.0175000e+02	  -8.9151891e-02	  -1.3187135e-01	
   1.0180500e+02	  -8.8638392e-02	  -1.3388165e-01	
   1.0186000e+02	  -8.7799393e-02	  -1.3655596e-01	
   1.0191500e+02	  -8.6579603e-02	  -1.3980768e-01	
   1.0197000e+02	  -8.4931003e-02	  -1.4352266e-01	
   1.0202500e+02	  -8.2817194e-02	  -1.4755989e-01	
   1.0208000e+02	  -8.0215969e-02	  -1.5175499e-01	
   1.0213500e+02	  -7.7120969e-02	  -1.5592635e-01	
   1.0219000e+02	  -7.3544381e-02	  -1.5988324e-01	
   1.0224500e+02	  -6.9521024e-02	  -1.6343514e-01	
   1.0230000e+02	  -6.5111199e-02	  -1.6640106e-01	
   1.0235500e+02	  -6.0399595e-02	  -1.6861802e-01	
   1.0241000e+02	  -5.5489919e-02	  -1.6994814e-01	
   1.0246500e+02	  -5.0496514e-02	  -1.7028473e-01	
   1.0252000e+02	  -4.5534167e-02	  -1.6955698e-01	
   1.0257500e+02	  -4.0707335e-02	  -1.6773155e-01	
   1.0263000e+02	  -3.6100786e-02	  -1.6481042e-01	
   1.0268500e+02	  -3.1773779e-02	  -1.6082645e-01	
   1.0274000e+02	  -2.7758477e-02	  -1.5583914e-01	
   1.0279500e+02	  -2.4061387e-02	  -1.4993121e-01	
   1.0285000e+02	  -2.0666325e-02	  -1.4320540e-01	
   1.0290500e+02	  -1.7539023e-02	  -1.3578097e-01	
   1.0296000e+02	  -1.4634084e-02	  -1.2779018e-01	
   1.0301500e+02	  -1.1903284e-02	  -1.1937418e-01	
   1.0307000e+02	  -9.3032690e-03	  -1.1067787e-01	
   1.0312500e+02	  -6.8016390e-03	  -1.0184406e-01	
   1.0318000e+02	  -4.3808293e-03	  -9.3007752e-02	
   1.0323500e+02	  -2.0384483e-03	  -8.4290325e-02	
   1.0329000e+02	   2.1677488e-04	  -7.5793434e-02	
   1.0334500e+02	   2.3714979e-03	  -6.7594162e-02	
   1.0340000e+02	   4.4129205e-03	  -5.9743263e-02	
   1.0345500e+02	   6.3305042e-03	  -5.2266888e-02	
   1.0351000e+02	   8.1149971e-03	  -4.5170532e-02	
   1.0356500e+02	   9.7561167e-03	  -3.8444215e-02	
   1.0362000e+02	   1.1239613e-02	  -3.2068579e-02	
   1.0367500e+02	   1.2544521e-02	  -2.6021046e-02	
   1.0373000e+02	   1.3641687e-02	  -2.0280521e-02	
   1.0378500e+02	   1.4493889e-02	  -1.4830275e-02	
   1.0384000e+02	   1.5056536e-02	  -9.6598408e-03	
   1.0389500e+02	   1.5277981e-02	  -4.7659549e-03	
   1.0395000e+02	   1.5100280e-02	  -1.5134541e-04	
   1.0400500e+02	   1.4461683e-02	   4.1788906e-03	
   1.0406000e+02	   1.3300754e-02	   8.2215002e-03	
   1.0411500e+02	   1.1561417e-02	   1.1977710e-02	
   1.0417000e+02	   9.1989272e-03	   1.5453906e-02	
   1.0422500e+02	   6.1866559e-03	   1.8661403e-02	
   1.0428000e+02	   2.5226018e-03	   2.1616137e-02	
   1.0433500e+02	  -1.7655192e-03	   2.4338562e-02	
   1.0439000e+02	  -6.6170613e-03	   2.6854039e-02	
   1.0444500e+02	  -1.1937144e-02	   2.9193919e-02	
   1.0450000e+02	  -1.7597900e-02	   3.1396802e-02	
   1.0455500e+02	  -2.3443279e-02	   3.3509109e-02	
   1.0461000e+02	  -2.9296983e-02	   3.5585131e-02	
   1.0466500e+02	  -3.4972034e-02	   3.7687154e-02	
   1.0472000e+02	  -4.0281562e-02	   3.9885229e-02	
   1.0477500e+02	  -4.5051249e-02	   4.2255437e-02	
   1.0483000e+02	  -4.9132607e-02	   4.4876347e-02	
   1.0488500e+02	  -5.2415019e-02	   4.7824113e-02	
   1.0494000e+02	  -5.4834852e-02	   5.1166543e-02	
   1.0499500e+02	  -5.6380757e-02	   5.4957015e-02	
   1.0505000e+02	  -5.7094584e-02	   5.9229925e-02	
   1.0510500e+02	  -5.7066967e-02	   6.3999109e-02	
   1.0516000e+02	  -5.6426957e-02	   6.9258886e-02	
   1.0521500e+02	  -5.5326823e-02	   7.4985808e-02	
   1.0527000e+02	  -5.3925005e-02	   8.1139730e-02	
   1.0532500e+02	  -5.2370029e-02	   8.7664268e-02	
   1.0538000e+02	  -5.0787244e-02	   9.4487307e-02	
   1.0543500e+02	  -4.9270219e-02	   1.0152170e-01	
   1.0549000e+02	  -4.7878042e-02	   1.0866622e-01	
   1.0554500e+02	  -4.6637422e-02	   1.1580745e-01	
   1.0560000e+02	  -4.5547206e-02	   1.2282336e-01	
   1.0565500e+02	  -4.4583786e-02	   1.2958878e-01	
   1.0571000e+02	  -4.3706975e-02	   1.3598133e-01	
   1.0576500e+02	  -4.2865814e-02	   1.4188713e-01	
   1.0582000e+02	  -4.2004056e-02	   1.4720594e-01	
   1.0587500e+02	  -4.1066434e-02	   1.5185587e-01	
   1.0593000e+02	  -4.0006930e-02	   1.5577717e-01	
   1.0598500e+02	  -3.8797999e-02	   1.5893467e-01	
   1.0604000e+02	  -3.7437855e-02	   1.6131876e-01	
   1.0609500e+02	  -3.5953492e-02	   1.6294516e-01	
   1.0615000e+02	  -3.4398635e-02	   1.6385294e-01	
   1.0620500e+02	  -3.2846566e-02	   1.6410045e-01	
   1.0626000e+02	  -3.1378740e-02	   1.6376017e-01	
   1.0631500e+02	  -3.0071932e-02	   1.6291366e-01	
   1.0637000e+02	  -2.8988313e-02	   1.6164728e-01	
   1.0642500e+02	  -2.8172129e-02	   1.6004821e-01	
   1.0648000e+02	  -2.7652817e-02	   1.5820073e-01	
   1.0653500e+02	  -2.7450880e-02	   1.5618319e-01	
   1.0659000e+02	  -2.7582503e-02	   1.5406617e-01	
   1.0664500e+02	  -2.8061003e-02	   1.5191147e-01	
   1.0670000e+02	  -2.8895510e-02	   1.4977224e-01	
   1.0675500e+02	  -3.0088911e-02	   1.4769386e-01	
   1.0681000e+02	  -3.1637142e-02	   1.4571472e-01	
   1.0686500e+02	  -3.3530207e-02	   1.4386582e-01	
   1.0692000e+02	  -3.5753346e-02	   1.4216896e-01	
   1.0697500e+02	  -3.8286806e-02	   1.4063401e-01	
   1.0703000e+02	  -4.1103989e-02	   1.3925606e-01	
   1.0708500e+02	  -4.4168582e-02	   1.3801369e-01	
   1.0714000e+02	  -4.7432255e-02	   1.3686914e-01	
   1.0719500e+02	  -5.0835524e-02	   1.3577103e-01	
   1.0725000e+02	  -5.4313328e-02	   1.3465892e-01	
   1.0730500e+02	  -5.7804151e-02	   1.3346842e-01	
   1.0736000e+02	  -6.1259171e-02	   1.3213625e-01	
   1.0741500e+02	  -6.4647793e-02	   1.3060495e-01	
   1.0747000e+02	  -6.7958185e-02	   1.2882733e-01	
   1.0752500e+02	  -7.1194163e-02	   1.2677014e-01	
   1.0758000e+02	  -7.4370934e-02	   1.2441643e-01	
   1.0763500e+02	  -7.7511433e-02	   1.2176602e-01	
   1.0769000e+02	  -8.0643389e-02	   1.1883432e-01	
   1.0774500e+02	  -8.3796195e-02	   1.1564991e-01	
   1.0780000e+02	  -8.6997157e-02	   1.1225141e-01	
   1.0785500e+02	  -9.0267729e-02	   1.0868409e-01	
   1.0791000e+02	  -9.3620658e-02	   1.0499698e-01	
   1.0796500e+02	  -9.7058763e-02	   1.0124089e-01	
   1.0802000e+02	  -1.0057615e-01	   9.7467180e-02	
   1.0807500e+02	  -1.0416169e-01	   9.3726232e-02	
   1.0813000e+02	  -1.0780255e-01	   9.0065505e-02	
   1.0818500e+02	  -1.1148547e-01	   8.6527920e-02	
   1.0824000e+02	  -1.1519522e-01	   8.3150797e-02	
   1.0829500e+02	  -1.1891183e-01	   7.9965153e-02	
   1.0835000e+02	  -1.2260814e-01	   7.6995128e-02	
   1.0840500e+02	  -1.2624952e-01	   7.4257415e-02	
   1.0846000e+02	  -1.2979777e-01	   7.1760794e-02	
   1.0851500e+02	  -1.3321843e-01	   6.9506111e-02	
   1.0857000e+02	  -1.3648877e-01	   6.7486695e-02	
   1.0862500e+02	  -1.3960299e-01	   6.5688530e-02	
   1.0868000e+02	  -1.4257380e-01	   6.4089596e-02	
   1.0873500e+02	  -1.4543047e-01	   6.2658811e-02	
   1.0879000e+02	  -1.4821415e-01	   6.1355600e-02	
   1.0884500e+02	  -1.5097056e-01	   6.0130828e-02	
   1.0890000e+02	  -1.5374066e-01	   5.8929125e-02	
   1.0895500e+02	  -1.5655188e-01	   5.7691847e-02	
   1.0901000e+02	  -1.5941229e-01	   5.6359598e-02	
   1.0906500e+02	  -1.6230888e-01	   5.4874084e-02	
   1.0912000e+02	  -1.6520984e-01	   5.3180266e-02	
   1.0917500e+02	  -1.6806962e-01	   5.1229587e-02	
   1.0923000e+02	  -1.7083478e-01	   4.8983938e-02	
   1.0928500e+02	  -1.7344916e-01	   4.6419074e-02	
   1.0934000e+02	  -1.7585943e-01	   4.3525976e-02	
   1.0939500e+02	  -1.7802277e-01	   4.0309422e-02	
   1.0945000e+02	  -1.7991517e-01	   3.6784383e-02	
   1.0950500e+02	  -1.8153765e-01	   3.2971786e-02	
   1.0956000e+02	  -1.8291813e-01	   2.8894752e-02	
   1.0961500e+02	  -1.8410922e-01	   2.4575549e-02	
   1.0967000e+02	  -1.8518251e-01	   2.0033349e-02	
   1.0972500e+02	  -1.8622029e-01	   1.5283169e-02	
   1.0978000e+02	  -1.8730619e-01	   1.0336291e-02	
   1.0983500e+02	  -1.8851647e-01	   5.2021413e-03	
   1.0989000e+02	  -1.8991373e-01	  -1.0892193e-04	
   1.0994500e+02	  -1.9154378e-01	  -5.5834850e-03	
   1.1000000e+02	  -1.9343553e-01	  -1.1205524e-02	
   1.1005500e+02	  -1.9560216e-01	  -1.6959626e-02	
   1.1011000e+02	  -1.9804143e-01	  -2.2834852e-02	
   1.1016500e+02	  -2.0073455e-01	  -2.8826348e-02	
   1.1022000e+02	  -2.0364468e-01	  -3.4933560e-02	
   1.1027500e+02	  -2.0671748e-01	  -4.1156766e-02	
   1.1033000e+02	  -2.0988454e-01	  -4.7494710e-02	
   1.1038500e+02	  -2.1306755e-01	  -5.3944561e-02	
   1.1044000e+02	  -2.1618063e-01	  -6.0502755e-02	
   1.1049500e+02	  -2.1913076e-01	  -6.7164138e-02	
   1.1055000e+02	  -2.2181903e-01	  -7.3918613e-02	
   1.1060500e+02	  -2.2414424e-01	  -8.0747178e-02	
   1.1066000e+02	  -2.2600774e-01	  -8.7619561e-02	
   1.1071500e+02	  -2.2731694e-01	  -9.4494189e-02	
   1.1077000e+02	  -2.2798709e-01	  -1.0132030e-01	
   1.1082500e+02	  -2.2794324e-01	  -1.0804180e-01	
   1.1088000e+02	  -2.2712318e-01	  -1.1460156e-01	
   1.1093500e+02	  -2.2548182e-01	  -1.2094452e-01	
   1.1099000e+02	  -2.2299710e-01	  -1.2701925e-01	
   1.1104500e+02	  -2.1967708e-01	  -1.3277939e-01	
   1.1110000e+02	  -2.1556491e-01	  -1.3818552e-01	
   1.1115500e+02	  -2.1073940e-01	  -1.4320723e-01	
   1.1121000e+02	  -2.0531110e-01	  -1.4782521e-01	
   1.1126500e+02	  -1.9941578e-01	  -1.5203274e-01	
   1.1132000e+02	  -1.9320620e-01	  -1.5583594e-01	
   1.1137500e+02	  -1.8684280e-01	  -1.5925208e-01	
   1.1143000e+02	  -1.8048567e-01	  -1.6230766e-01	
   1.1148500e+02	  -1.7429031e-01	  -1.6503787e-01	
   1.1154000e+02	  -1.6840693e-01	  -1.6748773e-01	
   1.1159500e+02	  -1.6297942e-01	  -1.6971336e-01	
   1.1165000e+02	  -1.5814055e-01	  -1.7178179e-01	
   1.1170500e+02	  -1.5400430e-01	  -1.7376873e-01	
   1.1176000e+02	  -1.5065865e-01	  -1.7575521e-01	
   1.1181500e+02	  -1.4816171e-01	  -1.7782419e-01	
   1.1187000e+02	  -1.4654160e-01	  -1.8005750e-01	
   1.1192500e+02	  -1.4579876e-01	  -1.8253326e-01	
   1.1198000e+02	  -1.4590897e-01	  -1.8532351e-01	
   1.1203500e+02	  -1.4682652e-01	  -1.8849154e-01	
   1.1209000e+02	  -1.4848779e-01	  -1.9208867e-01	
   1.1214500e+02	  -1.5081667e-01	  -1.9615117e-01	
   1.1220000e+02	  -1.5373102e-01	  -2.0069786e-01	
   1.1225500e+02	  -1.5714630e-01	  -2.0572812e-01	
   1.1231000e+02	  -1.6097499e-01	  -2.1121984e-01	
   1.1236500e+02	  -1.6512481e-01	  -2.1712815e-01	
   1.1242000e+02	  -1.6950054e-01	  -2.2338598e-01	
   1.1247500e+02	  -1.7401051e-01	  -2.2990681e-01	
   1.1253000e+02	  -1.7857522e-01	  -2.3658940e-01	
   1.1258500e+02	  -1.8313407e-01	  -2.4332313e-01	
   1.1264000e+02	  -1.8764822e-01	  -2.4999345e-01	
   1.1269500e+02	  -1.9209918e-01	  -2.5648699e-01	
   1.1275000e+02	  -1.9648446e-01	  -2.6269620e-01	
   1.1280500e+02	  -2.0081237e-01	  -2.6852374e-01	
   1.1286000e+02	  -2.0509801e-01	  -2.7388651e-01	
   1.1291500e+02	  -2.0936161e-01	  -2.7871879e-01	
   1.1297000e+02	  -2.1362793e-01	  -2.8297312e-01	
   1.1302500e+02	  -2.1792557e-01	  -2.8661952e-01	
   1.1308000e+02	  -2.2228592e-01	  -2.8964457e-01	
   1.1313500e+02	  -2.2674153e-01	  -2.9205164e-01	
   1.1319000e+02	  -2.3132289e-01	  -2.9386150e-01	
   1.1324500e+02	  -2.3605293e-01	  -2.9511241e-01	
   1.1330000e+02	  -2.4094062e-01	  -2.9585881e-01	
   1.1335500e+02	  -2.4597539e-01	  -2.9616890e-01	
   1.1341000e+02	  -2.5112346e-01	  -2.9612134e-01	
   1.1346500e+02	  -2.5632661e-01	  -2.9580207e-01	
   1.1352000e+02	  -2.6150364e-01	  -2.9530148e-01	
   1.1357500e+02	  -2.6655450e-01	  -2.9471221e-01	
   1.1363000e+02	  -2.7136585e-01	  -2.9412701e-01	
   1.1368500e+02	  -2.7581593e-01	  -2.9363633e-01	
   1.1374000e+02	  -2.7977884e-01	  -2.9332575e-01	
   1.1379500e+02	  -2.8313075e-01	  -2.9327391e-01	
   1.1385000e+02	  -2.8575921e-01	  -2.9355097e-01	
   1.1390500e+02	  -2.8757244e-01	  -2.9421658e-01	
   1.1396000e+02	  -2.8850373e-01	  -2.9531672e-01	
   1.1401500e+02	  -2.8850863e-01	  -2.9688037e-01	
   1.1407000e+02	  -2.8755842e-01	  -2.9891703e-01	
   1.1412500e+02	  -2.8563413e-01	  -3.0141583e-01	
   1.1418000e+02	  -2.8272422e-01	  -3.0434644e-01	
   1.1423500e+02	  -2.7882631e-01	  -3.0766148e-01	
   1.1429000e+02	  -2.7395224e-01	  -3.1129990e-01	
   1.1434500e+02	  -2.6813202e-01	  -3.1518987e-01	
   1.1440000e+02	  -2.6141307e-01	  -3.1924999e-01	
   1.1445500e+02	  -2.5385529e-01	  -3.2338956e-01	
   1.1451000e+02	  -2.4552552e-01	  -3.2750977e-01	
   1.1456500e+02	  -2.3649445e-01	  -3.3150674e-01	
   1.1462000e+02	  -2.2683662e-01	  -3.3527610e-01	
   1.1467500e+02	  -2.1663279e-01	  -3.3871769e-01	
   1.1473000e+02	  -2.0597314e-01	  -3.4173978e-01	
   1.1478500e+02	  -1.9495836e-01	  -3.4426194e-01	
   1.1484000e+02	  -1.8369746e-01	  -3.4621619e-01	
   1.1489500e+02	  -1.7230355e-01	  -3.4754659e-01	
   1.1495000e+02	  -1.6089109e-01	  -3.4820781e-01	
   1.1500500e+02	  -1.4957656e-01	  -3.4816325e-01	
   1.1506000e+02	  -1.3848078e-01	  -3.4738362e-01	
   1.1511500e+02	  -1.2772957e-01	  -3.4584704e-01	
   1.1517000e+02	  -1.1745089e-01	  -3.4354075e-01	
   1.1522500e+02	  -1.0777053e-01	  -3.4046400e-01	
   1.1528000e+02	  -9.8808669e-02	  -3.3663124e-01	
   1.1533500e+02	  -9.0679503e-02	  -3.3207537e-01	
   1.1539000e+02	  -8.3493698e-02	  -3.2685082e-01	
   1.1544500e+02	  -7.7361401e-02	  -3.2103566e-01	
   1.1550000e+02	  -7.2391832e-02	  -3.1473173e-01	
   1.1555500e+02	  -6.8687486e-02	  -3.0806200e-01	
   1.1561000e+02	  -6.6334638e-02	  -3.0116542e-01	
   1.1566500e+02	  -6.5393622e-02	  -2.9419049e-01	
   1.1572000e+02	  -6.5890963e-02	  -2.8728852e-01	
   1.1577500e+02	  -6.7813497e-02	  -2.8060664e-01	
   1.1583000e+02	  -7.1104675e-02	  -2.7428091e-01	
   1.1588500e+02	  -7.5663572e-02	  -2.6843016e-01	
   1.1594000e+02	  -8.1346481e-02	  -2.6315133e-01	
   1.1599500e+02	  -8.7971698e-02	  -2.5851653e-01	
   1.1605000e+02	  -9.5329442e-02	  -2.5457212e-01	
   1.1610500e+02	  -1.0319776e-01	  -2.5133997e-01	
   1.1616000e+02	  -1.1136156e-01	  -2.4882032e-01	
   1.1621500e+02	  -1.1962935e-01	  -2.4699538e-01	
   1.1627000e+02	  -1.2784367e-01	  -2.4583334e-01	
   1.1632500e+02	  -1.3588427e-01	  -2.4529312e-01	
   1.1638000e+02	  -1.4366570e-01	  -2.4532971e-01	
   1.1643500e+02	  -1.5113082e-01	  -2.4589879e-01	
   1.1649000e+02	  -1.5824223e-01	  -2.4695977e-01	
   1.1654500e+02	  -1.6497379e-01	  -2.4847720e-01	
   1.1660000e+02	  -1.7130423e-01	  -2.5042123e-01	
   1.1665500e+02	  -1.7721299e-01	  -2.5276680e-01	
   1.1671000e+02	  -1.8267707e-01	  -2.5549198e-01	
   1.1676500e+02	  -1.8766892e-01	  -2.5857627e-01	
   1.1682000e+02	  -1.9215589e-01	  -2.6199993e-01	
   1.1687500e+02	  -1.9610226e-01	  -2.6574425e-01	
   1.1693000e+02	  -1.9947381e-01	  -2.6979185e-01	
   1.1698500e+02	  -2.0224353e-01	  -2.7412679e-01	
   1.1704000e+02	  -2.0439677e-01	  -2.7873401e-01	
   1.1709500e+02	  -2.0593453e-01	  -2.8359801e-01	
   1.1715000e+02	  -2.0687415e-01	  -2.8870113e-01	
   1.1720500e+02	  -2.0724758e-01	  -2.9402266e-01	
   1.1726000e+02	  -2.0709832e-01	  -2.9954005e-01	
   1.1731500e+02	  -2.0647822e-01	  -3.0523170e-01	
   1.1737000e+02	  -2.0544493e-01	  -3.1107956e-01	
   1.1742500e+02	  -2.0406070e-01	  -3.1706983e-01	
   1.1748000e+02	  -2.0239179e-01	  -3.2319182e-01	
   1.1753500e+02	  -2.0050743e-01	  -3.2943522e-01	
   1.1759000e+02	  -1.9847690e-01	  -3.3578610e-01	
   1.1764500e+02	  -1.9636559e-01	  -3.4222244e-01	
   1.1770000e+02	  -1.9423213e-01	  -3.4871052e-01	
   1.1775500e+02	  -1.9212813e-01	  -3.5520352e-01	
   1.1781000e+02	  -1.9009941e-01	  -3.6164207e-01	
   1.1786500e+02	  -1.8818620e-01	  -3.6795642e-01	
   1.1792000e+02	  -1.8642138e-01	  -3.7406950e-01	
   1.1797500e+02	  -1.8482724e-01	  -3.7990096e-01	
   1.1803000e+02	  -1.8341197e-01	  -3.8537122e-01	
   1.1808500e+02	  -1.8216670e-01	  -3.9040542e-01	
   1.1814000e+02	  -1.8106407e-01	  -3.9493717e-01	
   1.1819500e+02	  -1.8005977e-01	  -3.9891277e-01	
   1.1825000e+02	  -1.7909731e-01	  -4.0229503e-01	
   1.1830500e+02	  -1.7811437e-01	  -4.0506531e-01	
   1.1836000e+02	  -1.7704879e-01	  -4.0722322e-01	
   1.1841500e+02	  -1.7584302e-01	  -4.0878466e-01	
   1.1847000e+02	  -1.7444676e-01	  -4.0977834e-01	
   1.1852500e+02	  -1.7281816e-01	  -4.1024084e-01	
   1.1858000e+02	  -1.7092480e-01	  -4.1021095e-01	
   1.1863500e+02	  -1.6874559e-01	  -4.0972531e-01	
   1.1869000e+02	  -1.6627251e-01	  -4.0881592e-01	
   1.1874500e+02	  -1.6351052e-01	  -4.0750819e-01	
   1.1880000e+02	  -1.6047494e-01	  -4.0581906e-01	
   1.1885500e+02	  -1.5718835e-01	  -4.0375586e-01	
   1.1891000e+02	  -1.5367843e-01	  -4.0131686e-01	
   1.1896500e+02	  -1.4997696e-01	  -3.9849331e-01	
   1.1902000e+02	  -1.4611874e-01	  -3.9527208e-01	
   1.1907500e+02	  -1.4214050e-01	  -3.9163815e-01	
   1.1913000e+02	  -1.3808013e-01	  -3.8757707e-01	
   1.1918500e+02	  -1.3397671e-01	  -3.8307735e-01	
   1.1924000e+02	  -1.2987029e-01	  -3.7813190e-01	
   1.1929500e+02	  -1.2580148e-01	  -3.7273892e-01	
   1.1935000e+02	  -1.2181106e-01	  -3.6690243e-01	
   1.1940500e+02	  -1.1793969e-01	  -3.6063277e-01	
   1.1946000e+02	  -1.1422722e-01	  -3.5394618e-01	
   1.1951500e+02	  -1.1071191e-01	  -3.4686364e-01	
   1.1957000e+02	  -1.0742972e-01	  -3.3941013e-01	
   1.1962500e+02	  -1.0441333e-01	  -3.3161529e-01	
   1.1968000e+02	  -1.0169013e-01	  -3.2351448e-01	
   1.1973500e+02	  -9.9279549e-02	  -3.1514889e-01	
   1.1979000e+02	  -9.7190406e-02	  -3.0656546e-01	
   1.1984500e+02	  -9.5418070e-02	  -2.9781721e-01	
   1.1990000e+02	  -9.3940935e-02	  -2.8896380e-01	
   1.1995500e+02	  -9.2716858e-02	  -2.8007086e-01	
   1.2001000e+02	  -9.1681292e-02	  -2.7120758e-01	
   1.2006500e+02	  -9.0747857e-02	  -2.6244197e-01	
   1.2012000e+02	  -8.9810844e-02	  -2.5383448e-01	
   1.2017500e+02	  -8.8749589e-02	  -2.4543076e-01	
   1.2023000e+02	  -8.7435226e-02	  -2.3725568e-01	
   1.2028500e+02	  -8.5739013e-02	  -2.2931026e-01	
   1.2034000e+02	  -8.3539555e-02	  -2.2157190e-01	
   1.2039500e+02	  -8.0726960e-02	  -2.1399704e-01	
   1.2045000e+02	  -7.7204751e-02	  -2.0652523e-01	
   1.2050500e+02	  -7.2891803e-02	  -1.9908449e-01	
   1.2056000e+02	  -6.7725537e-02	  -1.9159790e-01	
   1.2061500e+02	  -6.1665603e-02	  -1.8399105e-01	
   1.2067000e+02	  -5.4696225e-02	  -1.7619983e-01	
   1.2072500e+02	  -4.6826187e-02	  -1.6817798e-01	
   1.2078000e+02	  -3.8087170e-02	  -1.5990331e-01	
   1.2083500e+02	  -2.8531924e-02	  -1.5138134e-01	
   1.2089000e+02	  -1.8233194e-02	  -1.4264671e-01	
   1.2094500e+02	  -7.2836732e-03	  -1.3376363e-01	
   1.2100000e+02	   4.2037278e-03	  -1.2482584e-01	
   1.2105500e+02	   1.6097571e-02	  -1.1595448e-01	
   1.2111000e+02	   2.8253479e-02	  -1.0729250e-01	
   1.2116500e+02	   4.0522947e-02	  -9.8996252e-02	
   1.2122000e+02	   5.2762699e-02	  -9.1225984e-02	
   1.2127500e+02	   6.4842231e-02	  -8.4136472e-02	
   1.2133000e+02	   7.6648257e-02	  -7.7868052e-02	
   1.2138500e+02	   8.8085620e-02	  -7.2538985e-02	
   1.2144000e+02	   9.9074644e-02	  -6.8239780e-02	
   1.2149500e+02	   1.0954569e-01	  -6.5029182e-02	
   1.2155000e+02	   1.1943292e-01	  -6.2931291e-02	
   1.2160500e+02	   1.2867020e-01	  -6.1933921e-02	
   1.2166000e+02	   1.3719064e-01	  -6.1988657e-02	
   1.2171500e+02	   1.4492923e-01	  -6.3012496e-02	
   1.2177000e+02	   1.5182757e-01	  -6.4890638e-02	
   1.2182500e+02	   1.5783943e-01	  -6.7480304e-02	
   1.2188000e+02	   1.6293493e-01	  -7.0616142e-02	
   1.2193500e+02	   1.6710169e-01	  -7.4117612e-02	
   1.2199000e+02	   1.7034409e-01	  -7.7797697e-02	
   1.2204500e+02	   1.7268347e-01	  -8.1471539e-02	
   1.2210000e+02	   1.7415946e-01	  -8.4963940e-02	
   1.2215500e+02	   1.7483174e-01	  -8.8115246e-02	
   1.2221000e+02	   1.7478153e-01	  -9.0785042e-02	
   1.2226500e+02	   1.7411277e-01	  -9.2853207e-02	
   1.2232000e+02	   1.7295195e-01	  -9.4218837e-02	
   1.2237500e+02	   1.7144638e-01	  -9.4798306e-02	
   1.2243000e+02	   1.6976145e-01	  -9.4523283e-02	
   1.2248500e+02	   1.6807530e-01	  -9.3339193e-02	
   1.2254000e+02	   1.6656852e-01	  -9.1204869e-02	
   1.2259500e+02	   1.6540856e-01	  -8.8094010e-02	
   1.2265000e+02	   1.6473315e-01	  -8.3998108e-02	
   1.2270500e+02	   1.6463759e-01	  -7.8929633e-02	
   1.2276000e+02	   1.6516755e-01	  -7.2924380e-02	
   1.2281500e+02	   1.6631661e-01	  -6.6042638e-02	
   1.2287000e+02	   1.6802823e-01	  -5.8369041e-02	
   1.2292500e+02	   1.7020296e-01	  -5.0010429e-02	
   1.2298000e+02	   1.7271078e-01	  -4.1091397e-02	
   1.2303500e+02	   1.7540692e-01	  -3.1748290e-02	
   1.2309000e+02	   1.7814889e-01	  -2.2122760e-02	
   1.2314500e+02	   1.8081288e-01	  -1.2355082e-02	
   1.2320000e+02	   1.8330763e-01	  -2.5770751e-03	
   1.2325500e+02	   1.8558372e-01	   7.0948405e-03	
   1.2331000e+02	   1.8763767e-01	   1.6565014e-02	
   1.2336500e+02	   1.8951038e-01	   2.5761687e-02	
   1.2342000e+02	   1.9127934e-01	   3.4638625e-02	
   1.2347500e+02	   1.9304505e-01	   4.3175805e-02	
   1.2353000e+02	   1.9491445e-01	   5.1378287e-02	
   1.2358500e+02	   1.9698478e-01	   5.9272345e-02	
   1.2364000e+02	   1.9933032e-01	   6.6898967e-02	
   1.2369500e+02	   2.0199210e-01	   7.4305349e-02	
   1.2375000e+02	   2.0497048e-01	   8.1535582e-02	
   1.2380500e+02	   2.0822274e-01	   8.8622908e-02	
   1.2386000e+02	   2.1166697e-01	   9.5585760e-02	
   1.2391500e+02	   2.1518989e-01	   1.0242739e-01	
   1.2397000e+02	   2.1865466e-01	   1.0913691e-01	
   1.2402500e+02	   2.2190726e-01	   1.1568994e-01	
   1.2408000e+02	   2.2478377e-01	   1.2204915e-01	
   1.2413500e+02	   2.2712056e-01	   1.2816515e-01	
   1.2419000e+02	   2.2876633e-01	   1.3397874e-01	
   1.2424500e+02	   2.2959333e-01	   1.3942467e-01	
   1.2430000e+02	   2.2950618e-01	   1.4443678e-01	
   1.2435500e+02	   2.2844789e-01	   1.4895326e-01	
   1.2441000e+02	   2.2640234e-01	   1.5292067e-01	
   1.2446500e+02	   2.2339270e-01	   1.5629631e-01	
   1.2452000e+02	   2.1947640e-01	   1.5904947e-01	
   1.2457500e+02	   2.1473753e-01	   1.6116191e-01	
   1.2463000e+02	   2.0927639e-01	   1.6262733e-01	
   1.2468500e+02	   2.0319682e-01	   1.6344987e-01	
   1.2474000e+02	   1.9659459e-01	   1.6364202e-01	
   1.2479500e+02	   1.8954997e-01	   1.6322260e-01	
   1.2485000e+02	   1.8212526e-01	   1.6221501e-01	
   1.2490500e+02	   1.7436582e-01	   1.6064603e-01	
   1.2496000e+02	   1.6630366e-01	   1.5854535e-01	
   1.2501500e+02	   1.5796248e-01	   1.5594613e-01	
   1.2507000e+02	   1.4936278e-01	   1.5288615e-01	
   1.2512500e+02	   1.4052600e-01	   1.4940904e-01	
   1.2518000e+02	   1.3147721e-01	   1.4556511e-01	
   1.2523500e+02	   1.2224611e-01	   1.4141138e-01	
   1.2529000e+02	   1.1286630e-01	   1.3701009e-01	
   1.2534500e+02	   1.0337330e-01	   1.3242681e-01	
   1.2540000e+02	   9.3802266e-02	   1.2772890e-01	
   1.2545500e+02	   8.4186730e-02	   1.2298493e-01	
   1.2551000e+02	   7.4559686e-02	   1.1826446e-01	
   1.2556500e+02	   6.4956624e-02	   1.1363680e-01	
   1.2562000e+02	   5.5417829e-02	   1.0916801e-01	
   1.2567500e+02	   4.5987995e-02	   1.0491681e-01	
   1.2573000e+02	   3.6714165e-02	   1.0093079e-01	
   1.2578500e+02	   2.7644488e-02	   9.7243514e-02	
   1.2584000e+02	   1.8828715e-02	   9.3872314e-02	
   1.2589500e+02	   1.0319403e-02	   9.0817414e-02	
   1.2595000e+02	   2.1724734e-03	   8.8062756e-02	
   1.2600500e+02	  -5.5535230e-03	   8.5578341e-02	
   1.2606000e+02	  -1.2799337e-02	   8.3323354e-02	
   1.2611500e+02	  -1.9506738e-02	   8.1249801e-02	
   1.2617000e+02	  -2.5618297e-02	   7.9306520e-02	
   1.2622500e+02	  -3.1076232e-02	   7.7442686e-02	
   1.2628000e+02	  -3.5823619e-02	   7.5609506e-02	
   1.2633500e+02	  -3.9808967e-02	   7.3759790e-02	
   1.2639000e+02	  -4.2991897e-02	   7.1846510e-02	
   1.2644500e+02	  -4.5348536e-02	   6.9821890e-02	
   1.2650000e+02	  -4.6876976e-02	   6.7638034e-02	
   1.2655500e+02	  -4.7602455e-02	   6.5249097e-02	
   1.2661000e+02	  -4.7581102e-02	   6.2614146e-02	
   1.2666500e+02	  -4.6901709e-02	   5.9699692e-02	
   1.2672000e+02	  -4.5684946e-02	   5.6481364e-02	
   1.2677500e+02	  -4.4078729e-02	   5.2944929e-02	
   1.2683000e+02	  -4.2248940e-02	   4.9087229e-02	
