	
0   2   1   4
   0.0000000e+00	   2.4392892e-01	  -9.8203605e-03	  -3.6565668e-02	
   5.5000000e-02	   2.4571345e-01	   4.9796414e-03	  -2.7725331e-02	
   1.1000000e-01	   2.4769007e-01	   2.0094745e-02	  -1.9332932e-02	
   1.6500000e-01	   2.4971601e-01	   3.5183842e-02	  -1.1398863e-02	
   2.2000000e-01	   2.5165697e-01	   4.9937025e-02	  -3.9107844e-03	
   2.7500000e-01	   2.5339255e-01	   6.4089810e-02	   3.1657402e-03	
   3.3000000e-01	   2.5481937e-01	   7.7434549e-02	   9.8846078e-03	
   3.8500000e-01	   2.5585329e-01	   8.9828466e-02	   1.6316227e-02	
   4.4000000e-01	   2.5643102e-01	   1.0119661e-01	   2.2545994e-02	
   4.9500000e-01	   2.5651046e-01	   1.1152777e-01	   2.8673559e-02	
   5.5000000e-01	   2.5606929e-01	   1.2086341e-01	   3.4810543e-02	
   6.0500000e-01	   2.5510227e-01	   1.2928306e-01	   4.1075172e-02	
   6.6000000e-01	   2.5361874e-01	   1.3689029e-01	   4.7584032e-02	
   7.1500000e-01	   2.5164048e-01	   1.4380162e-01	   5.4441387e-02	
   7.7000000e-01	   2.4919972e-01	   1.5013722e-01	   6.1726342e-02	
   8.2500000e-01	   2.4633713e-01	   1.5601225e-01	   6.9479597e-02	
   8.8000000e-01	   2.4310032e-01	   1.6152966e-01	   7.7693024e-02	
   9.3500000e-01	   2.3954281e-01	   1.6677582e-01	   8.6304251e-02	
   9.9000000e-01	   2.3572276e-01	   1.7181828e-01	   9.5196719e-02	
   1.0450000e+00	   2.3170059e-01	   1.7670490e-01	   1.0420534e-01	
   1.1000000e+00	   2.2753537e-01	   1.8146407e-01	   1.1312758e-01	
   1.1550000e+00	   2.2328083e-01	   1.8610620e-01	   1.2173845e-01	
   1.2100000e+00	   2.1898215e-01	   1.9062474e-01	   1.2980661e-01	
   1.2650000e+00	   2.1467428e-01	   1.9499504e-01	   1.3710918e-01	
   1.3200000e+00	   2.1038182e-01	   1.9917173e-01	   1.4344420e-01	
   1.3750000e+00	   2.0612096e-01	   2.0308769e-01	   1.4864047e-01	
   1.4300000e+00	   2.0190233e-01	   2.0665594e-01	   1.5256350e-01	
   1.4850000e+00	   1.9773323e-01	   2.0977325e-01	   1.5511739e-01	
   1.5400000e+00	   1.9361875e-01	   2.1232507e-01	   1.5624485e-01	
   1.5950000e+00	   1.8956312e-01	   2.1419270e-01	   1.5592777e-01	
   1.6500000e+00	   1.8557166e-01	   2.1526322e-01	   1.5418903e-01	
   1.7050000e+00	   1.8165267e-01	   2.1544044e-01	   1.5109506e-01	
   1.7600000e+00	   1.7781841e-01	   2.1465588e-01	   1.4675758e-01	
   1.8150000e+00	   1.7408519e-01	   2.1288038e-01	   1.4133211e-01	
   1.8700000e+00	   1.7047277e-01	   2.1013504e-01	   1.3501148e-01	
   1.9250000e+00	   1.6700288e-01	   2.0649664e-01	   1.2801486e-01	
   1.9800000e+00	   1.6369675e-01	   2.0209438e-01	   1.2057384e-01	
   2.0350000e+00	   1.6057162e-01	   1.9709913e-01	   1.1291737e-01	
   2.0900000e+00	   1.5763650e-01	   1.9170941e-01	   1.0525835e-01	
   2.1450000e+00	   1.5488860e-01	   1.8613854e-01	   9.7785465e-02	
   2.2000000e+00	   1.5231204e-01	   1.8060492e-01	   9.0662146e-02	
   2.2550000e+00	   1.4987860e-01	   1.7532591e-01	   8.4031005e-02	
   2.3100000e+00	   1.4754980e-01	   1.7051416e-01	   7.8019667e-02	
   2.3650000e+00	   1.4527888e-01	   1.6637499e-01	   7.2744216e-02	
   2.4200000e+00	   1.4301230e-01	   1.6310309e-01	   6.8308458e-02	
   2.4750000e+00	   1.4069043e-01	   1.6087766e-01	   6.4799177e-02	
   2.5300000e+00	   1.3824823e-01	   1.5985571e-01	   6.2278900e-02	
   2.5850000e+00	   1.3561615e-01	   1.6016495e-01	   6.0778343e-02	
   2.6400000e+00	   1.3272161e-01	   1.6189848e-01	   6.0290631e-02	
   2.6950000e+00	   1.2949102e-01	   1.6511311e-01	   6.0768705e-02	
   2.7500000e+00	   1.2585230e-01	   1.6982972e-01	   6.2126447e-02	
   2.8050000e+00	   1.2173734e-01	   1.7603274e-01	   6.4243662e-02	
   2.8600000e+00	   1.1708442e-01	   1.8366870e-01	   6.6975165e-02	
   2.9150000e+00	   1.1184061e-01	   1.9264623e-01	   7.0163461e-02	
   2.9700000e+00	   1.0596416e-01	   2.0283904e-01	   7.3652231e-02	
   3.0250000e+00	   9.9425706e-02	   2.1409140e-01	   7.7296814e-02	
   3.0800000e+00	   9.2208468e-02	   2.2622416e-01	   8.0970346e-02	
   3.1350000e+00	   8.4308639e-02	   2.3904042e-01	   8.4567147e-02	
   3.1900000e+00	   7.5737208e-02	   2.5233205e-01	   8.8005203e-02	
   3.2450000e+00	   6.6522858e-02	   2.6588814e-01	   9.1228076e-02	
   3.3000000e+00	   5.6713999e-02	   2.7950402e-01	   9.4205908e-02	
   3.3550000e+00	   4.6378368e-02	   2.9298981e-01	   9.6935588e-02	
   3.4100000e+00	   3.5600140e-02	   3.0617800e-01	   9.9440772e-02	
   3.4650000e+00	   2.4475530e-02	   3.1892880e-01	   1.0177205e-01	
   3.5200000e+00	   1.3107839e-02	   3.3113099e-01	   1.0400647e-01	
   3.5750000e+00	   1.6024466e-03	   3.4269758e-01	   1.0624537e-01	
   3.6300000e+00	  -9.9376873e-03	   3.5355853e-01	   1.0861068e-01	
   3.6850000e+00	  -2.1415202e-02	   3.6365318e-01	   1.1124081e-01	
   3.7400000e+00	  -3.2739982e-02	   3.7292381e-01	   1.1428554e-01	
   3.7950000e+00	  -4.3830166e-02	   3.8131091e-01	   1.1789811e-01	
   3.8500000e+00	  -5.4613231e-02	   3.8875113e-01	   1.2222441e-01	
   3.9050000e+00	  -6.5026870e-02	   3.9517894e-01	   1.2739129e-01	
   3.9600000e+00	  -7.5019499e-02	   4.0053159e-01	   1.3349577e-01	
   4.0150000e+00	  -8.4551022e-02	   4.0475481e-01	   1.4059553e-01	
   4.0700000e+00	  -9.3593916e-02	   4.0780662e-01	   1.4870248e-01	
   4.1250000e+00	  -1.0213338e-01	   4.0965871e-01	   1.5778274e-01	
   4.1800000e+00	  -1.1016575e-01	   4.1029720e-01	   1.6776415e-01	
   4.2350000e+00	  -1.1769607e-01	   4.0972408e-01	   1.7854788e-01	
   4.2900000e+00	  -1.2473617e-01	   4.0795910e-01	   1.9001933e-01	
   4.3450000e+00	  -1.3130361e-01	   4.0504040e-01	   2.0205438e-01	
   4.4000000e+00	  -1.3742096e-01	   4.0102194e-01	   2.1451956e-01	
   4.4550000e+00	  -1.4311561e-01	   3.9596651e-01	   2.2726782e-01	
   4.5100000e+00	  -1.4841917e-01	   3.8993591e-01	   2.4013290e-01	
   4.5650000e+00	  -1.5336575e-01	   3.8298284e-01	   2.5292586e-01	
   4.6200000e+00	  -1.5798836e-01	   3.7514852e-01	   2.6543588e-01	
   4.6750000e+00	  -1.6231406e-01	   3.6646598e-01	   2.7743631e-01	
   4.7300000e+00	  -1.6635958e-01	   3.5696644e-01	   2.8869573e-01	
   4.7850000e+00	  -1.7012939e-01	   3.4668541e-01	   2.9899305e-01	
   4.8400000e+00	  -1.7361625e-01	   3.3566566e-01	   3.0813426e-01	
   4.8950000e+00	  -1.7680340e-01	   3.2395552e-01	   3.1596675e-01	
   4.9500000e+00	  -1.7966752e-01	   3.1160421e-01	   3.2238761e-01	
   5.0050000e+00	  -1.8218209e-01	   2.9865752e-01	   3.2734507e-01	
   5.0600000e+00	  -1.8432024e-01	   2.8515585e-01	   3.3083523e-01	
   5.1150000e+00	  -1.8605664e-01	   2.7113484e-01	   3.3289643e-01	
   5.1700000e+00	  -1.8736914e-01	   2.5662900e-01	   3.3360225e-01	
   5.2250000e+00	  -1.8824067e-01	   2.4167933e-01	   3.3305475e-01	
   5.2800000e+00	  -1.8866039e-01	   2.2634436e-01	   3.3138045e-01	
   5.3350000e+00	  -1.8862332e-01	   2.1071077e-01	   3.2872930e-01	
   5.3900000e+00	  -1.8812989e-01	   1.9489870e-01	   3.2527456e-01	
   5.4450000e+00	  -1.8718676e-01	   1.7905942e-01	   3.2121132e-01	
   5.5000000e+00	  -1.8580843e-01	   1.6336837e-01	   3.1675365e-01	
   5.5550000e+00	  -1.8401817e-01	   1.4801762e-01	   3.1213029e-01	
   5.6100000e+00	  -1.8184810e-01	   1.3320866e-01	   3.0757811e-01	
   5.6650000e+00	  -1.7933860e-01	   1.1914427e-01	   3.0333249e-01	
   5.7200000e+00	  -1.7653682e-01	   1.0601937e-01	   2.9961572e-01	
   5.7750000e+00	  -1.7349328e-01	   9.4014005e-02	   2.9662502e-01	
   5.8300000e+00	  -1.7025759e-01	   8.3290351e-02	   2.9452175e-01	
   5.8850000e+00	  -1.6687435e-01	   7.3991910e-02	   2.9342290e-01	
   5.9400000e+00	  -1.6338008e-01	   6.6242060e-02	   2.9339659e-01	
   5.9950000e+00	  -1.5980118e-01	   6.0140897e-02	   2.9446316e-01	
   6.0500000e+00	  -1.5615334e-01	   5.5760477e-02	   2.9660241e-01	
   6.1050000e+00	  -1.5244276e-01	   5.3139131e-02	   2.9976492e-01	
   6.1600000e+00	  -1.4866870e-01	   5.2276613e-02	   3.0388380e-01	
   6.2150000e+00	  -1.4482662e-01	   5.3132461e-02	   3.0888371e-01	
   6.2700000e+00	  -1.4091148e-01	   5.5628293e-02	   3.1468606e-01	
   6.3250000e+00	  -1.3692189e-01	   5.9651789e-02	   3.2121083e-01	
   6.3800000e+00	  -1.3286515e-01	   6.5059916e-02	   3.2837656e-01	
   6.4350000e+00	  -1.2876177e-01	   7.1682395e-02	   3.3610063e-01	
   6.4900000e+00	  -1.2464742e-01	   7.9328467e-02	   3.4430176e-01	
   6.5450000e+00	  -1.2057174e-01	   8.7797262e-02	   3.5290345e-01	
   6.6000000e+00	  -1.1659495e-01	   9.6889083e-02	   3.6183682e-01	
   6.6550000e+00	  -1.1278296e-01	   1.0641586e-01	   3.7104277e-01	
   6.7100000e+00	  -1.0920121e-01	   1.1621072e-01	   3.8047433e-01	
   6.7650000e+00	  -1.0590808e-01	   1.2613568e-01	   3.9009883e-01	
   6.8200000e+00	  -1.0294913e-01	   1.3608582e-01	   3.9989866e-01	
   6.8750000e+00	  -1.0035280e-01	   1.4599040e-01	   4.0987020e-01	
   6.9300000e+00	  -9.8128096e-02	   1.5581145e-01	   4.2002068e-01	
   6.9850000e+00	  -9.6264852e-02	   1.6553967e-01	   4.3036265e-01	
   7.0400000e+00	  -9.4736273e-02	   1.7518792e-01	   4.4090604e-01	
   7.0950000e+00	  -9.3502852e-02	   1.8478374e-01	   4.5164975e-01	
   7.1500000e+00	  -9.2516533e-02	   1.9436265e-01	   4.6257504e-01	
   7.2050000e+00	  -9.1724675e-02	   2.0396162e-01	   4.7364189e-01	
   7.2600000e+00	  -9.1073722e-02	   2.1361186e-01	   4.8478812e-01	
   7.3150000e+00	  -9.0512593e-02	   2.2333064e-01	   4.9593159e-01	
   7.3700000e+00	  -8.9995866e-02	   2.3311293e-01	   5.0697610e-01	
   7.4250000e+00	  -8.9486747e-02	   2.4292426e-01	   5.1781969e-01	
   7.4800000e+00	  -8.8959607e-02	   2.5269550e-01	   5.2836223e-01	
   7.5350000e+00	  -8.8401847e-02	   2.6231969e-01	   5.3850977e-01	
   7.5900000e+00	  -8.7814445e-02	   2.7165184e-01	   5.4817559e-01	
   7.6450000e+00	  -8.7210237e-02	   2.8051281e-01	   5.5727984e-01	
   7.7000000e+00	  -8.6609795e-02	   2.8869713e-01	   5.6574903e-01	
   7.7550000e+00	  -8.6035692e-02	   2.9598422e-01	   5.7351617e-01	
   7.8100000e+00	  -8.5506154e-02	   3.0215285e-01	   5.8052187e-01	
   7.8650000e+00	  -8.5029245e-02	   3.0699796e-01	   5.8671667e-01	
   7.9200000e+00	  -8.4599302e-02	   3.1034527e-01	   5.9206481e-01	
   7.9750000e+00	  -8.4196756e-02	   3.1205944e-01	   5.9654895e-01	
   8.0300000e+00	  -8.3790325e-02	   3.1204646e-01	   6.0017594e-01	
   8.0850000e+00	  -8.3339715e-02	   3.1025523e-01	   6.0298288e-01	
   8.1400000e+00	  -8.2798410e-02	   3.0668036e-01	   6.0504073e-01	
   8.1950000e+00	  -8.2117248e-02	   3.0136544e-01	   6.0645310e-01	
   8.2500000e+00	  -8.1248772e-02	   2.9440607e-01	   6.0735026e-01	
   8.3050000e+00	  -8.0151729e-02	   2.8595280e-01	   6.0788028e-01	
   8.3600000e+00	  -7.8795063e-02	   2.7621305e-01	   6.0819894e-01	
   8.4150000e+00	  -7.7160737e-02	   2.6545001e-01	   6.0845919e-01	
   8.4700000e+00	  -7.5244692e-02	   2.5397753e-01	   6.0880163e-01	
   8.5250000e+00	  -7.3055606e-02	   2.4215126e-01	   6.0934771e-01	
   8.5800000e+00	  -7.0612045e-02	   2.3035678e-01	   6.1019659e-01	
   8.6350000e+00	  -6.7939322e-02	   2.1899517e-01	   6.1142374e-01	
   8.6900000e+00	  -6.5067253e-02	   2.0846661e-01	   6.1307927e-01	
   8.7450000e+00	  -6.2028806e-02	   1.9915285e-01	   6.1518520e-01	
   8.8000000e+00	  -5.8858681e-02	   1.9139911e-01	   6.1773295e-01	
   8.8550000e+00	  -5.5591351e-02	   1.8549651e-01	   6.2068287e-01	
   8.9100000e+00	  -5.2259009e-02	   1.8166633e-01	   6.2396656e-01	
   8.9650000e+00	  -4.8890021e-02	   1.8004797e-01	   6.2749098e-01	
   9.0200000e+00	  -4.5507901e-02	   1.8069192e-01	   6.3114319e-01	
   9.0750000e+00	  -4.2130733e-02	   1.8355969e-01	   6.3479556e-01	
   9.1300000e+00	  -3.8771222e-02	   1.8853128e-01	   6.3831241e-01	
   9.1850000e+00	  -3.5437584e-02	   1.9541893e-01	   6.4155945e-01	
   9.2400000e+00	  -3.2135099e-02	   2.0398370e-01	   6.4441535e-01	
   9.2950000e+00	  -2.8867643e-02	   2.1395243e-01	   6.4678198e-01	
   9.3500000e+00	  -2.5638183e-02	   2.2503403e-01	   6.4859093e-01	
   9.4050000e+00	  -2.2447809e-02	   2.3693576e-01	   6.4980566e-01	
   9.4600000e+00	  -1.9294179e-02	   2.4937885e-01	   6.5041979e-01	
   9.5150000e+00	  -1.6170885e-02	   2.6211110e-01	   6.5045158e-01	
   9.5700000e+00	  -1.3068378e-02	   2.7491414e-01	   6.4993534e-01	
   9.6250000e+00	  -9.9755096e-03	   2.8760584e-01	   6.4891237e-01	
   9.6800000e+00	  -6.8802556e-03	   3.0003945e-01	   6.4742535e-01	
   9.7350000e+00	  -3.7692652e-03	   3.1210074e-01	   6.4551867e-01	
   9.7900000e+00	  -6.2724552e-04	   3.2370307e-01	   6.4324305e-01	
   9.8450000e+00	   2.5626235e-03	   3.3478140e-01	   6.4066109e-01	
   9.9000000e+00	   5.8169952e-03	   3.4528681e-01	   6.3785042e-01	
   9.9550000e+00	   9.1498663e-03	   3.5518224e-01	   6.3490392e-01	
   1.0010000e+01	   1.2569619e-02	   3.6443856e-01	   6.3192741e-01	
   1.0065000e+01	   1.6075842e-02	   3.7303148e-01	   6.2903582e-01	
   1.0120000e+01	   1.9657069e-02	   3.8093992e-01	   6.2634815e-01	
   1.0175000e+01	   2.3291150e-02	   3.8814632e-01	   6.2398114e-01	
   1.0230000e+01	   2.6948421e-02	   3.9463722e-01	   6.2204199e-01	
   1.0285000e+01	   3.0595623e-02	   4.0040289e-01	   6.2062187e-01	
   1.0340000e+01	   3.4198776e-02	   4.0543599e-01	   6.1979243e-01	
   1.0395000e+01	   3.7725058e-02	   4.0973106e-01	   6.1960653e-01	
   1.0450000e+01	   4.1143823e-02	   4.1328533e-01	   6.2010139e-01	
   1.0505000e+01	   4.4426053e-02	   4.1609864e-01	   6.2130108e-01	
   1.0560000e+01	   4.7542520e-02	   4.1817145e-01	   6.2321667e-01	
   1.0615000e+01	   5.0462228e-02	   4.1950272e-01	   6.2584407e-01	
   1.0670000e+01	   5.3152077e-02	   4.2008997e-01	   6.2916049e-01	
   1.0725000e+01	   5.5577669e-02	   4.1993158e-01	   6.3312078e-01	
   1.0780000e+01	   5.7705150e-02	   4.1903035e-01	   6.3765571e-01	
   1.0835000e+01	   5.9504263e-02	   4.1739777e-01	   6.4267276e-01	
   1.0890000e+01	   6.0952451e-02	   4.1505808e-01	   6.4805901e-01	
   1.0945000e+01	   6.2039109e-02	   4.1205089e-01	   6.5368531e-01	
   1.1000000e+01	   6.2768403e-02	   4.0843152e-01	   6.5941024e-01	
   1.1055000e+01	   6.3159325e-02	   4.0426932e-01	   6.6508308e-01	
   1.1110000e+01	   6.3242890e-02	   3.9964525e-01	   6.7054693e-01	
   1.1165000e+01	   6.3057801e-02	   3.9464967e-01	   6.7564377e-01	
   1.1220000e+01	   6.2646237e-02	   3.8937876e-01	   6.8022142e-01	
   1.1275000e+01	   6.2050632e-02	   3.8392764e-01	   6.8414099e-01	
   1.1330000e+01	   6.1311459e-02	   3.7838287e-01	   6.8728415e-01	
   1.1385000e+01	   6.0465437e-02	   3.7281888e-01	   6.8955916e-01	
   1.1440000e+01	   5.9543740e-02	   3.6729970e-01	   6.9090449e-01	
   1.1495000e+01	   5.8570685e-02	   3.6188304e-01	   6.9129025e-01	
   1.1550000e+01	   5.7563711e-02	   3.5662419e-01	   6.9071869e-01	
   1.1605000e+01	   5.6534508e-02	   3.5157915e-01	   6.8922408e-01	
   1.1660000e+01	   5.5490592e-02	   3.4680524e-01	   6.8687194e-01	
   1.1715000e+01	   5.4437281e-02	   3.4235753e-01	   6.8375727e-01	
   1.1770000e+01	   5.3380030e-02	   3.3828168e-01	   6.8000116e-01	
   1.1825000e+01	   5.2325899e-02	   3.3460579e-01	   6.7574368e-01	
   1.1880000e+01	   5.1283046e-02	   3.3133298e-01	   6.7113202e-01	
   1.1935000e+01	   5.0259003e-02	   3.2843537e-01	   6.6630569e-01	
   1.1990000e+01	   4.9259216e-02	   3.2584922e-01	   6.6138156e-01	
   1.2045000e+01	   4.8286484e-02	   3.2347189e-01	   6.5644124e-01	
   1.2100000e+01	   4.7341232e-02	   3.2116125e-01	   6.5152243e-01	
   1.2155000e+01	   4.6422572e-02	   3.1873830e-01	   6.4661624e-01	
   1.2210000e+01	   4.5530178e-02	   3.1599592e-01	   6.4167159e-01	
   1.2265000e+01	   4.4666861e-02	   3.1271525e-01	   6.3660666e-01	
   1.2320000e+01	   4.3841023e-02	   3.0868743e-01	   6.3132501e-01	
   1.2375000e+01	   4.3067547e-02	   3.0373522e-01	   6.2573287e-01	
   1.2430000e+01	   4.2366522e-02	   2.9773116e-01	   6.1975438e-01	
   1.2485000e+01	   4.1760741e-02	   2.9061038e-01	   6.1334244e-01	
   1.2540000e+01	   4.1273040e-02	   2.8237591e-01	   6.0648336e-01	
   1.2595000e+01	   4.0923491e-02	   2.7309537e-01	   5.9919378e-01	
   1.2650000e+01	   4.0726441e-02	   2.6289076e-01	   5.9151019e-01	
   1.2705000e+01	   4.0688323e-02	   2.5192584e-01	   5.8347530e-01	
   1.2760000e+01	   4.0807163e-02	   2.4039494e-01	   5.7512636e-01	
   1.2815000e+01	   4.1073689e-02	   2.2851517e-01	   5.6648828e-01	
   1.2870000e+01	   4.1473886e-02	   2.1652111e-01	   5.5757164e-01	
   1.2925000e+01	   4.1993094e-02	   2.0466030e-01	   5.4837496e-01	
   1.2980000e+01	   4.2620403e-02	   1.9318739e-01	   5.3889029e-01	
   1.3035000e+01	   4.3350706e-02	   1.8235470e-01	   5.2910891e-01	
   1.3090000e+01	   4.4183262e-02	   1.7239905e-01	   5.1902523e-01	
   1.3145000e+01	   4.5118592e-02	   1.6352798e-01	   5.0863940e-01	
   1.3200000e+01	   4.6156022e-02	   1.5590823e-01	   4.9796002e-01	
   1.3255000e+01	   4.7292219e-02	   1.4965695e-01	   4.8700578e-01	
   1.3310000e+01	   4.8519763e-02	   1.4483542e-01	   4.7580450e-01	
   1.3365000e+01	   4.9825430e-02	   1.4144603e-01	   4.6438974e-01	
   1.3420000e+01	   5.1188827e-02	   1.3943274e-01	   4.5279572e-01	
   1.3475000e+01	   5.2582344e-02	   1.3868332e-01	   4.4105126e-01	
   1.3530000e+01	   5.3972952e-02	   1.3903160e-01	   4.2917432e-01	
   1.3585000e+01	   5.5325343e-02	   1.4026163e-01	   4.1717005e-01	
   1.3640000e+01	   5.6605324e-02	   1.4211644e-01	   4.0503430e-01	
   1.3695000e+01	   5.7782394e-02	   1.4431106e-01	   3.9276171e-01	
   1.3750000e+01	   5.8830892e-02	   1.4654537e-01	   3.8035493e-01	
   1.3805000e+01	   5.9729268e-02	   1.4851400e-01	   3.6783086e-01	
   1.3860000e+01	   6.0457518e-02	   1.4991410e-01	   3.5522169e-01	
   1.3915000e+01	   6.0993408e-02	   1.5045340e-01	   3.4257045e-01	
   1.3970000e+01	   6.1308183e-02	   1.4985938e-01	   3.2992257e-01	
   1.4025000e+01	   6.1362523e-02	   1.4788893e-01	   3.1731641e-01	
   1.4080000e+01	   6.1104248e-02	   1.4433694e-01	   3.0477626e-01	
   1.4135000e+01	   6.0469148e-02	   1.3904303e-01	   2.9231019e-01	
   1.4190000e+01	   5.9384698e-02	   1.3189514e-01	   2.7991184e-01	
   1.4245000e+01	   5.7775297e-02	   1.2282975e-01	   2.6756371e-01	
   1.4300000e+01	   5.5567908e-02	   1.1183094e-01	   2.5524108e-01	
   1.4355000e+01	   5.2697016e-02	   9.8928780e-02	   2.4291634e-01	
   1.4410000e+01	   4.9107697e-02	   8.4196125e-02	   2.3056306e-01	
   1.4465000e+01	   4.4756866e-02	   6.7743904e-02	   2.1815912e-01	
   1.4520000e+01	   3.9614394e-02	   4.9718116e-02	   2.0568926e-01	
   1.4575000e+01	   3.3665481e-02	   3.0300438e-02	   1.9314669e-01	
   1.4630000e+01	   2.6913730e-02	   9.7103734e-03	   1.8053244e-01	
   1.4685000e+01	   1.9383196e-02	  -1.1795518e-02	   1.6785153e-01	
   1.4740000e+01	   1.1118593e-02	  -3.3929610e-02	   1.5510789e-01	
   1.4795000e+01	   2.1845982e-03	  -5.6382904e-02	   1.4230069e-01	
   1.4850000e+01	  -7.3347453e-03	  -7.8836155e-02	   1.2942290e-01	
   1.4905000e+01	  -1.7336666e-02	  -1.0097196e-01	   1.1646167e-01	
   1.4960000e+01	  -2.7701063e-02	  -1.2248733e-01	   1.0340034e-01	
   1.5015000e+01	  -3.8292888e-02	  -1.4310468e-01	   9.0222655e-02	
   1.5070000e+01	  -4.8965653e-02	  -1.6257937e-01	   7.6918475e-02	
   1.5125000e+01	  -5.9566782e-02	  -1.8070472e-01	   6.3489212e-02	
   1.5180000e+01	  -6.9945296e-02	  -1.9731572e-01	   4.9949932e-02	
   1.5235000e+01	  -7.9960267e-02	  -2.1228991e-01	   3.6326943e-02	
   1.5290000e+01	  -8.9487363e-02	  -2.2554396e-01	   2.2652311e-02	
   1.5345000e+01	  -9.8422602e-02	  -2.3702726e-01	   8.9573856e-03	
   1.5400000e+01	  -1.0668464e-01	  -2.4671685e-01	  -4.7337054e-03	
   1.5455000e+01	  -1.1421640e-01	  -2.5461590e-01	  -1.8409517e-02	
   1.5510000e+01	  -1.2098506e-01	  -2.6075477e-01	  -3.2073760e-02	
   1.5565000e+01	  -1.2697955e-01	  -2.6519307e-01	  -4.5744034e-02	
   1.5620000e+01	  -1.3220655e-01	  -2.6802232e-01	  -5.9447886e-02	
   1.5675000e+01	  -1.3668689e-01	  -2.6936728e-01	  -7.3217478e-02	
   1.5730000e+01	  -1.4045410e-01	  -2.6938317e-01	  -8.7084099e-02	
   1.5785000e+01	  -1.4355548e-01	  -2.6824819e-01	  -1.0107437e-01	
   1.5840000e+01	  -1.4605383e-01	  -2.6615330e-01	  -1.1520957e-01	
   1.5895000e+01	  -1.4802758e-01	  -2.6329209e-01	  -1.2950782e-01	
   1.5950000e+01	  -1.4956781e-01	  -2.5985195e-01	  -1.4398742e-01	
   1.6005000e+01	  -1.5077279e-01	  -2.5600722e-01	  -1.5866972e-01	
   1.6060000e+01	  -1.5174116e-01	  -2.5191516e-01	  -1.7358014e-01	
   1.6115000e+01	  -1.5256476e-01	  -2.4771487e-01	  -1.8874654e-01	
   1.6170000e+01	  -1.5332223e-01	  -2.4352798e-01	  -2.0419514e-01	
   1.6225000e+01	  -1.5407393e-01	  -2.3945929e-01	  -2.1994503e-01	
   1.6280000e+01	  -1.5485878e-01	  -2.3559755e-01	  -2.3600265e-01	
   1.6335000e+01	  -1.5569417e-01	  -2.3201697e-01	  -2.5235717e-01	
   1.6390000e+01	  -1.5657893e-01	  -2.2877842e-01	  -2.6897702e-01	
   1.6445000e+01	  -1.5749838e-01	  -2.2592885e-01	  -2.8580787e-01	
   1.6500000e+01	  -1.5843038e-01	  -2.2350006e-01	  -3.0277243e-01	
   1.6555000e+01	  -1.5935181e-01	  -2.2150940e-01	  -3.1977308e-01	
   1.6610000e+01	  -1.6024389e-01	  -2.1996259e-01	  -3.3669721e-01	
   1.6665000e+01	  -1.6109546e-01	  -2.1885677e-01	  -3.5342358e-01	
   1.6720000e+01	  -1.6190440e-01	  -2.1818208e-01	  -3.6982933e-01	
   1.6775000e+01	  -1.6267814e-01	  -2.1792284e-01	  -3.8579835e-01	
   1.6830000e+01	  -1.6343269e-01	  -2.1805935e-01	  -4.0122989e-01	
   1.6885000e+01	  -1.6418989e-01	  -2.1857081e-01	  -4.1604542e-01	
   1.6940000e+01	  -1.6497408e-01	  -2.1943851e-01	  -4.3019276e-01	
   1.6995000e+01	  -1.6581013e-01	  -2.2064809e-01	  -4.4364792e-01	
   1.7050000e+01	  -1.6672275e-01	  -2.2218860e-01	  -4.5641383e-01	
   1.7105000e+01	  -1.6773610e-01	  -2.2404724e-01	  -4.6851633e-01	
   1.7160000e+01	  -1.6887314e-01	  -2.2620246e-01	  -4.7999897e-01	
   1.7215000e+01	  -1.7015500e-01	  -2.2861980e-01	  -4.9091943e-01	
   1.7270000e+01	  -1.7160077e-01	  -2.3125281e-01	  -5.0134802e-01	
   1.7325000e+01	  -1.7322760e-01	  -2.3404752e-01	  -5.1136716e-01	
   1.7380000e+01	  -1.7505057e-01	  -2.3694622e-01	  -5.2106975e-01	
   1.7435000e+01	  -1.7708228e-01	  -2.3988797e-01	  -5.3055477e-01	
   1.7490000e+01	  -1.7933223e-01	  -2.4280659e-01	  -5.3992011e-01	
   1.7545000e+01	  -1.8180606e-01	  -2.4562787e-01	  -5.4925435e-01	
   1.7600000e+01	  -1.8450429e-01	  -2.4826705e-01	  -5.5862752e-01	
   1.7655000e+01	  -1.8742093e-01	  -2.5062625e-01	  -5.6808156e-01	
   1.7710000e+01	  -1.9054235e-01	  -2.5259329e-01	  -5.7762247e-01	
   1.7765000e+01	  -1.9384637e-01	  -2.5404421e-01	  -5.8721733e-01	
   1.7820000e+01	  -1.9730098e-01	  -2.5485026e-01	  -5.9679640e-01	
   1.7875000e+01	  -2.0086343e-01	  -2.5488755e-01	  -6.0625857e-01	
   1.7930000e+01	  -2.0448062e-01	  -2.5404672e-01	  -6.1547881e-01	
   1.7985000e+01	  -2.0809126e-01	  -2.5224045e-01	  -6.2431640e-01	
   1.8040000e+01	  -2.1162900e-01	  -2.4940900e-01	  -6.3262222e-01	
   1.8095000e+01	  -2.1502499e-01	  -2.4552422e-01	  -6.4024449e-01	
   1.8150000e+01	  -2.1820983e-01	  -2.4059170e-01	  -6.4703440e-01	
   1.8205000e+01	  -2.2111524e-01	  -2.3465090e-01	  -6.5285228e-01	
   1.8260000e+01	  -2.2367645e-01	  -2.2777360e-01	  -6.5757401e-01	
   1.8315000e+01	  -2.2583528e-01	  -2.2006066e-01	  -6.6109710e-01	
   1.8370000e+01	  -2.2754345e-01	  -2.1163731e-01	  -6.6334543e-01	
   1.8425000e+01	  -2.2876589e-01	  -2.0264710e-01	  -6.6427277e-01	
   1.8480000e+01	  -2.2948388e-01	  -1.9324470e-01	  -6.6386553e-01	
   1.8535000e+01	  -2.2969721e-01	  -1.8358802e-01	  -6.6214561e-01	
   1.8590000e+01	  -2.2942424e-01	  -1.7382980e-01	  -6.5917279e-01	
   1.8645000e+01	  -2.2869951e-01	  -1.6410768e-01	  -6.5504593e-01	
   1.8700000e+01	  -2.2756971e-01	  -1.5453401e-01	  -6.4990060e-01	
   1.8755000e+01	  -2.2608937e-01	  -1.4518813e-01	  -6.4390118e-01	
   1.8810000e+01	  -2.2431758e-01	  -1.3611500e-01	  -6.3722766e-01	
   1.8865000e+01	  -2.2231660e-01	  -1.2733095e-01	  -6.3006047e-01	
   1.8920000e+01	  -2.2015237e-01	  -1.1883337e-01	  -6.2256746e-01	
   1.8975000e+01	  -2.1789519e-01	  -1.1060922e-01	  -6.1489527e-01	
   1.9030000e+01	  -2.1561923e-01	  -1.0263931e-01	  -6.0716521e-01	
   1.9085000e+01	  -2.1340025e-01	  -9.4900017e-02	  -5.9947283e-01	
   1.9140000e+01	  -2.1131225e-01	  -8.7365298e-02	  -5.9188876e-01	
   1.9195000e+01	  -2.0942295e-01	  -8.0010760e-02	  -5.8445829e-01	
   1.9250000e+01	  -2.0778841e-01	  -7.2819210e-02	  -5.7719893e-01	
   1.9305000e+01	  -2.0644792e-01	  -6.5787036e-02	  -5.7009823e-01	
   1.9360000e+01	  -2.0542066e-01	  -5.8929943e-02	  -5.6311334e-01	
   1.9415000e+01	  -2.0470425e-01	  -5.2285947e-02	  -5.5617280e-01	
   1.9470000e+01	  -2.0427511e-01	  -4.5914887e-02	  -5.4917966e-01	
   1.9525000e+01	  -2.0409073e-01	  -3.9895908e-02	  -5.4201568e-01	
   1.9580000e+01	  -2.0409302e-01	  -3.4324200e-02	  -5.3454638e-01	
   1.9635000e+01	  -2.0421180e-01	  -2.9306059e-02	  -5.2662688e-01	
   1.9690000e+01	  -2.0436763e-01	  -2.4950963e-02	  -5.1810978e-01	
   1.9745000e+01	  -2.0447483e-01	  -2.1361679e-02	  -5.0885655e-01	
   1.9800000e+01	  -2.0444506e-01	  -1.8625358e-02	  -4.9875131e-01	
   1.9855000e+01	  -2.0419099e-01	  -1.6807838e-02	  -4.8771318e-01	
   1.9910000e+01	  -2.0362964e-01	  -1.5951175e-02	  -4.7570314e-01	
   1.9965000e+01	  -2.0268532e-01	  -1.6072906e-02	  -4.6272371e-01	
   2.0020000e+01	  -2.0129274e-01	  -1.7165730e-02	  -4.4881245e-01	
   2.0075000e+01	  -1.9940079e-01	  -1.9196788e-02	  -4.3403261e-01	
   2.0130000e+01	  -1.9697603e-01	  -2.2106309e-02	  -4.1846436e-01	
   2.0185000e+01	  -1.9400367e-01	  -2.5806600e-02	  -4.0219866e-01	
   2.0240000e+01	  -1.9048611e-01	  -3.0183323e-02	  -3.8533472e-01	
   2.0295000e+01	  -1.8644118e-01	  -3.5100523e-02	  -3.6798055e-01	
   2.0350000e+01	  -1.8190173e-01	  -4.0409403e-02	  -3.5025472e-01	
   2.0405000e+01	  -1.7691563e-01	  -4.5959459e-02	  -3.3228786e-01	
   2.0460000e+01	  -1.7154501e-01	  -5.1609444e-02	  -3.1422379e-01	
   2.0515000e+01	  -1.6586434e-01	  -5.7235408e-02	  -2.9622029e-01	
   2.0570000e+01	  -1.5995688e-01	  -6.2734209e-02	  -2.7844691e-01	
   2.0625000e+01	  -1.5390985e-01	  -6.8022953e-02	  -2.6107842e-01	
   2.0680000e+01	  -1.4780983e-01	  -7.3036377e-02	  -2.4428459e-01	
   2.0735000e+01	  -1.4174009e-01	  -7.7723894e-02	  -2.2821942e-01	
   2.0790000e+01	  -1.3577991e-01	  -8.2046470e-02	  -2.1301186e-01	
   2.0845000e+01	  -1.3000504e-01	  -8.5973014e-02	  -1.9875930e-01	
   2.0900000e+01	  -1.2448823e-01	  -8.9477377e-02	  -1.8552475e-01	
   2.0955000e+01	  -1.1929986e-01	  -9.2537298e-02	  -1.7333842e-01	
   2.1010000e+01	  -1.1450845e-01	  -9.5135626e-02	  -1.6220310e-01	
   2.1065000e+01	  -1.1018109e-01	  -9.7263652e-02	  -1.5210200e-01	
   2.1120000e+01	  -1.0638340e-01	  -9.8925892e-02	  -1.4300802e-01	
   2.1175000e+01	  -1.0317818e-01	  -1.0014434e-01	  -1.3489335e-01	
   2.1230000e+01	  -1.0062195e-01	  -1.0096025e-01	  -1.2773702e-01	
   2.1285000e+01	  -9.8759963e-02	  -1.0143276e-01	  -1.2152852e-01	
   2.1340000e+01	  -9.7621072e-02	  -1.0163463e-01	  -1.1626678e-01	
   2.1395000e+01	  -9.7213962e-02	  -1.0164636e-01	  -1.1195559e-01	
   2.1450000e+01	  -9.7525702e-02	  -1.0155037e-01	  -1.0859694e-01	
   2.1505000e+01	  -9.8522297e-02	  -1.0142605e-01	  -1.0618354e-01	
   2.1560000e+01	  -1.0015057e-01	  -1.0134590e-01	  -1.0469238e-01	
   2.1615000e+01	  -1.0234076e-01	  -1.0137334e-01	  -1.0408106e-01	
   2.1670000e+01	  -1.0500912e-01	  -1.0156285e-01	  -1.0428832e-01	
   2.1725000e+01	  -1.0805947e-01	  -1.0196136e-01	  -1.0523746e-01	
   2.1780000e+01	  -1.1138378e-01	  -1.0260746e-01	  -1.0684078e-01	
   2.1835000e+01	  -1.1486326e-01	  -1.0352693e-01	  -1.0900405e-01	
   2.1890000e+01	  -1.1837142e-01	  -1.0472618e-01	  -1.1163195e-01	
   2.1945000e+01	  -1.2177883e-01	  -1.0618557e-01	  -1.1463331e-01	
   2.2000000e+01	  -1.2495871e-01	  -1.0785479e-01	  -1.1792384e-01	
   2.2055000e+01	  -1.2779350e-01	  -1.0965261e-01	  -1.2142593e-01	
   2.2110000e+01	  -1.3018265e-01	  -1.1147350e-01	  -1.2506787e-01	
   2.2165000e+01	  -1.3205044e-01	  -1.1319977e-01	  -1.2878466e-01	
   2.2220000e+01	  -1.3335147e-01	  -1.1471568e-01	  -1.3252105e-01	
   2.2275000e+01	  -1.3407298e-01	  -1.1592019e-01	  -1.3623616e-01	
   2.2330000e+01	  -1.3423422e-01	  -1.1673722e-01	  -1.3990871e-01	
   2.2385000e+01	  -1.3388385e-01	  -1.1712371e-01	  -1.4354149e-01	
   2.2440000e+01	  -1.3309607e-01	  -1.1707542e-01	  -1.4716423e-01	
   2.2495000e+01	  -1.3196607e-01	  -1.1662921e-01	  -1.5083432e-01	
   2.2550000e+01	  -1.3060454e-01	  -1.1586111e-01	  -1.5463457e-01	
   2.2605000e+01	  -1.2913092e-01	  -1.1488118e-01	  -1.5866666e-01	
   2.2660000e+01	  -1.2766590e-01	  -1.1382641e-01	  -1.6304064e-01	
   2.2715000e+01	  -1.2632440e-01	  -1.1285301e-01	  -1.6786177e-01	
   2.2770000e+01	  -1.2520998e-01	  -1.1212945e-01	  -1.7321775e-01	
   2.2825000e+01	  -1.2441075e-01	  -1.1183008e-01	  -1.7916989e-01	
   2.2880000e+01	  -1.2399669e-01	  -1.1212750e-01	  -1.8574997e-01	
   2.2935000e+01	  -1.2401768e-01	  -1.1318267e-01	  -1.9296155e-01	
   2.2990000e+01	  -1.2450280e-01	  -1.1513369e-01	  -2.0078325e-01	
   2.3045000e+01	  -1.2546125e-01	  -1.1808487e-01	  -2.0917221e-01	
   2.3100000e+01	  -1.2688460e-01	  -1.2209797e-01	  -2.1806629e-01	
   2.3155000e+01	  -1.2874942e-01	  -1.2718712e-01	  -2.2738473e-01	
   2.3210000e+01	  -1.3101993e-01	  -1.3331787e-01	  -2.3702784e-01	
   2.3265000e+01	  -1.3365067e-01	  -1.4040930e-01	  -2.4687709e-01	
   2.3320000e+01	  -1.3658889e-01	  -1.4833897e-01	  -2.5679562e-01	
   2.3375000e+01	  -1.3977698e-01	  -1.5695048e-01	  -2.6663021e-01	
   2.3430000e+01	  -1.4315527e-01	  -1.6606372e-01	  -2.7621582e-01	
   2.3485000e+01	  -1.4666493e-01	  -1.7548610e-01	  -2.8538234e-01	
   2.3540000e+01	  -1.5024989e-01	  -1.8502299e-01	  -2.9396228e-01	
   2.3595000e+01	  -1.5385760e-01	  -1.9448587e-01	  -3.0179910e-01	
   2.3650000e+01	  -1.5743901e-01	  -2.0369763e-01	  -3.0875570e-01	
   2.3705000e+01	  -1.6094838e-01	  -2.1249502e-01	  -3.1472224e-01	
   2.3760000e+01	  -1.6434277e-01	  -2.2072953e-01	  -3.1962205e-01	
   2.3815000e+01	  -1.6758101e-01	  -2.2826811e-01	  -3.2341463e-01	
   2.3870000e+01	  -1.7062279e-01	  -2.3499462e-01	  -3.2609553e-01	
   2.3925000e+01	  -1.7342894e-01	  -2.4081251e-01	  -3.2769349e-01	
   2.3980000e+01	  -1.7596400e-01	  -2.4565010e-01	  -3.2826615e-01	
   2.4035000e+01	  -1.7820064e-01	  -2.4946829e-01	  -3.2789522e-01	
   2.4090000e+01	  -1.8012382e-01	  -2.5226850e-01	  -3.2668155e-01	
   2.4145000e+01	  -1.8173316e-01	  -2.5409745e-01	  -3.2474105e-01	
   2.4200000e+01	  -1.8304345e-01	  -2.5504708e-01	  -3.2220264e-01	
   2.4255000e+01	  -1.8408356e-01	  -2.5524922e-01	  -3.1920788e-01	
   2.4310000e+01	  -1.8489351e-01	  -2.5486514e-01	  -3.1590913e-01	
   2.4365000e+01	  -1.8552022e-01	  -2.5407172e-01	  -3.1246408e-01	
   2.4420000e+01	  -1.8601306e-01	  -2.5304725e-01	  -3.0902754e-01	
   2.4475000e+01	  -1.8642010e-01	  -2.5195931e-01	  -3.0574234e-01	
   2.4530000e+01	  -1.8678525e-01	  -2.5095581e-01	  -3.0272981e-01	
   2.4585000e+01	  -1.8714654e-01	  -2.5016019e-01	  -3.0008195e-01	
   2.4640000e+01	  -1.8753551e-01	  -2.4967020e-01	  -2.9785815e-01	
   2.4695000e+01	  -1.8797689e-01	  -2.4955714e-01	  -2.9608802e-01	
   2.4750000e+01	  -1.8848796e-01	  -2.4986336e-01	  -2.9477803e-01	
   2.4805000e+01	  -1.8907834e-01	  -2.5059900e-01	  -2.9391935e-01	
   2.4860000e+01	  -1.8975153e-01	  -2.5174094e-01	  -2.9349573e-01	
   2.4915000e+01	  -1.9050823e-01	  -2.5323538e-01	  -2.9349069e-01	
   2.4970000e+01	  -1.9134943e-01	  -2.5500369e-01	  -2.9389337e-01	
   2.5025000e+01	  -1.9227768e-01	  -2.5694971e-01	  -2.9470242e-01	
   2.5080000e+01	  -1.9329595e-01	  -2.5896654e-01	  -2.9592772e-01	
   2.5135000e+01	  -1.9440501e-01	  -2.6094179e-01	  -2.9758922e-01	
   2.5190000e+01	  -1.9560087e-01	  -2.6276173e-01	  -2.9971254e-01	
   2.5245000e+01	  -1.9687393e-01	  -2.6431526e-01	  -3.0232219e-01	
   2.5300000e+01	  -1.9820994e-01	  -2.6549666e-01	  -3.0543420e-01	
   2.5355000e+01	  -1.9959169e-01	  -2.6620591e-01	  -3.0904984e-01	
   2.5410000e+01	  -2.0100084e-01	  -2.6634775e-01	  -3.1315201e-01	
   2.5465000e+01	  -2.0241948e-01	  -2.6583247e-01	  -3.1770519e-01	
   2.5520000e+01	  -2.0383197e-01	  -2.6457991e-01	  -3.2266036e-01	
   2.5575000e+01	  -2.0522695e-01	  -2.6252569e-01	  -3.2796377e-01	
   2.5630000e+01	  -2.0659817e-01	  -2.5962700e-01	  -3.3356582e-01	
   2.5685000e+01	  -2.0794250e-01	  -2.5586495e-01	  -3.3942545e-01	
   2.5740000e+01	  -2.0925572e-01	  -2.5124224e-01	  -3.4550914e-01	
   2.5795000e+01	  -2.1052829e-01	  -2.4577761e-01	  -3.5178627e-01	
   2.5850000e+01	  -2.1174373e-01	  -2.3949892e-01	  -3.5822322e-01	
   2.5905000e+01	  -2.1287996e-01	  -2.3243540e-01	  -3.6477765e-01	
   2.5960000e+01	  -2.1391248e-01	  -2.2461016e-01	  -3.7139427e-01	
   2.6015000e+01	  -2.1481786e-01	  -2.1603499e-01	  -3.7800315e-01	
   2.6070000e+01	  -2.1557639e-01	  -2.0670957e-01	  -3.8452030e-01	
   2.6125000e+01	  -2.1617335e-01	  -1.9662522e-01	  -3.9084993e-01	
   2.6180000e+01	  -2.1659905e-01	  -1.8577260e-01	  -3.9688917e-01	
   2.6235000e+01	  -2.1684859e-01	  -1.7415338e-01	  -4.0253658e-01	
   2.6290000e+01	  -2.1692216e-01	  -1.6179407e-01	  -4.0770318e-01	
   2.6345000e+01	  -2.1682568e-01	  -1.4875799e-01	  -4.1232173e-01	
   2.6400000e+01	  -2.1657135e-01	  -1.3515098e-01	  -4.1635014e-01	
   2.6455000e+01	  -2.1617802e-01	  -1.2112020e-01	  -4.1976898e-01	
   2.6510000e+01	  -2.1567227e-01	  -1.0684807e-01	  -4.2257544e-01	
   2.6565000e+01	  -2.1508974e-01	  -9.2542876e-02	  -4.2477644e-01	
   2.6620000e+01	  -2.1447509e-01	  -7.8426837e-02	  -4.2638279e-01	
   2.6675000e+01	  -2.1387934e-01	  -6.4722188e-02	  -4.2740531e-01	
   2.6730000e+01	  -2.1335532e-01	  -5.1637363e-02	  -4.2785377e-01	
   2.6785000e+01	  -2.1295304e-01	  -3.9355717e-02	  -4.2773851e-01	
   2.6840000e+01	  -2.1271580e-01	  -2.8027532e-02	  -4.2707343e-01	
   2.6895000e+01	  -2.1267659e-01	  -1.7764977e-02	  -4.2587863e-01	
   2.6950000e+01	  -2.1285418e-01	  -8.6400803e-03	  -4.2418166e-01	
   2.7005000e+01	  -2.1324939e-01	  -6.8550858e-04	  -4.2201638e-01	
   2.7060000e+01	  -2.1384145e-01	   6.1030249e-03	  -4.1941842e-01	
   2.7115000e+01	  -2.1458559e-01	   1.1763303e-02	  -4.1641762e-01	
   2.7170000e+01	  -2.1541340e-01	   1.6361152e-02	  -4.1303129e-01	
   2.7225000e+01	  -2.1623719e-01	   1.9982860e-02	  -4.0926213e-01	
   2.7280000e+01	  -2.1695727e-01	   2.2727969e-02	  -4.0510163e-01	
   2.7335000e+01	  -2.1747033e-01	   2.4705009e-02	  -4.0053626e-01	
   2.7390000e+01	  -2.1767771e-01	   2.6029479e-02	  -3.9555433e-01	
   2.7445000e+01	  -2.1749259e-01	   2.6821207e-02	  -3.9015272e-01	
   2.7500000e+01	  -2.1684516e-01	   2.7199240e-02	  -3.8434213e-01	
   2.7555000e+01	  -2.1568570e-01	   2.7274014e-02	  -3.7814957e-01	
   2.7610000e+01	  -2.1398614e-01	   2.7137815e-02	  -3.7161816e-01	
   2.7665000e+01	  -2.1174030e-01	   2.6856282e-02	  -3.6480392e-01	
   2.7720000e+01	  -2.0896254e-01	   2.6464405e-02	  -3.5776891e-01	
   2.7775000e+01	  -2.0568578e-01	   2.5968477e-02	  -3.5057215e-01	
   2.7830000e+01	  -2.0196000e-01	   2.5352378e-02	  -3.4326214e-01	
   2.7885000e+01	  -1.9785158e-01	   2.4585362e-02	  -3.3587326e-01	
   2.7940000e+01	  -1.9344276e-01	   2.3629417e-02	  -3.2842553e-01	
   2.7995000e+01	  -1.8882996e-01	   2.2445819e-02	  -3.2092722e-01	
   2.8050000e+01	  -1.8412013e-01	   2.1001476e-02	  -3.1338049e-01	
   2.8105000e+01	  -1.7942522e-01	   1.9276023e-02	  -3.0578914e-01	
   2.8160000e+01	  -1.7485508e-01	   1.7269985e-02	  -2.9816620e-01	
   2.8215000e+01	  -1.7050968e-01	   1.5012838e-02	  -2.9053945e-01	
   2.8270000e+01	  -1.6647179e-01	   1.2568714e-02	  -2.8295382e-01	
   2.8325000e+01	  -1.6280106e-01	   1.0037477e-02	  -2.7547005e-01	
   2.8380000e+01	  -1.5953053e-01	   7.5499205e-03	  -2.6816002e-01	
   2.8435000e+01	  -1.5666552e-01	   5.2580727e-03	  -2.6109956e-01	
   2.8490000e+01	  -1.5418473e-01	   3.3231717e-03	  -2.5436011e-01	
   2.8545000e+01	  -1.5204328e-01	   1.9033570e-03	  -2.4800011e-01	
   2.8600000e+01	  -1.5017717e-01	   1.1423692e-03	  -2.4205684e-01	
   2.8655000e+01	  -1.4850839e-01	   1.1609510e-03	  -2.3653954e-01	
   2.8710000e+01	  -1.4695021e-01	   2.0521256e-03	  -2.3142635e-01	
   2.8765000e+01	  -1.4541297e-01	   3.8796584e-03	  -2.2666776e-01	
   2.8820000e+01	  -1.4381040e-01	   6.6779402e-03	  -2.2219618e-01	
   2.8875000e+01	  -1.4206525e-01	   1.0452229e-02	  -2.1793694e-01	
   2.8930000e+01	  -1.4011305e-01	   1.5179435e-02	  -2.1381695e-01	
   2.8985000e+01	  -1.3790370e-01	   2.0810012e-02	  -2.0977026e-01	
   2.9040000e+01	  -1.3540189e-01	   2.7271046e-02	  -2.0574171e-01	
   2.9095000e+01	  -1.3258733e-01	   3.4470317e-02	  -2.0168930e-01	
   2.9150000e+01	  -1.2945443e-01	   4.2300813e-02	  -1.9758630e-01	
   2.9205000e+01	  -1.2601099e-01	   5.0645375e-02	  -1.9342401e-01	
   2.9260000e+01	  -1.2227635e-01	   5.9381898e-02	  -1.8921515e-01	
   2.9315000e+01	  -1.1827996e-01	   6.8389591e-02	  -1.8499654e-01	
   2.9370000e+01	  -1.1406108e-01	   7.7555620e-02	  -1.8082921e-01	
   2.9425000e+01	  -1.0966898e-01	   8.6781066e-02	  -1.7679587e-01	
   2.9480000e+01	  -1.0516260e-01	   9.5986008e-02	  -1.7299665e-01	
   2.9535000e+01	  -1.0060939e-01	   1.0511334e-01	  -1.6954357e-01	
   2.9590000e+01	  -9.6083116e-02	   1.1412974e-01	  -1.6655358e-01	
   2.9645000e+01	  -9.1661402e-02	   1.2302242e-01	  -1.6414033e-01	
   2.9700000e+01	  -8.7424012e-02	   1.3179216e-01	  -1.6240611e-01	
   2.9755000e+01	  -8.3452526e-02	   1.4044448e-01	  -1.6143549e-01	
   2.9810000e+01	  -7.9830772e-02	   1.4898007e-01	  -1.6129122e-01	
   2.9865000e+01	  -7.6645048e-02	   1.5738580e-01	  -1.6201243e-01	
   2.9920000e+01	  -7.3983363e-02	   1.6562818e-01	  -1.6361459e-01	
   2.9975000e+01	  -7.1933017e-02	   1.7365167e-01	  -1.6608957e-01	
   3.0030000e+01	  -7.0576181e-02	   1.8138202e-01	  -1.6940445e-01	
   3.0085000e+01	  -6.9984228e-02	   1.8873351e-01	  -1.7349947e-01	
   3.0140000e+01	  -7.0212838e-02	   1.9561702e-01	  -1.7828740e-01	
   3.0195000e+01	  -7.1299528e-02	   2.0194560e-01	  -1.8365651e-01	
   3.0250000e+01	  -7.3263311e-02	   2.0763656e-01	  -1.8947667e-01	
   3.0305000e+01	  -7.6105059e-02	   2.1261134e-01	  -1.9560614e-01	
   3.0360000e+01	  -7.9808088e-02	   2.1679486e-01	  -2.0189795e-01	
   3.0415000e+01	  -8.4339972e-02	   2.2011504e-01	  -2.0820655e-01	
   3.0470000e+01	  -8.9655977e-02	   2.2250389e-01	  -2.1439547e-01	
   3.0525000e+01	  -9.5702609e-02	   2.2390199e-01	  -2.2034480e-01	
   3.0580000e+01	  -1.0241929e-01	   2.2426589e-01	  -2.2595706e-01	
   3.0635000e+01	  -1.0973797e-01	   2.2357554e-01	  -2.3116061e-01	
   3.0690000e+01	  -1.1758206e-01	   2.2183865e-01	  -2.3590948e-01	
   3.0745000e+01	  -1.2586641e-01	   2.1909129e-01	  -2.4017991e-01	
   3.0800000e+01	  -1.3449867e-01	   2.1539506e-01	  -2.4396521e-01	
   3.0855000e+01	  -1.4338158e-01	   2.1083169e-01	  -2.4727029e-01	
   3.0910000e+01	  -1.5241533e-01	   2.0549646e-01	  -2.5010583e-01	
   3.0965000e+01	  -1.6149957e-01	   1.9949180e-01	  -2.5248102e-01	
   3.1020000e+01	  -1.7053497e-01	   1.9292095e-01	  -2.5439577e-01	
   3.1075000e+01	  -1.7942530e-01	   1.8588004e-01	  -2.5583554e-01	
   3.1130000e+01	  -1.8808073e-01	   1.7844996e-01	  -2.5677144e-01	
   3.1185000e+01	  -1.9642105e-01	   1.7069111e-01	  -2.5716455e-01	
   3.1240000e+01	  -2.0437746e-01	   1.6264285e-01	  -2.5697126e-01	
   3.1295000e+01	  -2.1189271e-01	   1.5432653e-01	  -2.5614937e-01	
   3.1350000e+01	  -2.1892094e-01	   1.4574990e-01	  -2.5466524e-01	
   3.1405000e+01	  -2.2542761e-01	   1.3691251e-01	  -2.5250177e-01	
   3.1460000e+01	  -2.3138950e-01	   1.2781224e-01	  -2.4966550e-01	
   3.1515000e+01	  -2.3679471e-01	   1.1845276e-01	  -2.4619159e-01	
   3.1570000e+01	  -2.4164164e-01	   1.0885156e-01	  -2.4214410e-01	
   3.1625000e+01	  -2.4593589e-01	   9.9048057e-02	  -2.3761029e-01	
   3.1680000e+01	  -2.4968591e-01	   8.9108968e-02	  -2.3269049e-01	
   3.1735000e+01	  -2.5289977e-01	   7.9128443e-02	  -2.2748721e-01	
   3.1790000e+01	  -2.5558487e-01	   6.9222740e-02	  -2.2209627e-01	
   3.1845000e+01	  -2.5774949e-01	   5.9522314e-02	  -2.1660187e-01	
   3.1900000e+01	  -2.5940475e-01	   5.0164079e-02	  -2.1107619e-01	
   3.1955000e+01	  -2.6056641e-01	   4.1284785e-02	  -2.0558239e-01	
   3.2010000e+01	  -2.6125666e-01	   3.3015536e-02	  -2.0017881e-01	
   3.2065000e+01	  -2.6150542e-01	   2.5477320e-02	  -1.9492209e-01	
   3.2120000e+01	  -2.6135030e-01	   1.8777083e-02	  -1.8986842e-01	
   3.2175000e+01	  -2.6083476e-01	   1.3003795e-02	  -1.8507240e-01	
   3.2230000e+01	  -2.6000551e-01	   8.2247935e-03	  -1.8058381e-01	
   3.2285000e+01	  -2.5890959e-01	   4.4840166e-03	  -1.7644211e-01	
   3.2340000e+01	  -2.5759075e-01	   1.8038620e-03	  -1.7266850e-01	
   3.2395000e+01	  -2.5608545e-01	   1.9022551e-04	  -1.6925718e-01	
   3.2450000e+01	  -2.5442039e-01	  -3.6244335e-04	  -1.6617006e-01	
   3.2505000e+01	  -2.5261283e-01	   1.3114565e-04	  -1.6333688e-01	
   3.2560000e+01	  -2.5067262e-01	   1.6470353e-03	  -1.6066057e-01	
   3.2615000e+01	  -2.4860433e-01	   4.1516379e-03	  -1.5802628e-01	
   3.2670000e+01	  -2.4640907e-01	   7.6023879e-03	  -1.5531371e-01	
   3.2725000e+01	  -2.4408586e-01	   1.1950041e-02	  -1.5241123e-01	
   3.2780000e+01	  -2.4163277e-01	   1.7142678e-02	  -1.4922975e-01	
   3.2835000e+01	  -2.3904800e-01	   2.3130167e-02	  -1.4571420e-01	
   3.2890000e+01	  -2.3633114e-01	   2.9867050e-02	  -1.4185162e-01	
   3.2945000e+01	  -2.3348500e-01	   3.7312791e-02	  -1.3767398e-01	
   3.3000000e+01	  -2.3051779e-01	   4.5429640e-02	  -1.3325409e-01	
   3.3055000e+01	  -2.2744518e-01	   5.4178458e-02	  -1.2869519e-01	
   3.3110000e+01	  -2.2429169e-01	   6.3512926e-02	  -1.2411825e-01	
   3.3165000e+01	  -2.2109162e-01	   7.3373356e-02	  -1.1965114e-01	
   3.3220000e+01	  -2.1788906e-01	   8.3681566e-02	  -1.1542086e-01	
   3.3275000e+01	  -2.1473625e-01	   9.4337658e-02	  -1.1154788e-01	
   3.3330000e+01	  -2.1169000e-01	   1.0521866e-01	  -1.0814150e-01	
   3.3385000e+01	  -2.0880723e-01	   1.1617826e-01	  -1.0529580e-01	
   3.3440000e+01	  -2.0614036e-01	   1.2704788e-01	  -1.0308628e-01	
   3.3495000e+01	  -2.0373267e-01	   1.3764053e-01	  -1.0156733e-01	
   3.3550000e+01	  -2.0161336e-01	   1.4775892e-01	  -1.0077079e-01	
   3.3605000e+01	  -1.9979302e-01	   1.5720734e-01	  -1.0070467e-01	
   3.3660000e+01	  -1.9826056e-01	   1.6580524e-01	  -1.0134974e-01	
   3.3715000e+01	  -1.9698236e-01	   1.7340047e-01	  -1.0265390e-01	
   3.3770000e+01	  -1.9590414e-01	   1.7988049e-01	  -1.0452716e-01	
   3.3825000e+01	  -1.9495509e-01	   1.8517899e-01	  -1.0684086e-01	
   3.3880000e+01	  -1.9405330e-01	   1.8927669e-01	  -1.0943159e-01	
   3.3935000e+01	  -1.9311097e-01	   1.9219688e-01	  -1.1210781e-01	
   3.3990000e+01	  -1.9203852e-01	   1.9399814e-01	  -1.1465828e-01	
   3.4045000e+01	  -1.9074762e-01	   1.9476540e-01	  -1.1686242e-01	
   3.4100000e+01	  -1.8915306e-01	   1.9460099e-01	  -1.1850118e-01	
   3.4155000e+01	  -1.8717341e-01	   1.9361730e-01	  -1.1936615e-01	
   3.4210000e+01	  -1.8473122e-01	   1.9193141e-01	  -1.1926598e-01	
   3.4265000e+01	  -1.8175468e-01	   1.8965950e-01	  -1.1803154e-01	
   3.4320000e+01	  -1.7818184e-01	   1.8690944e-01	  -1.1552110e-01	
   3.4375000e+01	  -1.7396597e-01	   1.8377389e-01	  -1.1162503e-01	
   3.4430000e+01	  -1.6907984e-01	   1.8032799e-01	  -1.0626788e-01	
   3.4485000e+01	  -1.6351776e-01	   1.7663278e-01	  -9.9408053e-02	
   3.4540000e+01	  -1.5729580e-01	   1.7274139e-01	  -9.1036649e-02	
   3.4595000e+01	  -1.5045037e-01	   1.6870529e-01	  -8.1176989e-02	
   3.4650000e+01	  -1.4303508e-01	   1.6457976e-01	  -6.9884568e-02	
   3.4705000e+01	  -1.3511553e-01	   1.6042834e-01	  -5.7246457e-02	
   3.4760000e+01	  -1.2676323e-01	   1.5632513e-01	  -4.3378824e-02	
   3.4815000e+01	  -1.1804962e-01	   1.5235470e-01	  -2.8421410e-02	
   3.4870000e+01	  -1.0904126e-01	   1.4861029e-01	  -1.2529271e-02	
   3.4925000e+01	  -9.9796617e-02	   1.4519045e-01	   4.1354838e-03	
   3.4980000e+01	  -9.0364573e-02	   1.4219367e-01	   2.1408861e-02	
   3.5035000e+01	  -8.0784085e-02	   1.3971115e-01	   3.9126990e-02	
   3.5090000e+01	  -7.1083580e-02	   1.3781999e-01	   5.7127708e-02	
   3.5145000e+01	  -6.1279563e-02	   1.3657947e-01	   7.5253398e-02	
   3.5200000e+01	  -5.1375085e-02	   1.3603056e-01	   9.3353981e-02	
   3.5255000e+01	  -4.1359122e-02	   1.3619665e-01	   1.1128868e-01	
   3.5310000e+01	  -3.1207151e-02	   1.3708357e-01	   1.2892681e-01	
   3.5365000e+01	  -2.0882653e-02	   1.3867902e-01	   1.4614838e-01	
   3.5420000e+01	  -1.0339357e-02	   1.4095141e-01	   1.6284445e-01	
   3.5475000e+01	   4.7542639e-04	   1.4384877e-01	   1.7891691e-01	
   3.5530000e+01	   1.1616230e-02	   1.4729880e-01	   1.9427777e-01	
   3.5585000e+01	   2.3134217e-02	   1.5121181e-01	   2.0884803e-01	
   3.5640000e+01	   3.5072455e-02	   1.5548785e-01	   2.2255545e-01	
   3.5695000e+01	   4.7462431e-02	   1.6002687e-01	   2.3533197e-01	
   3.5750000e+01	   6.0322015e-02	   1.6473851e-01	   2.4711216e-01	
   3.5805000e+01	   7.3654566e-02	   1.6954769e-01	   2.5783287e-01	
   3.5860000e+01	   8.7448232e-02	   1.7439480e-01	   2.6743323e-01	
   3.5915000e+01	   1.0167435e-01	   1.7923162e-01	   2.7585443e-01	
   3.5970000e+01	   1.1628510e-01	   1.8401627e-01	   2.8303983e-01	
   3.6025000e+01	   1.3121174e-01	   1.8870998e-01	   2.8893680e-01	
   3.6080000e+01	   1.4636459e-01	   1.9327647e-01	   2.9350130e-01	
   3.6135000e+01	   1.6163469e-01	   1.9768269e-01	   2.9670453e-01	
   3.6190000e+01	   1.7689697e-01	   2.0189892e-01	   2.9854014e-01	
   3.6245000e+01	   1.9201536e-01	   2.0589791e-01	   2.9903001e-01	
   3.6300000e+01	   2.0684933e-01	   2.0965311e-01	   2.9822643e-01	
   3.6355000e+01	   2.2126002e-01	   2.1313662e-01	   2.9620886e-01	
   3.6410000e+01	   2.3511504e-01	   2.1631659e-01	   2.9307575e-01	
   3.6465000e+01	   2.4829195e-01	   2.1915491e-01	   2.8893576e-01	
   3.6520000e+01	   2.6068100e-01	   2.2160620e-01	   2.8390200e-01	
   3.6575000e+01	   2.7218747e-01	   2.2361832e-01	   2.7809018e-01	
   3.6630000e+01	   2.8273352e-01	   2.2513385e-01	   2.7161942e-01	
   3.6685000e+01	   2.9225971e-01	   2.2609258e-01	   2.6461504e-01	
   3.6740000e+01	   3.0072615e-01	   2.2643472e-01	   2.5721299e-01	
   3.6795000e+01	   3.0811259e-01	   2.2610400e-01	   2.4956466e-01	
   3.6850000e+01	   3.1441677e-01	   2.2505065e-01	   2.4183985e-01	
   3.6905000e+01	   3.1965120e-01	   2.2323491e-01	   2.3422601e-01	
   3.6960000e+01	   3.2384025e-01	   2.2063093e-01	   2.2692354e-01	
   3.7015000e+01	   3.2701834e-01	   2.1723007e-01	   2.2013716e-01	
   3.7070000e+01	   3.2922947e-01	   2.1304305e-01	   2.1406503e-01	
   3.7125000e+01	   3.3052716e-01	   2.0810146e-01	   2.0888749e-01	
   3.7180000e+01	   3.3097403e-01	   2.0245889e-01	   2.0475753e-01	
   3.7235000e+01	   3.3064019e-01	   1.9619158e-01	   2.0179391e-01	
   3.7290000e+01	   3.2960067e-01	   1.8939785e-01	   2.0007654e-01	
   3.7345000e+01	   3.2793220e-01	   1.8219525e-01	   1.9964387e-01	
   3.7400000e+01	   3.2570951e-01	   1.7471540e-01	   2.0049205e-01	
   3.7455000e+01	   3.2300148e-01	   1.6709683e-01	   2.0257629e-01	
   3.7510000e+01	   3.1986766e-01	   1.5947624e-01	   2.0581367e-01	
   3.7565000e+01	   3.1635647e-01	   1.5197818e-01	   2.1008619e-01	
   3.7620000e+01	   3.1250598e-01	   1.4470431e-01	   2.1524344e-01	
   3.7675000e+01	   3.0834695e-01	   1.3772390e-01	   2.2110487e-01	
   3.7730000e+01	   3.0390653e-01	   1.3106571e-01	   2.2746090e-01	
   3.7785000e+01	   2.9921088e-01	   1.2471187e-01	   2.3407372e-01	
   3.7840000e+01	   2.9428688e-01	   1.1859542e-01	   2.4068052e-01	
   3.7895000e+01	   2.8916346e-01	   1.1260342e-01	   2.4700002e-01	
   3.7950000e+01	   2.8387254e-01	   1.0658595e-01	   2.5274099e-01	
   3.8005000e+01	   2.7844943e-01	   1.0036982e-01	   2.5761239e-01	
   3.8060000e+01	   2.7293351e-01	   9.3775698e-02	   2.6133689e-01	
   3.8115000e+01	   2.6736863e-01	   8.6635606e-02	   2.6366782e-01	
   3.8170000e+01	   2.6180218e-01	   7.8806515e-02	   2.6440657e-01	
   3.8225000e+01	   2.5628265e-01	   7.0178103e-02	   2.6341596e-01	
   3.8280000e+01	   2.5085655e-01	   6.0675687e-02	   2.6062672e-01	
   3.8335000e+01	   2.4556594e-01	   5.0261043e-02	   2.5603695e-01	
   3.8390000e+01	   2.4044720e-01	   3.8932934e-02	   2.4970651e-01	
   3.8445000e+01	   2.3553065e-01	   2.6727768e-02	   2.4174806e-01	
   3.8500000e+01	   2.3084081e-01	   1.3720325e-02	   2.3231635e-01	
   3.8555000e+01	   2.2639744e-01	   2.4494430e-05	   2.2159792e-01	
   3.8610000e+01	   2.2221713e-01	  -1.4207179e-02	   2.0980257e-01	
   3.8665000e+01	   2.1831441e-01	  -2.8787644e-02	   1.9715625e-01	
   3.8720000e+01	   2.1470152e-01	  -4.3504470e-02	   1.8389475e-01	
   3.8775000e+01	   2.1138694e-01	  -5.8132304e-02	   1.7025845e-01	
   3.8830000e+01	   2.0837362e-01	  -7.2445908e-02	   1.5648783e-01	
   3.8885000e+01	   2.0565748e-01	  -8.6232045e-02	   1.4281889e-01	
   3.8940000e+01	   2.0322646e-01	  -9.9299157e-02	   1.2947809e-01	
   3.8995000e+01	   2.0106021e-01	  -1.1148409e-01	   1.1667661e-01	
   3.9050000e+01	   1.9913057e-01	  -1.2265640e-01	   1.0460397e-01	
   3.9105000e+01	   1.9740282e-01	  -1.3272191e-01	   9.3421177e-02	
   3.9160000e+01	   1.9583793e-01	  -1.4162577e-01	   8.3254797e-02	
   3.9215000e+01	   1.9439578e-01	  -1.4935352e-01	   7.4193393e-02	
   3.9270000e+01	   1.9303850e-01	  -1.5592867e-01	   6.6287036e-02	
   3.9325000e+01	   1.9173314e-01	  -1.6140743e-01	   5.9549591e-02	
   3.9380000e+01	   1.9045330e-01	  -1.6587231e-01	   5.3963901e-02	
   3.9435000e+01	   1.8917959e-01	  -1.6942503e-01	   4.9490215e-02	
   3.9490000e+01	   1.8789916e-01	  -1.7217879e-01	   4.6076604e-02	
   3.9545000e+01	   1.8660445e-01	  -1.7425105e-01	   4.3668648e-02	
   3.9600000e+01	   1.8529187e-01	  -1.7575805e-01	   4.2216048e-02	
   3.9655000e+01	   1.8396011e-01	  -1.7681050e-01	   4.1674422e-02	
   3.9710000e+01	   1.8260774e-01	  -1.7750943e-01	   4.2001023e-02	
   3.9765000e+01	   1.8123063e-01	  -1.7794169e-01	   4.3145109e-02	
   3.9820000e+01	   1.7982030e-01	  -1.7817630e-01	   4.5036101e-02	
   3.9875000e+01	   1.7836418e-01	  -1.7826351e-01	   4.7573131e-02	
   3.9930000e+01	   1.7684795e-01	  -1.7823735e-01	   5.0619328e-02	
   3.9985000e+01	   1.7525935e-01	  -1.7811985e-01	   5.4004248e-02	
   4.0040000e+01	   1.7359195e-01	  -1.7792604e-01	   5.7535730e-02	
   4.0095000e+01	   1.7184784e-01	  -1.7766947e-01	   6.1018229e-02	
   4.0150000e+01	   1.7003855e-01	  -1.7736747e-01	   6.4272228e-02	
   4.0205000e+01	   1.6818463e-01	  -1.7704339e-01	   6.7149760e-02	
   4.0260000e+01	   1.6631405e-01	  -1.7672418e-01	   6.9542720e-02	
   4.0315000e+01	   1.6445957e-01	  -1.7643379e-01	   7.1383719e-02	
   4.0370000e+01	   1.6265587e-01	  -1.7618509e-01	   7.2642525e-02	
   4.0425000e+01	   1.6093681e-01	  -1.7597345e-01	   7.3320368e-02	
   4.0480000e+01	   1.5933212e-01	  -1.7577451e-01	   7.3441250e-02	
   4.0535000e+01	   1.5786353e-01	  -1.7554569e-01	   7.3040030e-02	
   4.0590000e+01	   1.5654160e-01	  -1.7522877e-01	   7.2150826e-02	
   4.0645000e+01	   1.5536495e-01	  -1.7475226e-01	   7.0800293e-02	
   4.0700000e+01	   1.5432210e-01	  -1.7403473e-01	   6.9007600e-02	
   4.0755000e+01	   1.5339437e-01	  -1.7298983e-01	   6.6790219e-02	
   4.0810000e+01	   1.5255806e-01	  -1.7153190e-01	   6.4172613e-02	
   4.0865000e+01	   1.5178529e-01	  -1.6958110e-01	   6.1193351e-02	
   4.0920000e+01	   1.5104360e-01	  -1.6706925e-01	   5.7906545e-02	
   4.0975000e+01	   1.5029492e-01	  -1.6394626e-01	   5.4376743e-02	
   4.1030000e+01	   1.4949456e-01	  -1.6018564e-01	   5.0669785e-02	
   4.1085000e+01	   1.4859110e-01	  -1.5578701e-01	   4.6842879e-02	
   4.1140000e+01	   1.4752791e-01	  -1.5077467e-01	   4.2936192e-02	
   4.1195000e+01	   1.4624632e-01	  -1.4519360e-01	   3.8967694e-02	
   4.1250000e+01	   1.4468950e-01	  -1.3910455e-01	   3.4932536e-02	
   4.1305000e+01	   1.4280669e-01	  -1.3257997e-01	   3.0806804e-02	
   4.1360000e+01	   1.4055726e-01	  -1.2570034e-01	   2.6554013e-02	
   4.1415000e+01	   1.3791395e-01	  -1.1855102e-01	   2.2132300e-02	
   4.1470000e+01	   1.3486483e-01	  -1.1121942e-01	   1.7500907e-02	
   4.1525000e+01	   1.3141402e-01	  -1.0379220e-01	   1.2625533e-02	
   4.1580000e+01	   1.2758152e-01	  -9.6352953e-02	   7.4824330e-03	
   4.1635000e+01	   1.2340124e-01	  -8.8982016e-02	   2.0605513e-03	
   4.1690000e+01	   1.1891712e-01	  -8.1758577e-02	  -3.6388800e-03	
   4.1745000e+01	   1.1417824e-01	  -7.4762739e-02	  -9.6045920e-03	
   4.1800000e+01	   1.0923366e-01	  -6.8075714e-02	  -1.5818385e-02	
   4.1855000e+01	   1.0412745e-01	  -6.1778891e-02	  -2.2258582e-02	
   4.1910000e+01	   9.8894668e-02	  -5.5952547e-02	  -2.8902833e-02	
   4.1965000e+01	   9.3559265e-02	  -5.0673564e-02	  -3.5729174e-02	
   4.2020000e+01	   8.8133794e-02	  -4.6012115e-02	  -4.2715459e-02	
   4.2075000e+01	   8.2619957e-02	  -4.2028669e-02	  -4.9838055e-02	
   4.2130000e+01	   7.7008838e-02	  -3.8772508e-02	  -5.7070256e-02	
   4.2185000e+01	   7.1280408e-02	  -3.6282254e-02	  -6.4380799e-02	
   4.2240000e+01	   6.5402993e-02	  -3.4588112e-02	  -7.1732965e-02	
   4.2295000e+01	   5.9333932e-02	  -3.3714051e-02	  -7.9084902e-02	
   4.2350000e+01	   5.3022057e-02	  -3.3677849e-02	  -8.6391801e-02	
   4.2405000e+01	   4.6411645e-02	  -3.4488566e-02	  -9.3609582e-02	
   4.2460000e+01	   3.9447441e-02	  -3.6143353e-02	  -1.0069893e-01	
   4.2515000e+01	   3.2080580e-02	  -3.8626503e-02	  -1.0762876e-01	
   4.2570000e+01	   2.4274956e-02	  -4.1911852e-02	  -1.1437854e-01	
   4.2625000e+01	   1.6013381e-02	  -4.5966702e-02	  -1.2093847e-01	
   4.2680000e+01	   7.3027850e-03	  -5.0754985e-02	  -1.2730696e-01	
   4.2735000e+01	  -1.8229236e-03	  -5.6239489e-02	  -1.3348604e-01	
   4.2790000e+01	  -1.1303790e-02	  -6.2383299e-02	  -1.3947627e-01	
   4.2845000e+01	  -2.1058378e-02	  -6.9149306e-02	  -1.4527268e-01	
   4.2900000e+01	  -3.0990141e-02	  -7.6496823e-02	  -1.5086186e-01	
   4.2955000e+01	  -4.0994039e-02	  -8.4376302e-02	  -1.5622086e-01	
   4.3010000e+01	  -5.0963075e-02	  -9.2724174e-02	  -1.6131867e-01	
   4.3065000e+01	  -6.0794598e-02	  -1.0145929e-01	  -1.6612014e-01	
   4.3120000e+01	  -7.0395764e-02	  -1.1048176e-01	  -1.7059081e-01	
   4.3175000e+01	  -7.9687576e-02	  -1.1967457e-01	  -1.7470134e-01	
   4.3230000e+01	  -8.8607274e-02	  -1.2890787e-01	  -1.7843102e-01	
   4.3285000e+01	  -9.7108500e-02	  -1.3804432e-01	  -1.8176909e-01	
   4.3340000e+01	  -1.0515915e-01	  -1.4694383e-01	  -1.8471332e-01	
   4.3395000e+01	  -1.1273805e-01	  -1.5546641e-01	  -1.8726718e-01	
   4.3450000e+01	  -1.1983203e-01	  -1.6347318e-01	  -1.8943686e-01	
   4.3505000e+01	  -1.2643335e-01	  -1.7082546e-01	  -1.9122842e-01	
   4.3560000e+01	  -1.3253734e-01	  -1.7738210e-01	  -1.9264464e-01	
   4.3615000e+01	  -1.3814009e-01	  -1.8299772e-01	  -1.9368354e-01	
   4.3670000e+01	  -1.4323660e-01	  -1.8752527e-01	  -1.9434035e-01	
   4.3725000e+01	  -1.4781912e-01	  -1.9082280e-01	  -1.9461283e-01	
   4.3780000e+01	  -1.5187536e-01	  -1.9275989e-01	  -1.9450745e-01	
   4.3835000e+01	  -1.5538673e-01	  -1.9321984e-01	  -1.9404396e-01	
   4.3890000e+01	  -1.5832789e-01	  -1.9209806e-01	  -1.9325633e-01	
   4.3945000e+01	  -1.6066814e-01	  -1.8929915e-01	  -1.9218887e-01	
   4.4000000e+01	  -1.6237498e-01	  -1.8473584e-01	  -1.9088869e-01	
   4.4055000e+01	  -1.6341884e-01	  -1.7833185e-01	  -1.8939662e-01	
   4.4110000e+01	  -1.6377810e-01	  -1.7002999e-01	  -1.8774006e-01	
   4.4165000e+01	  -1.6344400e-01	  -1.5980437e-01	  -1.8592968e-01	
   4.4220000e+01	  -1.6242518e-01	  -1.4767361e-01	  -1.8396048e-01	
   4.4275000e+01	  -1.6075088e-01	  -1.3371194e-01	  -1.8181544e-01	
   4.4330000e+01	  -1.5847235e-01	  -1.1805627e-01	  -1.7947125e-01	
   4.4385000e+01	  -1.5566304e-01	  -1.0090875e-01	  -1.7690604e-01	
   4.4440000e+01	  -1.5241821e-01	  -8.2534310e-02	  -1.7410760e-01	
   4.4495000e+01	  -1.4885282e-01	  -6.3253194e-02	  -1.7107888e-01	
   4.4550000e+01	  -1.4509707e-01	  -4.3429936e-02	  -1.6783855e-01	
   4.4605000e+01	  -1.4129010e-01	  -2.3462209e-02	  -1.6441730e-01	
   4.4660000e+01	  -1.3757357e-01	  -3.7717736e-03	  -1.6085148e-01	
   4.4715000e+01	  -1.3408630e-01	   1.5203142e-02	  -1.5717688e-01	
   4.4770000e+01	  -1.3096096e-01	   3.3016498e-02	  -1.5342550e-01	
   4.4825000e+01	  -1.2832242e-01	   4.9225728e-02	  -1.4962673e-01	
   4.4880000e+01	  -1.2628636e-01	   6.3405564e-02	  -1.4581121e-01	
   4.4935000e+01	  -1.2495644e-01	   7.5163098e-02	  -1.4201458e-01	
   4.4990000e+01	  -1.2442032e-01	   8.4151987e-02	  -1.3827926e-01	
   4.5045000e+01	  -1.2474576e-01	   9.0084614e-02	  -1.3465380e-01	
   4.5100000e+01	  -1.2597768e-01	   9.2743005e-02	  -1.3118945e-01	
   4.5155000e+01	  -1.2813577e-01	   9.1989770e-02	  -1.2793403e-01	
   4.5210000e+01	  -1.3121245e-01	   8.7778703e-02	  -1.2492357e-01	
   4.5265000e+01	  -1.3517114e-01	   8.0163207e-02	  -1.2217324e-01	
   4.5320000e+01	  -1.3994578e-01	   6.9300335e-02	  -1.1967038e-01	
   4.5375000e+01	  -1.4544218e-01	   5.5448772e-02	  -1.1737181e-01	
   4.5430000e+01	  -1.5154123e-01	   3.8960932e-02	  -1.1520635e-01	
   4.5485000e+01	  -1.5810295e-01	   2.0271685e-02	  -1.1308129e-01	
   4.5540000e+01	  -1.6497086e-01	  -1.1338167e-04	  -1.1089093e-01	
   4.5595000e+01	  -1.7197566e-01	  -2.1629091e-02	  -1.0852585e-01	
   4.5650000e+01	  -1.7893776e-01	  -4.3662465e-02	  -1.0588263e-01	
   4.5705000e+01	  -1.8566889e-01	  -6.5567503e-02	  -1.0287508e-01	
   4.5760000e+01	  -1.9197445e-01	  -8.6683528e-02	  -9.9446817e-02	
   4.5815000e+01	  -1.9765732e-01	  -1.0635454e-01	  -9.5582550e-02	
   4.5870000e+01	  -2.0252256e-01	  -1.2394649e-01	  -9.1314181e-02	
   4.5925000e+01	  -2.0638340e-01	  -1.3886328e-01	  -8.6720481e-02	
   4.5980000e+01	  -2.0906992e-01	  -1.5056654e-01	  -8.1921566e-02	
   4.6035000e+01	  -2.1044258e-01	  -1.5860473e-01	  -7.7070453e-02	
   4.6090000e+01	  -2.1041012e-01	  -1.6265205e-01	  -7.2343270e-02	
   4.6145000e+01	  -2.0894799e-01	  -1.6255058e-01	  -6.7928129e-02	
   4.6200000e+01	  -2.0611025e-01	  -1.5834140e-01	  -6.4012210e-02	
   4.6255000e+01	  -2.0202931e-01	  -1.5027169e-01	  -6.0768764e-02	
   4.6310000e+01	  -1.9690321e-01	  -1.3877410e-01	  -5.8347811e-02	
   4.6365000e+01	  -1.9097579e-01	  -1.2442549e-01	  -5.6872236e-02	
   4.6420000e+01	  -1.8451547e-01	  -1.0789782e-01	  -5.6436842e-02	
   4.6475000e+01	  -1.7779569e-01	  -8.9911175e-02	  -5.7107073e-02	
   4.6530000e+01	  -1.7107770e-01	  -7.1192765e-02	  -5.8916532e-02	
   4.6585000e+01	  -1.6459630e-01	  -5.2441473e-02	  -6.1863845e-02	
   4.6640000e+01	  -1.5854944e-01	  -3.4298601e-02	  -6.5909113e-02	
   4.6695000e+01	  -1.5309313e-01	  -1.7326584e-02	  -7.0970436e-02	
   4.6750000e+01	  -1.4834144e-01	  -1.9969734e-03	  -7.6922367e-02	
   4.6805000e+01	  -1.4437027e-01	   1.1312832e-02	  -8.3598150e-02	
   4.6860000e+01	  -1.4122261e-01	   2.2316686e-02	  -9.0795794e-02	
   4.6915000e+01	  -1.3891409e-01	   3.0814044e-02	  -9.8286749e-02	
   4.6970000e+01	  -1.3743851e-01	   3.6683781e-02	  -1.0582622e-01	
   4.7025000e+01	  -1.3677366e-01	   3.9878866e-02	  -1.1316454e-01	
   4.7080000e+01	  -1.3688694e-01	   4.0423478e-02	  -1.2005837e-01	
   4.7135000e+01	  -1.3773935e-01	   3.8412717e-02	  -1.2628015e-01	
   4.7190000e+01	  -1.3928729e-01	   3.4012807e-02	  -1.3162451e-01	
   4.7245000e+01	  -1.4148281e-01	   2.7459746e-02	  -1.3591186e-01	
   4.7300000e+01	  -1.4427347e-01	   1.9056215e-02	  -1.3899033e-01	
   4.7355000e+01	  -1.4760248e-01	   9.1676149e-03	  -1.4073726e-01	
   4.7410000e+01	  -1.5140793e-01	  -1.7821580e-03	  -1.4106053e-01	
   4.7465000e+01	  -1.5561973e-01	  -1.3315795e-02	  -1.3989948e-01	
   4.7520000e+01	  -1.6015432e-01	  -2.4909898e-02	  -1.3722617e-01	
   4.7575000e+01	  -1.6490932e-01	  -3.6005563e-02	  -1.3304749e-01	
   4.7630000e+01	  -1.6975970e-01	  -4.6021968e-02	  -1.2740784e-01	
   4.7685000e+01	  -1.7455572e-01	  -5.4371836e-02	  -1.2039099e-01	
   4.7740000e+01	  -1.7912251e-01	  -6.0478026e-02	  -1.1212018e-01	
   4.7795000e+01	  -1.8326102e-01	  -6.3791450e-02	  -1.0275637e-01	
   4.7850000e+01	  -1.8675144e-01	  -6.3811145e-02	  -9.2494052e-02	
   4.7905000e+01	  -1.8935924e-01	  -6.0107523e-02	  -8.1554253e-02	
   4.7960000e+01	  -1.9084455e-01	  -5.2349332e-02	  -7.0174817e-02	
   4.8015000e+01	  -1.9097493e-01	  -4.0333353e-02	  -5.8600810e-02	
   4.8070000e+01	  -1.8954225e-01	  -2.4014804e-02	  -4.7077253e-02	
   4.8125000e+01	  -1.8638222e-01	  -3.5353618e-03	  -3.5843888e-02	
   4.8180000e+01	  -1.8139203e-01	   2.0760647e-02	  -2.5129903e-02	
   4.8235000e+01	  -1.7453874e-01	   4.8338430e-02	  -1.5147257e-02	
   4.8290000e+01	  -1.6585480e-01	   7.8518213e-02	  -6.0838881e-03	
   4.8345000e+01	  -1.5542586e-01	   1.1053327e-01	   1.9003997e-03	
   4.8400000e+01	  -1.4337885e-01	   1.4357486e-01	   8.6746801e-03	
   4.8455000e+01	  -1.2987334e-01	   1.7681895e-01	   1.4136731e-02	
   4.8510000e+01	  -1.1509501e-01	   2.0944435e-01	   1.8214140e-02	
   4.8565000e+01	  -9.9251008e-02	   2.4065043e-01	   2.0866092e-02	
   4.8620000e+01	  -8.2567304e-02	   2.6967729e-01	   2.2083396e-02	
   4.8675000e+01	  -6.5287242e-02	   2.9582984e-01	   2.1884891e-02	
   4.8730000e+01	  -4.7670312e-02	   3.1850667e-01	   2.0310954e-02	
   4.8785000e+01	  -2.9990779e-02	   3.3723012e-01	   1.7418029e-02	
   4.8840000e+01	  -1.2535562e-02	   3.5167038e-01	   1.3278544e-02	
   4.8895000e+01	   4.4011682e-03	   3.6165968e-01	   7.9866004e-03	
   4.8950000e+01	   2.0528448e-02	   3.6719656e-01	   1.6647542e-03	
   4.9005000e+01	   3.5570894e-02	   3.6843732e-01	  -5.5330761e-03	
   4.9060000e+01	   4.9277724e-02	   3.6567095e-01	  -1.3422664e-02	
   4.9115000e+01	   6.1426383e-02	   3.5928173e-01	  -2.1791506e-02	
   4.9170000e+01	   7.1821554e-02	   3.4970881e-01	  -3.0400803e-02	
   4.9225000e+01	   8.0290976e-02	   3.3740983e-01	  -3.8988575e-02	
   4.9280000e+01	   8.6680528e-02	   3.2283234e-01	  -4.7274556e-02	
   4.9335000e+01	   9.0851144e-02	   3.0639350e-01	  -5.4967153e-02	
   4.9390000e+01	   9.2678466e-02	   2.8846688e-01	  -6.1773408e-02	
   4.9445000e+01	   9.2054994e-02	   2.6937610e-01	  -6.7411819e-02	
   4.9500000e+01	   8.8894317e-02	   2.4939550e-01	  -7.1625137e-02	
   4.9555000e+01	   8.3137203e-02	   2.2875743e-01	  -7.4189755e-02	
   4.9610000e+01	   7.4759702e-02	   2.0766550e-01	  -7.4921459e-02	
   4.9665000e+01	   6.3782748e-02	   1.8631176e-01	  -7.3680472e-02	
   4.9720000e+01	   5.0280627e-02	   1.6489232e-01	  -7.0378445e-02	
   4.9775000e+01	   3.4385270e-02	   1.4361535e-01	  -6.4986855e-02	
   4.9830000e+01	   1.6286076e-02	   1.2270106e-01	  -5.7543865e-02	
   4.9885000e+01	  -3.7729537e-03	   1.0237660e-01	  -4.8157253e-02	
   4.9940000e+01	  -2.5497097e-02	   8.2868509e-02	  -3.7002637e-02	
   4.9995000e+01	  -4.8544965e-02	   6.4395839e-02	  -2.4316922e-02	
   5.0050000e+01	  -7.2533524e-02	   4.7165420e-02	  -1.0387590e-02	
   5.0105000e+01	  -9.7046477e-02	   3.1367076e-02	   4.4605653e-03	
   5.0160000e+01	  -1.2164785e-01	   1.7164894e-02	   1.9879826e-02	
   5.0215000e+01	  -1.4590007e-01	   4.6841843e-03	   3.5514424e-02	
   5.0270000e+01	  -1.6938314e-01	  -6.0009534e-03	   5.1015097e-02	
   5.0325000e+01	  -1.9171097e-01	  -1.4873215e-02	   6.6051936e-02	
   5.0380000e+01	  -2.1254321e-01	  -2.1968805e-02	   8.0324751e-02	
   5.0435000e+01	  -2.3159242e-01	  -2.7368278e-02	   9.3571633e-02	
   5.0490000e+01	  -2.4862772e-01	  -3.1186299e-02	   1.0557654e-01	
   5.0545000e+01	  -2.6347665e-01	  -3.3563733e-02	   1.1617527e-01	
   5.0600000e+01	  -2.7602668e-01	  -3.4662744e-02	   1.2525824e-01	
   5.0655000e+01	  -2.8622680e-01	  -3.4663727e-02	   1.3276946e-01	
   5.0710000e+01	  -2.9408792e-01	  -3.3762884e-02	   1.3870244e-01	
   5.0765000e+01	  -2.9968094e-01	  -3.2169212e-02	   1.4309366e-01	
   5.0820000e+01	  -3.0313140e-01	  -3.0099044e-02	   1.4601490e-01	
   5.0875000e+01	  -3.0461151e-01	  -2.7766774e-02	   1.4756520e-01	
   5.0930000e+01	  -3.0433076e-01	  -2.5373035e-02	   1.4786241e-01	
   5.0985000e+01	  -3.0252642e-01	  -2.3093796e-02	   1.4703447e-01	
   5.1040000e+01	  -2.9945370e-01	  -2.1072887e-02	   1.4521270e-01	
   5.1095000e+01	  -2.9537490e-01	  -1.9418061e-02	   1.4252968e-01	
   5.1150000e+01	  -2.9054795e-01	  -1.8200090e-02	   1.3912159e-01	
   5.1205000e+01	  -2.8521670e-01	  -1.7455375e-02	   1.3513196e-01	
   5.1260000e+01	  -2.7960469e-01	  -1.7192144e-02	   1.3071385e-01	
   5.1315000e+01	  -2.7391185e-01	  -1.7398689e-02	   1.2602928e-01	
   5.1370000e+01	  -2.6831187e-01	  -1.8051821e-02	   1.2124619e-01	
   5.1425000e+01	  -2.6294932e-01	  -1.9124254e-02	   1.1653319e-01	
   5.1480000e+01	  -2.5793619e-01	  -2.0588921e-02	   1.1205218e-01	
   5.1535000e+01	  -2.5334844e-01	  -2.2418235e-02	   1.0794943e-01	
   5.1590000e+01	  -2.4922305e-01	  -2.4579102e-02	   1.0434620e-01	
   5.1645000e+01	  -2.4555661e-01	  -2.7027264e-02	   1.0133017e-01	
   5.1700000e+01	  -2.4230578e-01	  -2.9704431e-02	   9.8949460e-02	
   5.1755000e+01	  -2.3939002e-01	  -3.2539183e-02	   9.7211410e-02	
   5.1810000e+01	  -2.3669668e-01	  -3.5450721e-02	   9.6086816e-02	
   5.1865000e+01	  -2.3408785e-01	  -3.8354507e-02	   9.5517595e-02	
   5.1920000e+01	  -2.3140812e-01	  -4.1168998e-02	   9.5424131e-02	
   5.1975000e+01	  -2.2849189e-01	  -4.3821682e-02	   9.5711083e-02	
   5.2030000e+01	  -2.2516962e-01	  -4.6252232e-02	   9.6272962e-02	
   5.2085000e+01	  -2.2127297e-01	  -4.8411924e-02	   9.6999965e-02	
   5.2140000e+01	  -2.1663960e-01	  -5.0259968e-02	   9.7782346e-02	
   5.2195000e+01	  -2.1111786e-01	  -5.1757683e-02	   9.8511621e-02	
   5.2250000e+01	  -2.0457143e-01	  -5.2862139e-02	   9.9079193e-02	
   5.2305000e+01	  -1.9688355e-01	  -5.3521549e-02	   9.9374743e-02	
   5.2360000e+01	  -1.8796004e-01	  -5.3673752e-02	   9.9286992e-02	
   5.2415000e+01	  -1.7773045e-01	  -5.3247339e-02	   9.8708323e-02	
   5.2470000e+01	  -1.6614833e-01	  -5.2164164e-02	   9.7542722e-02	
   5.2525000e+01	  -1.5319261e-01	  -5.0342307e-02	   9.5714164e-02	
   5.2580000e+01	  -1.3887089e-01	  -4.7699680e-02	   9.3172419e-02	
   5.2635000e+01	  -1.2322380e-01	  -4.4158805e-02	   8.9895684e-02	
   5.2690000e+01	  -1.0632833e-01	  -3.9651950e-02	   8.5891682e-02	
   5.2745000e+01	  -8.8299370e-02	  -3.4125163e-02	   8.1197881e-02	
   5.2800000e+01	  -6.9289223e-02	  -2.7541272e-02	   7.5879631e-02	
   5.2855000e+01	  -4.9485771e-02	  -1.9883424e-02	   7.0025608e-02	
   5.2910000e+01	  -2.9109241e-02	  -1.1159626e-02	   6.3742629e-02	
   5.2965000e+01	  -8.4070137e-03	  -1.4067845e-03	   5.7153239e-02	
   5.3020000e+01	   1.2353530e-02	   9.3065611e-03	   5.0397606e-02	
   5.3075000e+01	   3.2893249e-02	   2.0878152e-02	   4.3637950e-02	
   5.3130000e+01	   5.2929884e-02	   3.3170887e-02	   3.7062381e-02	
   5.3185000e+01	   7.2186706e-02	   4.6014348e-02	   3.0886178e-02	
   5.3240000e+01	   9.0400354e-02	   5.9209499e-02	   2.5349414e-02	
   5.3295000e+01	   1.0732710e-01	   7.2535149e-02	   2.0709776e-02	
   5.3350000e+01	   1.2274802e-01	   8.5754772e-02	   1.7230570e-02	
   5.3405000e+01	   1.3647433e-01	   9.8623748e-02	   1.5165500e-02	
   5.3460000e+01	   1.4835286e-01	   1.1089809e-01	   1.4741653e-02	
   5.3515000e+01	   1.5827025e-01	   1.2234501e-01	   1.6141917e-02	
   5.3570000e+01	   1.6615502e-01	   1.3275432e-01	   1.9489746e-02	
   5.3625000e+01	   1.7197754e-01	   1.4194879e-01	   2.4840282e-02	
   5.3680000e+01	   1.7574826e-01	   1.4979102e-01	   3.2179802e-02	
   5.3735000e+01	   1.7751387e-01	   1.5618494e-01	   4.1431968e-02	
   5.3790000e+01	   1.7735222e-01	   1.6107221e-01	   5.2467388e-02	
   5.3845000e+01	   1.7536737e-01	   1.6442652e-01	   6.5113810e-02	
   5.3900000e+01	   1.7168607e-01	   1.6624887e-01	   7.9166478e-02	
   5.3955000e+01	   1.6645595e-01	   1.6656503e-01	   9.4398863e-02	
   5.4010000e+01	   1.5984435e-01	   1.6542546e-01	   1.1057305e-01	
   5.4065000e+01	   1.5203703e-01	   1.6290749e-01	   1.2744819e-01	
   5.4120000e+01	   1.4323610e-01	   1.5911841e-01	   1.4478594e-01	
   5.4175000e+01	   1.3365729e-01	   1.5419778e-01	   1.6235351e-01	
   5.4230000e+01	   1.2352614e-01	   1.4831681e-01	   1.7992590e-01	
   5.4285000e+01	   1.1307324e-01	   1.4167347e-01	   1.9728901e-01	
   5.4340000e+01	   1.0252824e-01	   1.3448394e-01	   2.1424367e-01	
   5.4395000e+01	   9.2112378e-02	   1.2697102e-01	   2.3060928e-01	
   5.4450000e+01	   8.2029657e-02	   1.1935096e-01	   2.4622674e-01	
   5.4505000e+01	   7.2458141e-02	   1.1182080e-01	   2.6096101e-01	
   5.4560000e+01	   6.3543825e-02	   1.0454893e-01	   2.7470336e-01	
   5.4615000e+01	   5.5398250e-02	   9.7670544e-02	   2.8737239e-01	
   5.4670000e+01	   4.8099141e-02	   9.1287221e-02	   2.9891200e-01	
   5.4725000e+01	   4.1692785e-02	   8.5468567e-02	   3.0928648e-01	
   5.4780000e+01	   3.6197820e-02	   8.0254870e-02	   3.1847465e-01	
   5.4835000e+01	   3.1610455e-02	   7.5661056e-02	   3.2646533e-01	
   5.4890000e+01	   2.7910341e-02	   7.1682378e-02	   3.3325513e-01	
   5.4945000e+01	   2.5065934e-02	   6.8300583e-02	   3.3884900e-01	
   5.5000000e+01	   2.3038611e-02	   6.5488479e-02	   3.4326359e-01	
   5.5055000e+01	   2.1785375e-02	   6.3212189e-02	   3.4653203e-01	
   5.5110000e+01	   2.1260363e-02	   6.1432119e-02	   3.4870738e-01	
   5.5165000e+01	   2.1415493e-02	   6.0104165e-02	   3.4986276e-01	
   5.5220000e+01	   2.2200837e-02	   5.9182214e-02	   3.5008864e-01	
   5.5275000e+01	   2.3565288e-02	   5.8622169e-02	   3.4948918e-01	
   5.5330000e+01	   2.5457510e-02	   5.8386554e-02	   3.4817799e-01	
   5.5385000e+01	   2.7826960e-02	   5.8448134e-02	   3.4627317e-01	
   5.5440000e+01	   3.0625284e-02	   5.8791715e-02	   3.4389221e-01	
   5.5495000e+01	   3.3808790e-02	   5.9413923e-02	   3.4114915e-01	
   5.5550000e+01	   3.7341719e-02	   6.0320637e-02	   3.3815576e-01	
   5.5605000e+01	   4.1198864e-02	   6.1522398e-02	   3.3502535e-01	
   5.5660000e+01	   4.5366384e-02	   6.3029879e-02	   3.3187540e-01	
   5.5715000e+01	   4.9840971e-02	   6.4852016e-02	   3.2882662e-01	
   5.5770000e+01	   5.4627914e-02	   6.6997375e-02	   3.2599934e-01	
   5.5825000e+01	   5.9738128e-02	   6.9476940e-02	   3.2350852e-01	
   5.5880000e+01	   6.5184583e-02	   7.2306276e-02	   3.2145729e-01	
   5.5935000e+01	   7.0979156e-02	   7.5506086e-02	   3.1992810e-01	
   5.5990000e+01	   7.7130653e-02	   7.9100942e-02	   3.1897276e-01	
   5.6045000e+01	   8.3644186e-02	   8.3117071e-02	   3.1860439e-01	
   5.6100000e+01	   9.0521843e-02	   8.7580702e-02	   3.1879478e-01	
   5.6155000e+01	   9.7764130e-02	   9.2516787e-02	   3.1947770e-01	
   5.6210000e+01	   1.0537072e-01	   9.7945828e-02	   3.2055660e-01	
   5.6265000e+01	   1.1333907e-01	   1.0387725e-01	   3.2191439e-01	
   5.6320000e+01	   1.2166103e-01	   1.1030076e-01	   3.2342399e-01	
   5.6375000e+01	   1.3031887e-01	   1.1717936e-01	   3.2495841e-01	
   5.6430000e+01	   1.3928208e-01	   1.2444768e-01	   3.2639824e-01	
   5.6485000e+01	   1.4850559e-01	   1.3201595e-01	   3.2763543e-01	
   5.6540000e+01	   1.5792976e-01	   1.3977829e-01	   3.2857533e-01	
   5.6595000e+01	   1.6748213e-01	   1.4762311e-01	   3.2913946e-01	
   5.6650000e+01	   1.7708085e-01	   1.5544338e-01	   3.2926962e-01	
   5.6705000e+01	   1.8663840e-01	   1.6314520e-01	   3.2893273e-01	
   5.6760000e+01	   1.9606503e-01	   1.7065357e-01	   3.2812647e-01	
   5.6815000e+01	   2.0527190e-01	   1.7791511e-01	   3.2688555e-01	
   5.6870000e+01	   2.1417363e-01	   1.8489739e-01	   3.2528584e-01	
   5.6925000e+01	   2.2268928e-01	   1.9158463e-01	   3.2344352e-01	
   5.6980000e+01	   2.3074123e-01	   1.9797066e-01	   3.2150854e-01	
   5.7035000e+01	   2.3825296e-01	   2.0405103e-01	   3.1965447e-01	
   5.7090000e+01	   2.4514756e-01	   2.0981651e-01	   3.1806681e-01	
   5.7145000e+01	   2.5134774e-01	   2.1524946e-01	   3.1693001e-01	
   5.7200000e+01	   2.5677710e-01	   2.2032349e-01	   3.1641304e-01	
   5.7255000e+01	   2.6136256e-01	   2.2500532e-01	   3.1665513e-01	
   5.7310000e+01	   2.6503790e-01	   2.2925778e-01	   3.1775389e-01	
   5.7365000e+01	   2.6774816e-01	   2.3304306e-01	   3.1975773e-01	
   5.7420000e+01	   2.6945391e-01	   2.3632548e-01	   3.2266341e-01	
   5.7475000e+01	   2.7013471e-01	   2.3907263e-01	   3.2641910e-01	
   5.7530000e+01	   2.6979118e-01	   2.4125476e-01	   3.3093290e-01	
   5.7585000e+01	   2.6844518e-01	   2.4284326e-01	   3.3608512e-01	
   5.7640000e+01	   2.6613820e-01	   2.4380960e-01	   3.4174102e-01	
   5.7695000e+01	   2.6292870e-01	   2.4412516e-01	   3.4776168e-01	
   5.7750000e+01	   2.5888912e-01	   2.4376266e-01	   3.5401150e-01	
   5.7805000e+01	   2.5410304e-01	   2.4269940e-01	   3.6036256e-01	
   5.7860000e+01	   2.4866245e-01	   2.4092217e-01	   3.6669642e-01	
   5.7915000e+01	   2.4266532e-01	   2.3843332e-01	   3.7290584e-01	
   5.7970000e+01	   2.3621336e-01	   2.3525743e-01	   3.7889853e-01	
   5.8025000e+01	   2.2940977e-01	   2.3144744e-01	   3.8460250e-01	
   5.8080000e+01	   2.2235695e-01	   2.2708769e-01	   3.8996978e-01	
   5.8135000e+01	   2.1515418e-01	   2.2229180e-01	   3.9497636e-01	
   5.8190000e+01	   2.0789529e-01	   2.1719524e-01	   3.9961912e-01	
   5.8245000e+01	   2.0066595e-01	   2.1194364e-01	   4.0391069e-01	
   5.8300000e+01	   1.9354091e-01	   2.0667939e-01	   4.0787293e-01	
   5.8355000e+01	   1.8658145e-01	   2.0153062e-01	   4.1153033e-01	
   5.8410000e+01	   1.7983351e-01	   1.9660529e-01	   4.1490445e-01	
   5.8465000e+01	   1.7332652e-01	   1.9198959e-01	   4.1800924e-01	
   5.8520000e+01	   1.6707308e-01	   1.8774783e-01	   4.2084665e-01	
   5.8575000e+01	   1.6106918e-01	   1.8392122e-01	   4.2340239e-01	
   5.8630000e+01	   1.5529596e-01	   1.8052640e-01	   4.2564357e-01	
   5.8685000e+01	   1.4972323e-01	   1.7755585e-01	   4.2752026e-01	
   5.8740000e+01	   1.4431460e-01	   1.7498144e-01	   4.2897189e-01	
   5.8795000e+01	   1.3903290e-01	   1.7276118e-01	   4.2993720e-01	
   5.8850000e+01	   1.3384522e-01	   1.7084754e-01	   4.3036476e-01	
   5.8905000e+01	   1.2872650e-01	   1.6919566e-01	   4.3022087e-01	
   5.8960000e+01	   1.2366140e-01	   1.6776912e-01	   4.2949325e-01	
   5.9015000e+01	   1.1864458e-01	   1.6654214e-01	   4.2819068e-01	
   5.9070000e+01	   1.1368051e-01	   1.6549963e-01	   4.2634040e-01	
   5.9125000e+01	   1.0878398e-01	   1.6463748e-01	   4.2398518e-01	
   5.9180000e+01	   1.0398137e-01	   1.6396346e-01	   4.2118115e-01	
   5.9235000e+01	   9.9311747e-02	   1.6349771e-01	   4.1799529e-01	
   5.9290000e+01	   9.4826965e-02	   1.6327274e-01	   4.1450083e-01	
   5.9345000e+01	   9.0591288e-02	   1.6333379e-01	   4.1077148e-01	
   5.9400000e+01	   8.6681190e-02	   1.6373796e-01	   4.0687701e-01	
   5.9455000e+01	   8.3185036e-02	   1.6454919e-01	   4.0288168e-01	
   5.9510000e+01	   8.0201467e-02	   1.6582851e-01	   3.9884421e-01	
   5.9565000e+01	   7.7835896e-02	   1.6762294e-01	   3.9481760e-01	
   5.9620000e+01	   7.6195511e-02	   1.6995684e-01	   3.9084818e-01	
   5.9675000e+01	   7.5383576e-02	   1.7282650e-01	   3.8697317e-01	
   5.9730000e+01	   7.5494178e-02	   1.7619848e-01	   3.8321640e-01	
   5.9785000e+01	   7.6608682e-02	   1.8001289e-01	   3.7958285e-01	
   5.9840000e+01	   7.8794215e-02	   1.8419235e-01	   3.7605325e-01	
   5.9895000e+01	   8.2103425e-02	   1.8865428e-01	   3.7257950e-01	
   5.9950000e+01	   8.6574756e-02	   1.9332230e-01	   3.6908226e-01	
   6.0005000e+01	   9.2232758e-02	   1.9813379e-01	   3.6545333e-01	
   6.0060000e+01	   9.9087790e-02	   2.0304141e-01	   3.6156425e-01	
   6.0115000e+01	   1.0713462e-01	   2.0800797e-01	   3.5727950e-01	
   6.0170000e+01	   1.1635031e-01	   2.1299785e-01	   3.5247135e-01	
   6.0225000e+01	   1.2669214e-01	   2.1796928e-01	   3.4703340e-01	
   6.0280000e+01	   1.3809600e-01	   2.2287069e-01	   3.4089017e-01	
   6.0335000e+01	   1.5047511e-01	   2.2764016e-01	   3.3400089e-01	
   6.0390000e+01	   1.6371954e-01	   2.3220595e-01	   3.2635781e-01	
   6.0445000e+01	   1.7769684e-01	   2.3648603e-01	   3.1798210e-01	
   6.0500000e+01	   1.9225483e-01	   2.4038751e-01	   3.0891997e-01	
   6.0555000e+01	   2.0722635e-01	   2.4380703e-01	   2.9924025e-01	
   6.0610000e+01	   2.2243520e-01	   2.4663388e-01	   2.8903346e-01	
   6.0665000e+01	   2.3770247e-01	   2.4875559e-01	   2.7841300e-01	
   6.0720000e+01	   2.5285241e-01	   2.5006461e-01	   2.6751793e-01	
   6.0775000e+01	   2.6771694e-01	   2.5046337e-01	   2.5651520e-01	
   6.0830000e+01	   2.8213806e-01	   2.4986767e-01	   2.4559840e-01	
   6.0885000e+01	   2.9596894e-01	   2.4820999e-01	   2.3498207e-01	
   6.0940000e+01	   3.0907470e-01	   2.4544439e-01	   2.2489345e-01	
   6.0995000e+01	   3.2133327e-01	   2.4155207e-01	   2.1556343e-01	
   6.1050000e+01	   3.3263637e-01	   2.3654642e-01	   2.0721673e-01	
   6.1105000e+01	   3.4289039e-01	   2.3047742e-01	   2.0006038e-01	
   6.1160000e+01	   3.5201702e-01	   2.2343574e-01	   1.9427090e-01	
   6.1215000e+01	   3.5995343e-01	   2.1555406e-01	   1.8998278e-01	
   6.1270000e+01	   3.6665162e-01	   2.0700214e-01	   1.8728054e-01	
   6.1325000e+01	   3.7207654e-01	   1.9797456e-01	   1.8619591e-01	
   6.1380000e+01	   3.7620317e-01	   1.8867378e-01	   1.8671075e-01	
   6.1435000e+01	   3.7901375e-01	   1.7929336e-01	   1.8876578e-01	
   6.1490000e+01	   3.8049639e-01	   1.7000533e-01	   1.9227273e-01	
   6.1545000e+01	   3.8064589e-01	   1.6095284e-01	   1.9712626e-01	
   6.1600000e+01	   3.7946622e-01	   1.5224779e-01	   2.0321245e-01	
   6.1655000e+01	   3.7697261e-01	   1.4397108e-01	   2.1041191e-01	
   6.1710000e+01	   3.7319226e-01	   1.3617370e-01	   2.1859732e-01	
   6.1765000e+01	   3.6816404e-01	   1.2887886e-01	   2.2762867e-01	
   6.1820000e+01	   3.6193849e-01	   1.2208729e-01	   2.3735004e-01	
   6.1875000e+01	   3.5457876e-01	   1.1578602e-01	   2.4758967e-01	
   6.1930000e+01	   3.4616251e-01	   1.0995880e-01	   2.5816241e-01	
   6.1985000e+01	   3.3678359e-01	   1.0459499e-01	   2.6887418e-01	
   6.2040000e+01	   3.2655244e-01	   9.9694924e-02	   2.7952883e-01	
   6.2095000e+01	   3.1559408e-01	   9.5271561e-02	   2.8993640e-01	
   6.2150000e+01	   3.0404372e-01	   9.1349448e-02	   2.9992161e-01	
   6.2205000e+01	   2.9204178e-01	   8.7961653e-02	   3.0933193e-01	
   6.2260000e+01	   2.7972994e-01	   8.5145289e-02	   3.1804413e-01	
   6.2315000e+01	   2.6724911e-01	   8.2936525e-02	   3.2596750e-01	
   6.2370000e+01	   2.5473874e-01	   8.1365908e-02	   3.3304154e-01	
   6.2425000e+01	   2.4233589e-01	   8.0454051e-02	   3.3922784e-01	
   6.2480000e+01	   2.3017345e-01	   8.0207953e-02	   3.4449829e-01	
   6.2535000e+01	   2.1837769e-01	   8.0619091e-02	   3.4882330e-01	
   6.2590000e+01	   2.0706612e-01	   8.1663102e-02	   3.5216367e-01	
   6.2645000e+01	   1.9634659e-01	   8.3298863e-02	   3.5446740e-01	
   6.2700000e+01	   1.8631711e-01	   8.5465823e-02	   3.5567135e-01	
   6.2755000e+01	   1.7706573e-01	   8.8081448e-02	   3.5570699e-01	
   6.2810000e+01	   1.6866930e-01	   9.1040958e-02	   3.5450844e-01	
   6.2865000e+01	   1.6119156e-01	   9.4219460e-02	   3.5202042e-01	
   6.2920000e+01	   1.5468167e-01	   9.7475334e-02	   3.4820467e-01	
   6.2975000e+01	   1.4917409e-01	   1.0065442e-01	   3.4304425e-01	
   6.3030000e+01	   1.4469037e-01	   1.0359561e-01	   3.3654491e-01	
   6.3085000e+01	   1.4124229e-01	   1.0613848e-01	   3.2873261e-01	
   6.3140000e+01	   1.3883486e-01	   1.0813244e-01	   3.1964744e-01	
   6.3195000e+01	   1.3746811e-01	   1.0944593e-01	   3.0933592e-01	
   6.3250000e+01	   1.3713764e-01	   1.0997465e-01	   2.9784439e-01	
   6.3305000e+01	   1.3783458e-01	   1.0964714e-01	   2.8521638e-01	
   6.3360000e+01	   1.3954436e-01	   1.0842622e-01	   2.7149563e-01	
   6.3415000e+01	   1.4224422e-01	   1.0630530e-01	   2.5673409e-01	
   6.3470000e+01	   1.4589994e-01	   1.0330136e-01	   2.4100158e-01	
   6.3525000e+01	   1.5046308e-01	   9.9447748e-02	   2.2439327e-01	
   6.3580000e+01	   1.5586885e-01	   9.4788839e-02	   2.0703309e-01	
   6.3635000e+01	   1.6203457e-01	   8.9376774e-02	   1.8907284e-01	
   6.3690000e+01	   1.6885922e-01	   8.3269133e-02	   1.7068738e-01	
   6.3745000e+01	   1.7622411e-01	   7.6526405e-02	   1.5206604e-01	
   6.3800000e+01	   1.8399488e-01	   6.9209206e-02	   1.3340085e-01	
   6.3855000e+01	   1.9202533e-01	   6.1376400e-02	   1.1487358e-01	
   6.3910000e+01	   2.0016358e-01	   5.3085037e-02	   9.6643980e-02	
   6.3965000e+01	   2.0825935e-01	   4.4391472e-02	   7.8842103e-02	
   6.4020000e+01	   2.1617036e-01	   3.5352148e-02	   6.1565986e-02	
   6.4075000e+01	   2.2376658e-01	   2.6023645e-02	   4.4884595e-02	
   6.4130000e+01	   2.3093278e-01	   1.6463335e-02	   2.8844328e-02	
   6.4185000e+01	   2.3756988e-01	   6.7316675e-03	   1.3476203e-02	
   6.4240000e+01	   2.4359528e-01	  -3.1052026e-03	  -1.1995565e-03	
   6.4295000e+01	   2.4894210e-01	  -1.2974492e-02	  -1.5172536e-02	
   6.4350000e+01	   2.5355783e-01	  -2.2797840e-02	  -2.8442443e-02	
   6.4405000e+01	   2.5740312e-01	  -3.2493838e-02	  -4.1018381e-02	
   6.4460000e+01	   2.6045097e-01	  -4.1982519e-02	  -5.2917188e-02	
   6.4515000e+01	   2.6268597e-01	  -5.1191732e-02	  -6.4161340e-02	
   6.4570000e+01	   2.6410331e-01	  -6.0063516e-02	  -7.4775899e-02	
   6.4625000e+01	   2.6470715e-01	  -6.8559213e-02	  -8.4784683e-02	
   6.4680000e+01	   2.6450823e-01	  -7.6664301e-02	  -9.4206856e-02	
   6.4735000e+01	   2.6352070e-01	  -8.4393822e-02	  -1.0305466e-01	
   6.4790000e+01	   2.6175855e-01	  -9.1796779e-02	  -1.1133221e-01	
   6.4845000e+01	   2.5923247e-01	  -9.8956605e-02	  -1.1903517e-01	
   6.4900000e+01	   2.5594856e-01	  -1.0598617e-01	  -1.2615144e-01	
   6.4955000e+01	   2.5190968e-01	  -1.1301769e-01	  -1.3266382e-01	
   6.5010000e+01	   2.4711908e-01	  -1.2018875e-01	  -1.3855516e-01	
   6.5065000e+01	   2.4158500e-01	  -1.2762652e-01	  -1.4381455e-01	
   6.5120000e+01	   2.3532534e-01	  -1.3543290e-01	  -1.4844321e-01	
   6.5175000e+01	   2.2837129e-01	  -1.4367334e-01	  -1.5245906e-01	
   6.5230000e+01	   2.2076962e-01	  -1.5237040e-01	  -1.5589974e-01	
   6.5285000e+01	   2.1258384e-01	  -1.6150093e-01	  -1.5882284e-01	
   6.5340000e+01	   2.0389460e-01	  -1.7099604e-01	  -1.6130191e-01	
   6.5395000e+01	   1.9479872e-01	  -1.8074463e-01	  -1.6341831e-01	
   6.5450000e+01	   1.8540555e-01	  -1.9060131e-01	  -1.6525032e-01	
   6.5505000e+01	   1.7583043e-01	  -2.0039825e-01	  -1.6686306e-01	
   6.5560000e+01	   1.6618648e-01	  -2.0995924e-01	  -1.6830305e-01	
   6.5615000e+01	   1.5657649e-01	  -2.1911425e-01	  -1.6959923e-01	
   6.5670000e+01	   1.4708680e-01	  -2.2771237e-01	  -1.7076875e-01	
   6.5725000e+01	   1.3778469e-01	  -2.3563130e-01	  -1.7182267e-01	
   6.5780000e+01	   1.2871893e-01	  -2.4278307e-01	  -1.7276910e-01	
   6.5835000e+01	   1.1992197e-01	  -2.4911710e-01	  -1.7361426e-01	
   6.5890000e+01	   1.1141230e-01	  -2.5462229e-01	  -1.7436338e-01	
   6.5945000e+01	   1.0319686e-01	  -2.5932787e-01	  -1.7502207e-01	
   6.6000000e+01	   9.5273677e-02	  -2.6330204e-01	  -1.7559822e-01	
   6.6055000e+01	   8.7634563e-02	  -2.6664717e-01	  -1.7610396e-01	
   6.6110000e+01	   8.0267301e-02	  -2.6949194e-01	  -1.7655724e-01	
   6.6165000e+01	   7.3156794e-02	  -2.7198098e-01	  -1.7698210e-01	
   6.6220000e+01	   6.6285752e-02	  -2.7426374e-01	  -1.7740761e-01	
   6.6275000e+01	   5.9635239e-02	  -2.7648461e-01	  -1.7786632e-01	
   6.6330000e+01	   5.3184495e-02	  -2.7877535e-01	  -1.7839379e-01	
   6.6385000e+01	   4.6909677e-02	  -2.8124904e-01	  -1.7902971e-01	
   6.6440000e+01	   4.0782546e-02	  -2.8399516e-01	  -1.7982037e-01	
   6.6495000e+01	   3.4770709e-02	  -2.8707583e-01	  -1.8082226e-01	
   6.6550000e+01	   2.8840057e-02	  -2.9052448e-01	  -1.8210598e-01	
   6.6605000e+01	   2.2959069e-02	  -2.9434718e-01	  -1.8375824e-01	
   6.6660000e+01	   1.7104315e-02	  -2.9852551e-01	  -1.8588032e-01	
   6.6715000e+01	   1.1266336e-02	  -3.0302017e-01	  -1.8858302e-01	
   6.6770000e+01	   5.4546383e-03	  -3.0777527e-01	  -1.9197892e-01	
   6.6825000e+01	  -2.9934536e-04	  -3.1272338e-01	  -1.9617277e-01	
   6.6880000e+01	  -5.9414397e-03	  -3.1779069e-01	  -2.0125151e-01	
   6.6935000e+01	  -1.1395416e-02	  -3.2290073e-01	  -2.0727587e-01	
   6.6990000e+01	  -1.6564863e-02	  -3.2797630e-01	  -2.1427531e-01	
   6.7045000e+01	  -2.1336473e-02	  -3.3294010e-01	  -2.2224737e-01	
   6.7100000e+01	  -2.5585000e-02	  -3.3771358e-01	  -2.3116095e-01	
   6.7155000e+01	  -2.9179861e-02	  -3.4221426e-01	  -2.4096245e-01	
   6.7210000e+01	  -3.1992950e-02	  -3.4635246e-01	  -2.5158256e-01	
   6.7265000e+01	  -3.3906477e-02	  -3.5002852e-01	  -2.6294142e-01	
   6.7320000e+01	  -3.4819308e-02	  -3.5313183e-01	  -2.7495002e-01	
   6.7375000e+01	  -3.4651064e-02	  -3.5554246e-01	  -2.8750753e-01	
   6.7430000e+01	  -3.3344619e-02	  -3.5713693e-01	  -3.0049589e-01	
   6.7485000e+01	  -3.0868227e-02	  -3.5779772e-01	  -3.1377357e-01	
   6.7540000e+01	  -2.7217985e-02	  -3.5742498e-01	  -3.2717056e-01	
   6.7595000e+01	  -2.2420461e-02	  -3.5594882e-01	  -3.4048615e-01	
   6.7650000e+01	  -1.6534751e-02	  -3.5334026e-01	  -3.5349045e-01	
   6.7705000e+01	  -9.6530424e-03	  -3.4961911e-01	  -3.6592914e-01	
   6.7760000e+01	  -1.8985853e-03	  -3.4485578e-01	  -3.7753028e-01	
   6.7815000e+01	   6.5794487e-03	  -3.3916604e-01	  -3.8801319e-01	
   6.7870000e+01	   1.5613219e-02	  -3.3269997e-01	  -3.9710016e-01	
   6.7925000e+01	   2.5023516e-02	  -3.2562889e-01	  -4.0453134e-01	
   6.7980000e+01	   3.4625920e-02	  -3.1813335e-01	  -4.1008113e-01	
   6.8035000e+01	   4.4236403e-02	  -3.1039316e-01	  -4.1357294e-01	
   6.8090000e+01	   5.3677255e-02	  -3.0257931e-01	  -4.1488937e-01	
   6.8145000e+01	   6.2782853e-02	  -2.9484868e-01	  -4.1397650e-01	
   6.8200000e+01	   7.1403486e-02	  -2.8734264e-01	  -4.1084273e-01	
   6.8255000e+01	   7.9406154e-02	  -2.8018908e-01	  -4.0555437e-01	
   6.8310000e+01	   8.6673152e-02	  -2.7350540e-01	  -3.9823018e-01	
   6.8365000e+01	   9.3100045e-02	  -2.6740017e-01	  -3.8903550e-01	
   6.8420000e+01	   9.8594206e-02	  -2.6197305e-01	  -3.7817529e-01	
   6.8475000e+01	   1.0307459e-01	  -2.5731291e-01	  -3.6588494e-01	
   6.8530000e+01	   1.0647280e-01	  -2.5349397e-01	  -3.5242010e-01	
   6.8585000e+01	   1.0873500e-01	  -2.5057047e-01	  -3.3804782e-01	
   6.8640000e+01	   1.0982400e-01	  -2.4857143e-01	  -3.2304052e-01	
   6.8695000e+01	   1.0972128e-01	  -2.4749644e-01	  -3.0767216e-01	
   6.8750000e+01	   1.0842891e-01	  -2.4731317e-01	  -2.9221390e-01	
   6.8805000e+01	   1.0597180e-01	  -2.4795731e-01	  -2.7692761e-01	
   6.8860000e+01	   1.0240059e-01	  -2.4933555e-01	  -2.6205684e-01	
   6.8915000e+01	   9.7794262e-02	  -2.5133112e-01	  -2.4781765e-01	
   6.8970000e+01	   9.2261186e-02	  -2.5381059e-01	  -2.3439158e-01	
   6.9025000e+01	   8.5937430e-02	  -2.5662983e-01	  -2.2192221e-01	
   6.9080000e+01	   7.8982480e-02	  -2.5963783e-01	  -2.1051541e-01	
   6.9135000e+01	   7.1573140e-02	  -2.6267909e-01	  -2.0024213e-01	
   6.9190000e+01	   6.3896833e-02	  -2.6559699e-01	  -1.9114253e-01	
   6.9245000e+01	   5.6145082e-02	  -2.6823983e-01	  -1.8323146e-01	
   6.9300000e+01	   4.8507529e-02	  -2.7046883e-01	  -1.7650518e-01	
   6.9355000e+01	   4.1166761e-02	  -2.7216494e-01	  -1.7094779e-01	
   6.9410000e+01	   3.4294103e-02	  -2.7323256e-01	  -1.6653555e-01	
   6.9465000e+01	   2.8046000e-02	  -2.7360117e-01	  -1.6323926e-01	
   6.9520000e+01	   2.2560562e-02	  -2.7322636e-01	  -1.6102526e-01	
   6.9575000e+01	   1.7954342e-02	  -2.7209061e-01	  -1.5985545e-01	
   6.9630000e+01	   1.4319222e-02	  -2.7020265e-01	  -1.5968698e-01	
   6.9685000e+01	   1.1718873e-02	  -2.6759585e-01	  -1.6047334e-01	
   6.9740000e+01	   1.0184936e-02	  -2.6432681e-01	  -1.6216690e-01	
   6.9795000e+01	   9.7139655e-03	  -2.6047513e-01	  -1.6472047e-01	
   6.9850000e+01	   1.0265962e-02	  -2.5614357e-01	  -1.6808577e-01	
   6.9905000e+01	   1.1764857e-02	  -2.5145670e-01	  -1.7220975e-01	
   6.9960000e+01	   1.4101060e-02	  -2.4655702e-01	  -1.7703121e-01	
   7.0015000e+01	   1.7136203e-02	  -2.4159927e-01	  -1.8247938e-01	
   7.0070000e+01	   2.0710143e-02	  -2.3674313e-01	  -1.8847504e-01	
   7.0125000e+01	   2.4649818e-02	  -2.3214489e-01	  -1.9493346e-01	
   7.0180000e+01	   2.8778975e-02	  -2.2794900e-01	  -2.0176794e-01	
   7.0235000e+01	   3.2927526e-02	  -2.2428146e-01	  -2.0889237e-01	
   7.0290000e+01	   3.6939207e-02	  -2.2124568e-01	  -2.1622234e-01	
   7.0345000e+01	   4.0676454e-02	  -2.1892100e-01	  -2.2367471e-01	
   7.0400000e+01	   4.4022589e-02	  -2.1736243e-01	  -2.3116646e-01	
   7.0455000e+01	   4.6882672e-02	  -2.1660060e-01	  -2.3861380e-01	
   7.0510000e+01	   4.9184313e-02	  -2.1664199e-01	  -2.4593211e-01	
   7.0565000e+01	   5.0878611e-02	  -2.1747019e-01	  -2.5303686e-01	
   7.0620000e+01	   5.1940508e-02	  -2.1904920e-01	  -2.5984580e-01	
   7.0675000e+01	   5.2368139e-02	  -2.2132799e-01	  -2.6628274e-01	
   7.0730000e+01	   5.2181422e-02	  -2.2424372e-01	  -2.7228190e-01	
   7.0785000e+01	   5.1420667e-02	  -2.2772164e-01	  -2.7779153e-01	
   7.0840000e+01	   5.0145980e-02	  -2.3167284e-01	  -2.8277683e-01	
   7.0895000e+01	   4.8437636e-02	  -2.3599233e-01	  -2.8722226e-01	
   7.0950000e+01	   4.6396732e-02	  -2.4055885e-01	  -2.9113198e-01	
   7.1005000e+01	   4.4144861e-02	  -2.4523589e-01	  -2.9452750e-01	
   7.1060000e+01	   4.1821682e-02	  -2.4987331e-01	  -2.9744326e-01	
   7.1115000e+01	   3.9580202e-02	  -2.5430958e-01	  -2.9992121e-01	
   7.1170000e+01	   3.7580389e-02	  -2.5837499e-01	  -3.0200518e-01	
   7.1225000e+01	   3.5981791e-02	  -2.6189576e-01	  -3.0373552e-01	
   7.1280000e+01	   3.4935049e-02	  -2.6469917e-01	  -3.0514556e-01	
   7.1335000e+01	   3.4572439e-02	  -2.6661980e-01	  -3.0626067e-01	
   7.1390000e+01	   3.4998990e-02	  -2.6750600e-01	  -3.0709881e-01	
   7.1445000e+01	   3.6286615e-02	  -2.6722506e-01	  -3.0767137e-01	
   7.1500000e+01	   3.8472324e-02	  -2.6566592e-01	  -3.0798385e-01	
   7.1555000e+01	   4.1559501e-02	  -2.6273968e-01	  -3.0803552e-01	
   7.1610000e+01	   4.5520823e-02	  -2.5837887e-01	  -3.0781710e-01	
   7.1665000e+01	   5.0302206e-02	  -2.5253748e-01	  -3.0730498e-01	
   7.1720000e+01	   5.5827113e-02	  -2.4519333e-01	  -3.0645339e-01	
   7.1775000e+01	   6.2000052e-02	  -2.3635280e-01	  -3.0518782e-01	
   7.1830000e+01	   6.8709218e-02	  -2.2605621e-01	  -3.0340310e-01	
   7.1885000e+01	   7.5830043e-02	  -2.1438080e-01	  -3.0096746e-01	
   7.1940000e+01	   8.3230881e-02	  -2.0144055e-01	  -2.9773135e-01	
   7.1995000e+01	   9.0779862e-02	  -1.8738371e-01	  -2.9354013e-01	
   7.2050000e+01	   9.8351119e-02	  -1.7238959e-01	  -2.8825007e-01	
   7.2105000e+01	   1.0582954e-01	  -1.5666394e-01	  -2.8174610e-01	
   7.2160000e+01	   1.1311405e-01	  -1.4043252e-01	  -2.7395811e-01	
   7.2215000e+01	   1.2011948e-01	  -1.2393334e-01	  -2.6487208e-01	
   7.2270000e+01	   1.2677765e-01	  -1.0740890e-01	  -2.5453431e-01	
   7.2325000e+01	   1.3303852e-01	  -9.1098641e-02	  -2.4304797e-01	
   7.2380000e+01	   1.3887219e-01	  -7.5232839e-02	  -2.3056349e-01	
   7.2435000e+01	   1.4427084e-01	  -6.0028967e-02	  -2.1726550e-01	
   7.2490000e+01	   1.4924908e-01	  -4.5689767e-02	  -2.0336064e-01	
   7.2545000e+01	   1.5384165e-01	  -3.2400388e-02	  -1.8906720e-01	
   7.2600000e+01	   1.5809884e-01	  -2.0323023e-02	  -1.7460567e-01	
   7.2655000e+01	   1.6208032e-01	  -9.5901020e-03	  -1.6018964e-01	
   7.2710000e+01	   1.6584901e-01	  -2.9806817e-04	  -1.4601804e-01	
   7.2765000e+01	   1.6946606e-01	   7.4973749e-03	  -1.3227034e-01	
   7.2820000e+01	   1.7298754e-01	   1.3784645e-02	  -1.1910477e-01	
   7.2875000e+01	   1.7646226e-01	   1.8597777e-02	  -1.0665851e-01	
   7.2930000e+01	   1.7993019e-01	   2.2014845e-02	  -9.5047692e-02	
   7.2985000e+01	   1.8342123e-01	   2.4152672e-02	  -8.4365326e-02	
   7.3040000e+01	   1.8695482e-01	   2.5158113e-02	  -7.4677351e-02	
   7.3095000e+01	   1.9053999e-01	   2.5196572e-02	  -6.6018730e-02	
   7.3150000e+01	   1.9417509e-01	   2.4438974e-02	  -5.8391030e-02	
   7.3205000e+01	   1.9784680e-01	   2.3049403e-02	  -5.1762051e-02	
   7.3260000e+01	   2.0152973e-01	   2.1175571e-02	  -4.6067970e-02	
   7.3315000e+01	   2.0518749e-01	   1.8943065e-02	  -4.1218639e-02	
   7.3370000e+01	   2.0877547e-01	   1.6453150e-02	  -3.7106083e-02	
   7.3425000e+01	   2.1224501e-01	   1.3783664e-02	  -3.3615122e-02	
   7.3480000e+01	   2.1554839e-01	   1.0992632e-02	  -3.0634279e-02	
   7.3535000e+01	   2.1864446e-01	   8.1238027e-03	  -2.8065492e-02	
   7.3590000e+01	   2.2150363e-01	   5.2123381e-03	  -2.5831974e-02	
   7.3645000e+01	   2.2411148e-01	   2.2887854e-03	  -2.3883321e-02	
   7.3700000e+01	   2.2647073e-01	  -6.1908976e-04	  -2.2196112e-02	
   7.3755000e+01	   2.2860164e-01	  -3.4857643e-03	  -2.0769498e-02	
   7.3810000e+01	   2.3054077e-01	  -6.2885100e-03	  -1.9618165e-02	
   7.3865000e+01	   2.3233790e-01	  -9.0093706e-03	  -1.8766109e-02	
   7.3920000e+01	   2.3405136e-01	  -1.1637771e-02	  -1.8243168e-02	
   7.3975000e+01	   2.3574304e-01	  -1.4171908e-02	  -1.8084489e-02	
   7.4030000e+01	   2.3747388e-01	  -1.6617839e-02	  -1.8331725e-02	
   7.4085000e+01	   2.3930020e-01	  -1.8986872e-02	  -1.9033832e-02	
   7.4140000e+01	   2.4127069e-01	  -2.1292545e-02	  -2.0246045e-02	
   7.4195000e+01	   2.4342444e-01	  -2.3547899e-02	  -2.2027505e-02	
   7.4250000e+01	   2.4578940e-01	  -2.5763683e-02	  -2.4438714e-02	
   7.4305000e+01	   2.4838074e-01	  -2.7948002e-02	  -2.7539207e-02	
   7.4360000e+01	   2.5119886e-01	  -3.0106800e-02	  -3.1384957e-02	
   7.4415000e+01	   2.5422827e-01	  -3.2243619e-02	  -3.6024278e-02	
   7.4470000e+01	   2.5743816e-01	  -3.4358166e-02	  -4.1490719e-02	
   7.4525000e+01	   2.6078456e-01	  -3.6444980e-02	  -4.7792853e-02	
   7.4580000e+01	   2.6421303e-01	  -3.8493278e-02	  -5.4903488e-02	
   7.4635000e+01	   2.6766158e-01	  -4.0487083e-02	  -6.2752206e-02	
   7.4690000e+01	   2.7106353e-01	  -4.2403961e-02	  -7.1224046e-02	
   7.4745000e+01	   2.7435049e-01	  -4.4212689e-02	  -8.0165188e-02	
   7.4800000e+01	   2.7745501e-01	  -4.5872163e-02	  -8.9394566e-02	
   7.4855000e+01	   2.8031294e-01	  -4.7333316e-02	  -9.8718607e-02	
   7.4910000e+01	   2.8286525e-01	  -4.8543969e-02	  -1.0794607e-01	
   7.4965000e+01	   2.8505848e-01	  -4.9455060e-02	  -1.1690151e-01	
   7.5020000e+01	   2.8684392e-01	  -5.0026017e-02	  -1.2543672e-01	
   7.5075000e+01	   2.8817647e-01	  -5.0226777e-02	  -1.3343827e-01	
   7.5130000e+01	   2.8901468e-01	  -5.0035091e-02	  -1.4082896e-01	
   7.5185000e+01	   2.8932178e-01	  -4.9430548e-02	  -1.4756218e-01	
   7.5240000e+01	   2.8906732e-01	  -4.8389087e-02	  -1.5361017e-01	
   7.5295000e+01	   2.8822852e-01	  -4.6881320e-02	  -1.5894873e-01	
   7.5350000e+01	   2.8679147e-01	  -4.4875828e-02	  -1.6354278e-01	
   7.5405000e+01	   2.8475145e-01	  -4.2346451e-02	  -1.6733813e-01	
   7.5460000e+01	   2.8211258e-01	  -3.9281042e-02	  -1.7026238e-01	
   7.5515000e+01	   2.7888725e-01	  -3.5688767e-02	  -1.7223278e-01	
   7.5570000e+01	   2.7509563e-01	  -3.1604216e-02	  -1.7316764e-01	
   7.5625000e+01	   2.7076485e-01	  -2.7088559e-02	  -1.7299879e-01	
   7.5680000e+01	   2.6592761e-01	  -2.2229045e-02	  -1.7168424e-01	
   7.5735000e+01	   2.6062015e-01	  -1.7137105e-02	  -1.6921988e-01	
   7.5790000e+01	   2.5488010e-01	  -1.1944058e-02	  -1.6564911e-01	
   7.5845000e+01	   2.4874487e-01	  -6.7942218e-03	  -1.6106821e-01	
   7.5900000e+01	   2.4225139e-01	  -1.8369695e-03	  -1.5562512e-01	
   7.5955000e+01	   2.3543712e-01	   2.7810241e-03	  -1.4951036e-01	
   7.6010000e+01	   2.2834214e-01	   6.9228820e-03	  -1.4294085e-01	
   7.6065000e+01	   2.2101067e-01	   1.0466840e-02	  -1.3613986e-01	
   7.6120000e+01	   2.1349036e-01	   1.3308624e-02	  -1.2931820e-01	
   7.6175000e+01	   2.0582877e-01	   1.5361807e-02	  -1.2266128e-01	
   7.6230000e+01	   1.9806863e-01	   1.6558105e-02	  -1.1632238e-01	
   7.6285000e+01	   1.9024371e-01	   1.6848152e-02	  -1.1042071e-01	
   7.6340000e+01	   1.8237647e-01	   1.6202049e-02	  -1.0504286e-01	
   7.6395000e+01	   1.7447751e-01	   1.4609238e-02	  -1.0024776e-01	
   7.6450000e+01	   1.6654674e-01	   1.2077473e-02	  -9.6074001e-02	
   7.6505000e+01	   1.5857556e-01	   8.6309070e-03	  -9.2547325e-02	
   7.6560000e+01	   1.5054923e-01	   4.3085175e-03	  -8.9685818e-02	
   7.6615000e+01	   1.4244906e-01	  -8.3557705e-04	  -8.7501830e-02	
   7.6670000e+01	   1.3425435e-01	  -6.7296346e-03	  -8.6001515e-02	
   7.6725000e+01	   1.2594453e-01	  -1.3281025e-02	  -8.5183338e-02	
   7.6780000e+01	   1.1750133e-01	  -2.0374419e-02	  -8.5036065e-02	
   7.6835000e+01	   1.0890978e-01	  -2.7873310e-02	  -8.5536501e-02	
   7.6890000e+01	   1.0015775e-01	  -3.5625552e-02	  -8.6647723e-02	
   7.6945000e+01	   9.1234413e-02	  -4.3472636e-02	  -8.8318675e-02	
   7.7000000e+01	   8.2128887e-02	  -5.1261696e-02	  -9.0485775e-02	
   7.7055000e+01	   7.2829824e-02	  -5.8857964e-02	  -9.3076398e-02	
   7.7110000e+01	   6.3326315e-02	  -6.6154730e-02	  -9.6013234e-02	
   7.7165000e+01	   5.3609880e-02	  -7.3079193e-02	  -9.9218793e-02	
   7.7220000e+01	   4.3676830e-02	  -7.9594623e-02	  -1.0261982e-01	
   7.7275000e+01	   3.3530127e-02	  -8.5699292e-02	  -1.0615062e-01	
   7.7330000e+01	   2.3180312e-02	  -9.1421098e-02	  -1.0975431e-01	
   7.7385000e+01	   1.2645961e-02	  -9.6806896e-02	  -1.1338231e-01	
   7.7440000e+01	   1.9543106e-03	  -1.0190868e-01	  -1.1699402e-01	
   7.7495000e+01	  -8.8581844e-03	  -1.0677145e-01	  -1.2055720e-01	
   7.7550000e+01	  -1.9745977e-02	  -1.1142627e-01	  -1.2404768e-01	
   7.7605000e+01	  -3.0655233e-02	  -1.1588882e-01	  -1.2744652e-01	
   7.7660000e+01	  -4.1524862e-02	  -1.2016143e-01	  -1.3073487e-01	
   7.7715000e+01	  -5.2287731e-02	  -1.2423701e-01	  -1.3388938e-01	
   7.7770000e+01	  -6.2872338e-02	  -1.2810407e-01	  -1.3688128e-01	
   7.7825000e+01	  -7.3204527e-02	  -1.3175160e-01	  -1.3967889e-01	
   7.7880000e+01	  -8.3208558e-02	  -1.3517191e-01	  -1.4225176e-01	
   7.7935000e+01	  -9.2807636e-02	  -1.3836113e-01	  -1.4457519e-01	
   7.7990000e+01	  -1.0192463e-01	  -1.4131808e-01	  -1.4663486e-01	
   7.8045000e+01	  -1.1048347e-01	  -1.4404177e-01	  -1.4843076e-01	
   7.8100000e+01	  -1.1841114e-01	  -1.4652761e-01	  -1.4997933e-01	
   7.8155000e+01	  -1.2563950e-01	  -1.4876389e-01	  -1.5131307e-01	
   7.8210000e+01	  -1.3210641e-01	  -1.5073126e-01	  -1.5247685e-01	
   7.8265000e+01	  -1.3775611e-01	  -1.5240669e-01	  -1.5352134e-01	
   7.8320000e+01	  -1.4253933e-01	  -1.5377130e-01	  -1.5449498e-01	
   7.8375000e+01	  -1.4641381e-01	  -1.5481989e-01	  -1.5543774e-01	
   7.8430000e+01	  -1.4934537e-01	  -1.5556999e-01	  -1.5637846e-01	
   7.8485000e+01	  -1.5130963e-01	  -1.5606778e-01	  -1.5733586e-01	
   7.8540000e+01	  -1.5229347e-01	  -1.5638877e-01	  -1.5832202e-01	
   7.8595000e+01	  -1.5229540e-01	  -1.5663329e-01	  -1.5934731e-01	
   7.8650000e+01	  -1.5132489e-01	  -1.5691905e-01	  -1.6042679e-01	
   7.8705000e+01	  -1.4940094e-01	  -1.5737220e-01	  -1.6158765e-01	
   7.8760000e+01	  -1.4654985e-01	  -1.5811594e-01	  -1.6287485e-01	
   7.8815000e+01	  -1.4280204e-01	  -1.5925594e-01	  -1.6435186e-01	
   7.8870000e+01	  -1.3818923e-01	  -1.6086472e-01	  -1.6609508e-01	
   7.8925000e+01	  -1.3274309e-01	  -1.6296951e-01	  -1.6818448e-01	
   7.8980000e+01	  -1.2649637e-01	  -1.6554724e-01	  -1.7069435e-01	
   7.9035000e+01	  -1.1948624e-01	  -1.6852750e-01	  -1.7368720e-01	
   7.9090000e+01	  -1.1175913e-01	  -1.7180208e-01	  -1.7721153e-01	
   7.9145000e+01	  -1.0337548e-01	  -1.7523801e-01	  -1.8130252e-01	
   7.9200000e+01	  -9.4413302e-02	  -1.7869049e-01	  -1.8598355e-01	
   7.9255000e+01	  -8.4969886e-02	  -1.8201359e-01	  -1.9126735e-01	
   7.9310000e+01	  -7.5161795e-02	  -1.8506854e-01	  -1.9715731e-01	
   7.9365000e+01	  -6.5123643e-02	  -1.8773125e-01	  -2.0364851e-01	
   7.9420000e+01	  -5.5005505e-02	  -1.8989888e-01	  -2.1072721e-01	
   7.9475000e+01	  -4.4968651e-02	  -1.9149342e-01	  -2.1836734e-01	
   7.9530000e+01	  -3.5180416e-02	  -1.9246070e-01	  -2.2652602e-01	
   7.9585000e+01	  -2.5809468e-02	  -1.9276653e-01	  -2.3514011e-01	
   7.9640000e+01	  -1.7021385e-02	  -1.9239221e-01	  -2.4412360e-01	
   7.9695000e+01	  -8.9735085e-03	  -1.9132999e-01	  -2.5336339e-01	
   7.9750000e+01	  -1.8089786e-03	  -1.8957842e-01	  -2.6271259e-01	
   7.9805000e+01	   4.3487493e-03	  -1.8713806e-01	  -2.7198354e-01	
   7.9860000e+01	   9.3995648e-03	  -1.8400817e-01	  -2.8094517e-01	
   7.9915000e+01	   1.3268180e-02	  -1.8018557e-01	  -2.8932832e-01	
   7.9970000e+01	   1.5904228e-02	  -1.7566645e-01	  -2.9683873e-01	
   8.0025000e+01	   1.7282145e-02	  -1.7045135e-01	  -3.0317497e-01	
   8.0080000e+01	   1.7401134e-02	  -1.6455217e-01	  -3.0804777e-01	
   8.0135000e+01	   1.6284624e-02	  -1.5799940e-01	  -3.1119831e-01	
   8.0190000e+01	   1.3978976e-02	  -1.5084696e-01	  -3.1241409e-01	
   8.0245000e+01	   1.0551923e-02	  -1.4317354e-01	  -3.1154144e-01	
   8.0300000e+01	   6.0914121e-03	  -1.3508094e-01	  -3.0849362e-01	
   8.0355000e+01	   7.0505037e-04	  -1.2669016e-01	  -3.0325242e-01	
   8.0410000e+01	  -5.4804490e-03	  -1.1813617e-01	  -2.9586275e-01	
   8.0465000e+01	  -1.2321380e-02	  -1.0956309e-01	  -2.8642274e-01	
   8.0520000e+01	  -1.9661883e-02	  -1.0112090e-01	  -2.7507308e-01	
   8.0575000e+01	  -2.7340645e-02	  -9.2961969e-02	  -2.6198811e-01	
   8.0630000e+01	  -3.5197395e-02	  -8.5235429e-02	  -2.4736881e-01	
   8.0685000e+01	  -4.3078097e-02	  -7.8080544e-02	  -2.3143635e-01	
   8.0740000e+01	  -5.0839022e-02	  -7.1622303e-02	  -2.1442606e-01	
   8.0795000e+01	  -5.8350297e-02	  -6.5970206e-02	  -1.9658233e-01	
   8.0850000e+01	  -6.5499257e-02	  -6.1218250e-02	  -1.7815449e-01	
   8.0905000e+01	  -7.2193733e-02	  -5.7443728e-02	  -1.5939270e-01	
   8.0960000e+01	  -7.8365224e-02	  -5.4704140e-02	  -1.4054312e-01	
   8.1015000e+01	  -8.3971697e-02	  -5.3032851e-02	  -1.2184333e-01	
   8.1070000e+01	  -8.8999368e-02	  -5.2435064e-02	  -1.0351890e-01	
   8.1125000e+01	  -9.3462912e-02	  -5.2886626e-02	  -8.5779524e-02	
   8.1180000e+01	  -9.7404313e-02	  -5.4337844e-02	  -6.8813961e-02	
   8.1235000e+01	  -1.0089107e-01	  -5.6721589e-02	  -5.2784293e-02	
   8.1290000e+01	  -1.0401378e-01	  -5.9961952e-02	  -3.7821765e-02	
   8.1345000e+01	  -1.0688231e-01	  -6.3979789e-02	  -2.4025725e-02	
   8.1400000e+01	  -1.0962019e-01	  -6.8694875e-02	  -1.1466132e-02	
   8.1455000e+01	  -1.1235750e-01	  -7.4026969e-02	  -1.8859536e-04	
   8.1510000e+01	  -1.1522265e-01	  -7.9897167e-02	   9.7803831e-03	
   8.1565000e+01	  -1.1833353e-01	  -8.6228503e-02	   1.8429995e-02	
   8.1620000e+01	  -1.2178959e-01	  -9.2944897e-02	   2.5763230e-02	
   8.1675000e+01	  -1.2566637e-01	  -9.9969886e-02	   3.1794801e-02	
   8.1730000e+01	  -1.3001250e-01	  -1.0722718e-01	   3.6548931e-02	
   8.1785000e+01	  -1.3484793e-01	  -1.1464331e-01	   4.0059066e-02	
   8.1840000e+01	  -1.4016263e-01	  -1.2215121e-01	   4.2370292e-02	
   8.1895000e+01	  -1.4591606e-01	  -1.2969426e-01	   4.3542469e-02	
   8.1950000e+01	  -1.5203858e-01	  -1.3723017e-01	   4.3652101e-02	
   8.2005000e+01	  -1.5843511e-01	  -1.4473350e-01	   4.2792960e-02	
   8.2060000e+01	  -1.6499016e-01	  -1.5219511e-01	   4.1075997e-02	
   8.2115000e+01	  -1.7157410e-01	  -1.5961794e-01	   3.8627839e-02	
   8.2170000e+01	  -1.7805003e-01	  -1.6701020e-01	   3.5586714e-02	
   8.2225000e+01	  -1.8428100e-01	  -1.7437716e-01	   3.2095933e-02	
   8.2280000e+01	  -1.9013634e-01	  -1.8171236e-01	   2.8296497e-02	
   8.2335000e+01	  -1.9549609e-01	  -1.8898901e-01	   2.4320355e-02	
   8.2390000e+01	  -2.0025308e-01	  -1.9615302e-01	   2.0285088e-02	
   8.2445000e+01	  -2.0431281e-01	  -2.0311905e-01	   1.6290616e-02	
   8.2500000e+01	  -2.0759219e-01	  -2.0977074e-01	   1.2418756e-02	
   8.2555000e+01	  -2.1001870e-01	  -2.1596615e-01	   8.7357583e-03	
   8.2610000e+01	  -2.1153132e-01	  -2.2154881e-01	   5.2965371e-03	
   8.2665000e+01	  -2.1208293e-01	  -2.2636200e-01	   2.1490176e-03	
   8.2720000e+01	  -2.1164272e-01	  -2.3026207e-01	  -6.6247726e-04	
   8.2775000e+01	  -2.1019734e-01	  -2.3312793e-01	  -3.0959500e-03	
   8.2830000e+01	  -2.0775056e-01	  -2.3486653e-01	  -5.1134883e-03	
   8.2885000e+01	  -2.0432209e-01	  -2.3541495e-01	  -6.6852721e-03	
   8.2940000e+01	  -1.9994613e-01	  -2.3474013e-01	  -7.7940655e-03	
   8.2995000e+01	  -1.9466987e-01	  -2.3283706e-01	  -8.4396220e-03	
   8.3050000e+01	  -1.8855213e-01	  -2.2972558e-01	  -8.6431544e-03	
   8.3105000e+01	  -1.8166134e-01	  -2.2544581e-01	  -8.4504214e-03	
   8.3160000e+01	  -1.7407265e-01	  -2.2005319e-01	  -7.9307353e-03	
   8.3215000e+01	  -1.6586452e-01	  -2.1361474e-01	  -7.1709867e-03	
   8.3270000e+01	  -1.5711593e-01	  -2.0620782e-01	  -6.2663832e-03	
   8.3325000e+01	  -1.4790514e-01	  -1.9792074e-01	  -5.3100654e-03	
   8.3380000e+01	  -1.3831024e-01	  -1.8885296e-01	  -4.3832268e-03	
   8.3435000e+01	  -1.2841080e-01	  -1.7911301e-01	  -3.5473320e-03	
   8.3490000e+01	  -1.1828990e-01	  -1.6881439e-01	  -2.8398878e-03	
   8.3545000e+01	  -1.0803629e-01	  -1.5807179e-01	  -2.2745336e-03	
   8.3600000e+01	  -9.7746160e-02	  -1.4700011e-01	  -1.8450503e-03	
   8.3655000e+01	  -8.7524175e-02	  -1.3571666e-01	  -1.5318249e-03	
   8.3710000e+01	  -7.7483280e-02	  -1.2434499e-01	  -1.3093326e-03	
   8.3765000e+01	  -6.7742976e-02	  -1.1301690e-01	  -1.1535920e-03	
   8.3820000e+01	  -5.8425831e-02	  -1.0187009e-01	  -1.0480004e-03	
   8.3875000e+01	  -4.9652257e-02	  -9.1040979e-02	  -9.8543101e-04	
   8.3930000e+01	  -4.1534425e-02	  -8.0655554e-02	  -9.6568918e-04	
   8.3985000e+01	  -3.4171089e-02	  -7.0821764e-02	  -9.8952349e-04	
   8.4040000e+01	  -2.7644909e-02	  -6.1625711e-02	  -1.0511746e-03	
   8.4095000e+01	  -2.2022369e-02	  -5.3131587e-02	  -1.1309544e-03	
   8.4150000e+01	  -1.7354764e-02	  -4.5384578e-02	  -1.1893408e-03	
   8.4205000e+01	  -1.3678393e-02	  -3.8415542e-02	  -1.1648471e-03	
   8.4260000e+01	  -1.1013425e-02	  -3.2245423e-02	  -9.7744949e-04	
   8.4315000e+01	  -9.3619188e-03	  -2.6887346e-02	  -5.3671392e-04	
   8.4370000e+01	  -8.7056849e-03	  -2.2345539e-02	   2.4834551e-04	
   8.4425000e+01	  -9.0047489e-03	  -1.8611943e-02	   1.4599546e-03	
   8.4480000e+01	  -1.0197466e-02	  -1.5662027e-02	   3.1635884e-03	
   8.4535000e+01	  -1.2202924e-02	  -1.3450872e-02	   5.4016952e-03	
   8.4590000e+01	  -1.4925148e-02	  -1.1910370e-02	   8.1893501e-03	
   8.4645000e+01	  -1.8258211e-02	  -1.0949072e-02	   1.1512129e-02	
   8.4700000e+01	  -2.2092124e-02	  -1.0456133e-02	   1.5327309e-02	
   8.4755000e+01	  -2.6319679e-02	  -1.0309293e-02	   1.9569115e-02	
   8.4810000e+01	  -3.0843535e-02	  -1.0385780e-02	   2.4156410e-02	
   8.4865000e+01	  -3.5582213e-02	  -1.0575121e-02	   2.8999871e-02	
   8.4920000e+01	  -4.0473754e-02	  -1.0791802e-02	   3.4007029e-02	
   8.4975000e+01	  -4.5476337e-02	  -1.0984210e-02	   3.9085691e-02	
   8.5030000e+01	  -5.0566095e-02	  -1.1137204e-02	   4.4146899e-02	
   8.5085000e+01	  -5.5733595e-02	  -1.1268194e-02	   4.9107602e-02	
   8.5140000e+01	  -6.0980323e-02	  -1.1418439e-02	   5.3892498e-02	
   8.5195000e+01	  -6.6314861e-02	  -1.1642277e-02	   5.8434655e-02	
   8.5250000e+01	  -7.1747788e-02	  -1.1997457e-02	   6.2675033e-02	
   8.5305000e+01	  -7.7285648e-02	  -1.2538469e-02	   6.6561396e-02	
   8.5360000e+01	  -8.2925611e-02	  -1.3312654e-02	   7.0047865e-02	
   8.5415000e+01	  -8.8652050e-02	  -1.4358267e-02	   7.3096824e-02	
   8.5470000e+01	  -9.4435554e-02	  -1.5704477e-02	   7.5683800e-02	
   8.5525000e+01	  -1.0023446e-01	  -1.7373266e-02	   7.7804018e-02	
   8.5580000e+01	  -1.0599851e-01	  -1.9382023e-02	   7.9478268e-02	
   8.5635000e+01	  -1.1167323e-01	  -2.1745175e-02	   8.0756143e-02	
   8.5690000e+01	  -1.1720312e-01	  -2.4474262e-02	   8.1715942e-02	
   8.5745000e+01	  -1.2253267e-01	  -2.7577613e-02	   8.2460968e-02	
   8.5800000e+01	  -1.2760586e-01	  -3.1061083e-02	   8.3111706e-02	
   8.5855000e+01	  -1.3236583e-01	  -3.4929054e-02	   8.3794388e-02	
   8.5910000e+01	  -1.3675571e-01	  -3.9183198e-02	   8.4628880e-02	
   8.5965000e+01	  -1.4072021e-01	  -4.3818595e-02	   8.5719261e-02	
   8.6020000e+01	  -1.4420786e-01	  -4.8820016e-02	   8.7148341e-02	
   8.6075000e+01	  -1.4717355e-01	  -5.4160777e-02	   8.8976006e-02	
   8.6130000e+01	  -1.4958085e-01	  -5.9803437e-02	   9.1241282e-02	
   8.6185000e+01	  -1.5140385e-01	  -6.5700404e-02	   9.3967052e-02	
   8.6240000e+01	  -1.5262858e-01	  -7.1794329e-02	   9.7164637e-02	
   8.6295000e+01	  -1.5325470e-01	  -7.8019442e-02	   1.0083603e-01	
   8.6350000e+01	  -1.5329664e-01	  -8.4303650e-02	   1.0497391e-01	
   8.6405000e+01	  -1.5278289e-01	  -9.0569686e-02	   1.0956082e-01	
   8.6460000e+01	  -1.5175291e-01	  -9.6734322e-02	   1.1456865e-01	
   8.6515000e+01	  -1.5025296e-01	  -1.0270678e-01	   1.1995865e-01	
   8.6570000e+01	  -1.4833222e-01	  -1.0838808e-01	   1.2568201e-01	
   8.6625000e+01	  -1.4603997e-01	  -1.1367154e-01	   1.3168050e-01	
   8.6680000e+01	  -1.4342318e-01	  -1.1844371e-01	   1.3788682e-01	
   8.6735000e+01	  -1.4052472e-01	  -1.2258523e-01	   1.4422487e-01	
   8.6790000e+01	  -1.3738204e-01	  -1.2597278e-01	   1.5061169e-01	
   8.6845000e+01	  -1.3402564e-01	  -1.2848283e-01	   1.5696192e-01	
   8.6900000e+01	  -1.3047770e-01	  -1.2999731e-01	   1.6319457e-01	
   8.6955000e+01	  -1.2675187e-01	  -1.3041115e-01	   1.6924050e-01	
   8.7010000e+01	  -1.2285536e-01	  -1.2964147e-01	   1.7504833e-01	
   8.7065000e+01	  -1.1879298e-01	  -1.2763623e-01	   1.8058741e-01	
   8.7120000e+01	  -1.1457189e-01	  -1.2437981e-01	   1.8584776e-01	
   8.7175000e+01	  -1.1020572e-01	  -1.1989446e-01	   1.9083795e-01	
   8.7230000e+01	  -1.0571714e-01	  -1.1423850e-01	   1.9558119e-01	
   8.7285000e+01	  -1.0113878e-01	  -1.0750240e-01	   2.0010989e-01	
   8.7340000e+01	  -9.6512367e-02	  -9.9802939e-02	   2.0445923e-01	
   8.7395000e+01	  -9.1886408e-02	  -9.1276117e-02	   2.0866146e-01	
   8.7450000e+01	  -8.7313214e-02	  -8.2070474e-02	   2.1274255e-01	
   8.7505000e+01	  -8.2845918e-02	  -7.2341882e-02	   2.1672200e-01	
   8.7560000e+01	  -7.8535729e-02	  -6.2249772e-02	   2.2061591e-01	
   8.7615000e+01	  -7.4429680e-02	  -5.1954647e-02	   2.2444183e-01	
   8.7670000e+01	  -7.0569489e-02	  -4.1616949e-02	   2.2822376e-01	
   8.7725000e+01	  -6.6991663e-02	  -3.1396966e-02	   2.3199545e-01	
   8.7780000e+01	  -6.3728215e-02	  -2.1454711e-02	   2.3580129e-01	
   8.7835000e+01	  -6.0807438e-02	  -1.1948387e-02	   2.3969445e-01	
   8.7890000e+01	  -5.8254609e-02	  -3.0304574e-03	   2.4373238e-01	
   8.7945000e+01	  -5.6092475e-02	   5.1584109e-03	   2.4796993e-01	
   8.8000000e+01	  -5.4340983e-02	   1.2496572e-02	   2.5245099e-01	
   8.8055000e+01	  -5.3016206e-02	   1.8888921e-02	   2.5720043e-01	
   8.8110000e+01	  -5.2129551e-02	   2.4273619e-02	   2.6221772e-01	
   8.8165000e+01	  -5.1688318e-02	   2.8626668e-02	   2.6747454e-01	
   8.8220000e+01	  -5.1697136e-02	   3.1964100e-02	   2.7291794e-01	
   8.8275000e+01	  -5.2159000e-02	   3.4342338e-02	   2.7847913e-01	
   8.8330000e+01	  -5.3075479e-02	   3.5856000e-02	   2.8408544e-01	
   8.8385000e+01	  -5.4446656e-02	   3.6631428e-02	   2.8967265e-01	
   8.8440000e+01	  -5.6271012e-02	   3.6815879e-02	   2.9519577e-01	
   8.8495000e+01	  -5.8544661e-02	   3.6564671e-02	   3.0063689e-01	
   8.8550000e+01	  -6.1259535e-02	   3.6029205e-02	   3.0600852e-01	
   8.8605000e+01	  -6.4401280e-02	   3.5347579e-02	   3.1135125e-01	
   8.8660000e+01	  -6.7948183e-02	   3.4638422e-02	   3.1672615e-01	
   8.8715000e+01	  -7.1871427e-02	   3.3998105e-02	   3.2220323e-01	
   8.8770000e+01	  -7.6135858e-02	   3.3501278e-02	   3.2784780e-01	
   8.8825000e+01	  -8.0700636e-02	   3.3204497e-02	   3.3370732e-01	
   8.8880000e+01	  -8.5519877e-02	   3.3152318e-02	   3.3980159e-01	
   8.8935000e+01	  -9.0543543e-02	   3.3384377e-02	   3.4611807e-01	
   8.8990000e+01	  -9.5718752e-02	   3.3940803e-02	   3.5261215e-01	
   8.9045000e+01	  -1.0099168e-01	   3.4863256e-02	   3.5921169e-01	
   8.9100000e+01	  -1.0631023e-01	   3.6190729e-02	   3.6582416e-01	
   8.9155000e+01	  -1.1162696e-01	   3.7951581e-02	   3.7234405e-01	
   8.9210000e+01	  -1.1690128e-01	   4.0154554e-02	   3.7865901e-01	
   8.9265000e+01	  -1.2210053e-01	   4.2781373e-02	   3.8465442e-01	
   8.9320000e+01	  -1.2720059e-01	   4.5782640e-02	   3.9021626e-01	
   8.9375000e+01	  -1.3218656e-01	   4.9078255e-02	   3.9523343e-01	
   8.9430000e+01	  -1.3705273e-01	   5.2563331e-02	   3.9960042e-01	
   8.9485000e+01	  -1.4180105e-01	   5.6119212e-02	   4.0322068e-01	
   8.9540000e+01	  -1.4643785e-01	   5.9627035e-02	   4.0600975e-01	
   8.9595000e+01	  -1.5096912e-01	   6.2980165e-02	   4.0789730e-01	
   8.9650000e+01	  -1.5539519e-01	   6.6092401e-02	   4.0882867e-01	
   8.9705000e+01	  -1.5970581e-01	   6.8900788e-02	   4.0876721e-01	
   8.9760000e+01	  -1.6387677e-01	   7.1363986e-02	   4.0769827e-01	
   8.9815000e+01	  -1.6786917e-01	   7.3458723e-02	   4.0563379e-01	
   8.9870000e+01	  -1.7163087e-01	   7.5177154e-02	   4.0261614e-01	
   8.9925000e+01	  -1.7509881e-01	   7.6526287e-02	   3.9871919e-01	
   8.9980000e+01	  -1.7820139e-01	   7.7528128e-02	   3.9404490e-01	
   9.0035000e+01	  -1.8086148e-01	   7.8218419e-02	   3.8871500e-01	
   9.0090000e+01	  -1.8300080e-01	   7.8643524e-02	   3.8285875e-01	
   9.0145000e+01	  -1.8454570e-01	   7.8856395e-02	   3.7659849e-01	
   9.0200000e+01	  -1.8543369e-01	   7.8912140e-02	   3.7003473e-01	
   9.0255000e+01	  -1.8561962e-01	   7.8863705e-02	   3.6323261e-01	
   9.0310000e+01	  -1.8508053e-01	   7.8759036e-02	   3.5621312e-01	
   9.0365000e+01	  -1.8381759e-01	   7.8640698e-02	   3.4895316e-01	
   9.0420000e+01	  -1.8185513e-01	   7.8546896e-02	   3.4139678e-01	
   9.0475000e+01	  -1.7923798e-01	   7.8512023e-02	   3.3347425e-01	
   9.0530000e+01	  -1.7602873e-01	   7.8565863e-02	   3.2512279e-01	
   9.0585000e+01	  -1.7230573e-01	   7.8732042e-02	   3.1630319e-01	
   9.0640000e+01	  -1.6816150e-01	   7.9026966e-02	   3.0700911e-01	
   9.0695000e+01	  -1.6370141e-01	   7.9459404e-02	   2.9726882e-01	
   9.0750000e+01	  -1.5904171e-01	   8.0029393e-02	   2.8714161e-01	
   9.0805000e+01	  -1.5430645e-01	   8.0725931e-02	   2.7671241e-01	
   9.0860000e+01	  -1.4962329e-01	   8.1524861e-02	   2.6608634e-01	
   9.0915000e+01	  -1.4511886e-01	   8.2388238e-02	   2.5538225e-01	
   9.0970000e+01	  -1.4091477e-01	   8.3265171e-02	   2.4472436e-01	
   9.1025000e+01	  -1.3712404e-01	   8.4094267e-02	   2.3423314e-01	
   9.1080000e+01	  -1.3384756e-01	   8.4808438e-02	   2.2401873e-01	
   9.1135000e+01	  -1.3117026e-01	   8.5341605e-02	   2.1418018e-01	
   9.1190000e+01	  -1.2915777e-01	   8.5635216e-02	   2.0481084e-01	
   9.1245000e+01	  -1.2785497e-01	   8.5642641e-02	   1.9600727e-01	
   9.1300000e+01	  -1.2728706e-01	   8.5330739e-02	   1.8787788e-01	
   9.1355000e+01	  -1.2746239e-01	   8.4679175e-02	   1.8054838e-01	
   9.1410000e+01	  -1.2837598e-01	   8.3679188e-02	   1.7416244e-01	
   9.1465000e+01	  -1.3001309e-01	   8.2334059e-02	   1.6887697e-01	
   9.1520000e+01	  -1.3235184e-01	   8.0662385e-02	   1.6485240e-01	
   9.1575000e+01	  -1.3536443e-01	   7.8702834e-02	   1.6223949e-01	
   9.1630000e+01	  -1.3901725e-01	   7.6517571e-02	   1.6116541e-01	
   9.1685000e+01	  -1.4327012e-01	   7.4192695e-02	   1.6172135e-01	
   9.1740000e+01	  -1.4807509e-01	   7.1836645e-02	   1.6395262e-01	
   9.1795000e+01	  -1.5337466e-01	   6.9578284e-02	   1.6785233e-01	
   9.1850000e+01	  -1.5910057e-01	   6.7563839e-02	   1.7335942e-01	
   9.1905000e+01	  -1.6517346e-01	   6.5949600e-02	   1.8036083e-01	
   9.1960000e+01	  -1.7150418e-01	   6.4889310e-02	   1.8869743e-01	
   9.2015000e+01	  -1.7799686e-01	   6.4519466e-02	   1.9817296e-01	
   9.2070000e+01	  -1.8455387e-01	   6.4946550e-02	   2.0856540e-01	
   9.2125000e+01	  -1.9108211e-01	   6.6237714e-02	   2.1963912e-01	
   9.2180000e+01	  -1.9749937e-01	   6.8414938e-02	   2.3115600e-01	
   9.2235000e+01	  -2.0373918e-01	   7.1453217e-02	   2.4288379e-01	
   9.2290000e+01	  -2.0975291e-01	   7.5282857e-02	   2.5459995e-01	
   9.2345000e+01	  -2.1550906e-01	   7.9794643e-02	   2.6609106e-01	
   9.2400000e+01	  -2.2099043e-01	   8.4846756e-02	   2.7715028e-01	
   9.2455000e+01	  -2.2618975e-01	   9.0273321e-02	   2.8757526e-01	
   9.2510000e+01	  -2.3110500e-01	   9.5894277e-02	   2.9716772e-01	
   9.2565000e+01	  -2.3573516e-01	   1.0152527e-01	   3.0573569e-01	
   9.2620000e+01	  -2.4007749e-01	   1.0698574e-01	   3.1309930e-01	
   9.2675000e+01	  -2.4412612e-01	   1.1210401e-01	   3.1909978e-01	
   9.2730000e+01	  -2.4787207e-01	   1.1671968e-01	   3.2360973e-01	
   9.2785000e+01	  -2.5130469e-01	   1.2068490e-01	   3.2654227e-01	
   9.2840000e+01	  -2.5441428e-01	   1.2386589e-01	   3.2785752e-01	
   9.2895000e+01	  -2.5719482e-01	   1.2614574e-01	   3.2756564e-01	
   9.2950000e+01	  -2.5964531e-01	   1.2742898e-01	   3.2572676e-01	
   9.3005000e+01	  -2.6176950e-01	   1.2764724e-01	   3.2244717e-01	
   9.3060000e+01	  -2.6357478e-01	   1.2676471e-01	   3.1787114e-01	
   9.3115000e+01	  -2.6507055e-01	   1.2478262e-01	   3.1216969e-01	
   9.3170000e+01	  -2.6626607e-01	   1.2174296e-01	   3.0552941e-01	
   9.3225000e+01	  -2.6716804e-01	   1.1773121e-01	   2.9814267e-01	
   9.3280000e+01	  -2.6777896e-01	   1.1287665e-01	   2.9019956e-01	
   9.3335000e+01	  -2.6809674e-01	   1.0734805e-01	   2.8188238e-01	
   9.3390000e+01	  -2.6811529e-01	   1.0134367e-01	   2.7336337e-01	
   9.3445000e+01	  -2.6782580e-01	   9.5076027e-02	   2.6480472e-01	
   9.3500000e+01	  -2.6721837e-01	   8.8753716e-02	   2.5635883e-01	
   9.3555000e+01	  -2.6628358e-01	   8.2564330e-02	   2.4816726e-01	
   9.3610000e+01	  -2.6501406e-01	   7.6661851e-02	   2.4035708e-01	
   9.3665000e+01	  -2.6340567e-01	   7.1159995e-02	   2.3303420e-01	
   9.3720000e+01	  -2.6145816e-01	   6.6130551e-02	   2.2627466e-01	
   9.3775000e+01	  -2.5917508e-01	   6.1605522e-02	   2.2011557e-01	
   9.3830000e+01	  -2.5656332e-01	   5.7582932e-02	   2.1454838e-01	
   9.3885000e+01	  -2.5363226e-01	   5.4035771e-02	   2.0951646e-01	
   9.3940000e+01	  -2.5039263e-01	   5.0921660e-02	   2.0491821e-01	
   9.3995000e+01	  -2.4685524e-01	   4.8190204e-02	   2.0061499e-01	
   9.4050000e+01	  -2.4302987e-01	   4.5786591e-02	   1.9644242e-01	
   9.4105000e+01	  -2.3892496e-01	   4.3652037e-02	   1.9222303e-01	
   9.4160000e+01	  -2.3454834e-01	   4.1722812e-02	   1.8777912e-01	
   9.4215000e+01	  -2.2990918e-01	   3.9929831e-02	   1.8294512e-01	
   9.4270000e+01	  -2.2501977e-01	   3.8200493e-02	   1.7757916e-01	
   9.4325000e+01	  -2.1989645e-01	   3.6463543e-02	   1.7157260e-01	
   9.4380000e+01	  -2.1455976e-01	   3.4656159e-02	   1.6485503e-01	
   9.4435000e+01	  -2.0903421e-01	   3.2731557e-02	   1.5739341e-01	
   9.4490000e+01	  -2.0334725e-01	   3.0665621e-02	   1.4918651e-01	
   9.4545000e+01	  -1.9752698e-01	   2.8461271e-02	   1.4025772e-01	
   9.4600000e+01	  -1.9159905e-01	   2.6148954e-02	   1.3064854e-01	
   9.4655000e+01	  -1.8558389e-01	   2.3782327e-02	   1.2041377e-01	
   9.4710000e+01	  -1.7949548e-01	   2.1430389e-02	   1.0961881e-01	
   9.4765000e+01	  -1.7334159e-01	   1.9168470e-02	   9.8339657e-02	
   9.4820000e+01	  -1.6712493e-01	   1.7069573e-02	   8.6665660e-02	
   9.4875000e+01	  -1.6084480e-01	   1.5196764e-02	   7.4704166e-02	
   9.4930000e+01	  -1.5449912e-01	   1.3597444e-02	   6.2584504e-02	
   9.4985000e+01	  -1.4808642e-01	   1.2299937e-02	   5.0458675e-02	
   9.5040000e+01	  -1.4160765e-01	   1.1312118e-02	   3.8496967e-02	
   9.5095000e+01	  -1.3506815e-01	   1.0621949e-02	   2.6878761e-02	
   9.5150000e+01	  -1.2847995e-01	   1.0200618e-02	   1.5780649e-02	
   9.5205000e+01	  -1.2186336e-01	   1.0009061e-02	   5.3649876e-03	
   9.5260000e+01	  -1.1524694e-01	   1.0007359e-02	  -4.2283940e-03	
   9.5315000e+01	  -1.0866691e-01	   1.0164197e-02	  -1.2886770e-02	
   9.5370000e+01	  -1.0216707e-01	   1.0462160e-02	  -2.0526797e-02	
   9.5425000e+01	  -9.5798919e-02	   1.0896323e-02	  -2.7095000e-02	
   9.5480000e+01	  -8.9620832e-02	   1.1467873e-02	  -3.2565765e-02	
   9.5535000e+01	  -8.3695540e-02	   1.2177335e-02	  -3.6938125e-02	
