	
0   5   7
   0.0000000e+00	   3.7800007e-01	   1.8017120e-01	
   5.5000000e-02	   3.5677555e-01	   1.7284886e-01	
   1.1000000e-01	   3.3617875e-01	   1.6557755e-01	
   1.6500000e-01	   3.1653328e-01	   1.5847899e-01	
   2.2000000e-01	   2.9812085e-01	   1.5165319e-01	
   2.7500000e-01	   2.8117128e-01	   1.4517298e-01	
   3.3000000e-01	   2.6585584e-01	   1.3908054e-01	
   3.8500000e-01	   2.5228261e-01	   1.3338613e-01	
   4.4000000e-01	   2.4049335e-01	   1.2806988e-01	
   4.9500000e-01	   2.3046376e-01	   1.2308709e-01	
   5.5000000e-01	   2.2210875e-01	   1.1837631e-01	
   6.0500000e-01	   2.1529279e-01	   1.1386827e-01	
   6.6000000e-01	   2.0984396e-01	   1.0949433e-01	
   7.1500000e-01	   2.0556967e-01	   1.0519290e-01	
   7.7000000e-01	   2.0227190e-01	   1.0091328e-01	
   8.2500000e-01	   1.9975970e-01	   9.6616472e-02	
   8.8000000e-01	   1.9785786e-01	   9.2273381e-02	
   9.3500000e-01	   1.9641169e-01	   8.7862061e-02	
   9.9000000e-01	   1.9528880e-01	   8.3365692e-02	
   1.0450000e+00	   1.9437833e-01	   7.8771944e-02	
   1.1000000e+00	   1.9358870e-01	   7.4073415e-02	
   1.1550000e+00	   1.9284602e-01	   6.9268932e-02	
   1.2100000e+00	   1.9209518e-01	   6.4365354e-02	
   1.2650000e+00	   1.9130289e-01	   5.9378976e-02	
   1.3200000e+00	   1.9046004e-01	   5.4335689e-02	
   1.3750000e+00	   1.8958176e-01	   4.9269847e-02	
   1.4300000e+00	   1.8870548e-01	   4.4222230e-02	
   1.4850000e+00	   1.8788740e-01	   3.9237049e-02	
   1.5400000e+00	   1.8719702e-01	   3.4357626e-02	
   1.5950000e+00	   1.8671015e-01	   2.9621265e-02	
   1.6500000e+00	   1.8650222e-01	   2.5055190e-02	
   1.7050000e+00	   1.8664393e-01	   2.0675448e-02	
   1.7600000e+00	   1.8719933e-01	   1.6488858e-02	
   1.8150000e+00	   1.8822520e-01	   1.2496639e-02	
   1.8700000e+00	   1.8977150e-01	   8.6982074e-03	
   1.9250000e+00	   1.9188232e-01	   5.0941290e-03	
   1.9800000e+00	   1.9459629e-01	   1.6874015e-03	
   2.0350000e+00	   1.9794535e-01	  -1.5172809e-03	
   2.0900000e+00	   2.0195189e-01	  -4.5157488e-03	
   2.1450000e+00	   2.0662538e-01	  -7.3071725e-03	
   2.2000000e+00	   2.1195833e-01	  -9.8967863e-03	
   2.2550000e+00	   2.1792145e-01	  -1.2297935e-02	
   2.3100000e+00	   2.2445827e-01	  -1.4532841e-02	
   2.3650000e+00	   2.3148140e-01	  -1.6631825e-02	
   2.4200000e+00	   2.3887224e-01	  -1.8631269e-02	
   2.4750000e+00	   2.4648471e-01	  -2.0570906e-02	
   2.5300000e+00	   2.5415258e-01	  -2.2490823e-02	
   2.5850000e+00	   2.6169947e-01	  -2.4428457e-02	
   2.6400000e+00	   2.6894937e-01	  -2.6416333e-02	
   2.6950000e+00	   2.7573602e-01	  -2.8481570e-02	
   2.7500000e+00	   2.8191034e-01	  -3.0647103e-02	
   2.8050000e+00	   2.8734682e-01	  -3.2933087e-02	
   2.8600000e+00	   2.9194875e-01	  -3.5357012e-02	
   2.9150000e+00	   2.9565168e-01	  -3.7932284e-02	
   2.9700000e+00	   2.9842439e-01	  -4.0665755e-02	
   3.0250000e+00	   3.0026740e-01	  -4.3554910e-02	
   3.0800000e+00	   3.0120932e-01	  -4.6585918e-02	
   3.1350000e+00	   3.0130213e-01	  -4.9733671e-02	
   3.1900000e+00	   3.0061667e-01	  -5.2963638e-02	
   3.2450000e+00	   2.9923961e-01	  -5.6234582e-02	
   3.3000000e+00	   2.9727058e-01	  -5.9501874e-02	
   3.3550000e+00	   2.9481771e-01	  -6.2722043e-02	
   3.4100000e+00	   2.9199027e-01	  -6.5858775e-02	
   3.4650000e+00	   2.8888960e-01	  -6.8889050e-02	
   3.5200000e+00	   2.8560084e-01	  -7.1807151e-02	
   3.5750000e+00	   2.8218730e-01	  -7.4624835e-02	
   3.6300000e+00	   2.7868739e-01	  -7.7367752e-02	
   3.6850000e+00	   2.7511355e-01	  -8.0069807e-02	
   3.7400000e+00	   2.7145354e-01	  -8.2767519e-02	
   3.7950000e+00	   2.6767423e-01	  -8.5495659e-02	
   3.8500000e+00	   2.6372716e-01	  -8.8284486e-02	
   3.9050000e+00	   2.5955456e-01	  -9.1158331e-02	
   3.9600000e+00	   2.5509514e-01	  -9.4135169e-02	
   4.0150000e+00	   2.5028927e-01	  -9.7227045e-02	
   4.0700000e+00	   2.4508277e-01	  -1.0044103e-01	
   4.1250000e+00	   2.3942952e-01	  -1.0377996e-01	
   4.1800000e+00	   2.3329288e-01	  -1.0724200e-01	
   4.2350000e+00	   2.2664652e-01	  -1.1081896e-01	
   4.2900000e+00	   2.1947441e-01	  -1.1449441e-01	
   4.3450000e+00	   2.1177019e-01	  -1.1824303e-01	
   4.4000000e+00	   2.0353637e-01	  -1.2203159e-01	
   4.4550000e+00	   1.9478337e-01	  -1.2582115e-01	
   4.5100000e+00	   1.8552886e-01	  -1.2957006e-01	
   4.5650000e+00	   1.7579696e-01	  -1.3323699e-01	
   4.6200000e+00	   1.6561743e-01	  -1.3678358e-01	
   4.6750000e+00	   1.5502417e-01	  -1.4017622e-01	
   4.7300000e+00	   1.4405289e-01	  -1.4338711e-01	
   4.7850000e+00	   1.3273759e-01	  -1.4639461e-01	
   4.8400000e+00	   1.2110724e-01	  -1.4918224e-01	
   4.8950000e+00	   1.0918401e-01	  -1.5173619e-01	
   4.9500000e+00	   9.6983516e-02	  -1.5404229e-01	
   5.0050000e+00	   8.4516353e-02	  -1.5608412e-01	
   5.0600000e+00	   7.1790299e-02	  -1.5784316e-01	
   5.1150000e+00	   5.8813402e-02	  -1.5930032e-01	
   5.1700000e+00	   4.5597784e-02	  -1.6043830e-01	
   5.2250000e+00	   3.2163438e-02	  -1.6124406e-01	
   5.2800000e+00	   1.8541301e-02	  -1.6171108e-01	
   5.3350000e+00	   4.7754045e-03	  -1.6184040e-01	
   5.3900000e+00	  -9.0763992e-03	  -1.6163932e-01	
   5.4450000e+00	  -2.2944091e-02	  -1.6111778e-01	
   5.5000000e+00	  -3.6749152e-02	  -1.6028395e-01	
   5.5550000e+00	  -5.0407950e-02	  -1.5913999e-01	
   5.6100000e+00	  -6.3833077e-02	  -1.5767927e-01	
   5.6650000e+00	  -7.6933453e-02	  -1.5588625e-01	
   5.7200000e+00	  -8.9615354e-02	  -1.5373978e-01	
   5.7750000e+00	  -1.0178549e-01	  -1.5121931e-01	
   5.8300000e+00	  -1.1335535e-01	  -1.4831273e-01	
   5.8850000e+00	  -1.2424513e-01	  -1.4502328e-01	
   5.9400000e+00	  -1.3438650e-01	  -1.4137358e-01	
   5.9950000e+00	  -1.4372472e-01	  -1.3740580e-01	
   6.0500000e+00	  -1.5222127e-01	  -1.3317842e-01	
   6.1050000e+00	  -1.5985736e-01	  -1.2876092e-01	
   6.1600000e+00	  -1.6663785e-01	  -1.2422786e-01	
   6.2150000e+00	  -1.7259404e-01	  -1.1965421e-01	
   6.2700000e+00	  -1.7778368e-01	  -1.1511220e-01	
   6.3250000e+00	  -1.8228715e-01	  -1.1066903e-01	
   6.3800000e+00	  -1.8620088e-01	  -1.0638518e-01	
   6.4350000e+00	  -1.8962965e-01	  -1.0231376e-01	
   6.4900000e+00	  -1.9267888e-01	  -9.8500833e-02	
   6.5450000e+00	  -1.9544779e-01	  -9.4985940e-02	
   6.6000000e+00	  -1.9802501e-01	  -9.1802576e-02	
   6.6550000e+00	  -2.0048719e-01	  -8.8978395e-02	
   6.7100000e+00	  -2.0290030e-01	  -8.6534856e-02	
   6.7650000e+00	  -2.0532255e-01	  -8.4486269e-02	
   6.8200000e+00	  -2.0780829e-01	  -8.2838881e-02	
   6.8750000e+00	  -2.1041207e-01	  -8.1590524e-02	
   6.9300000e+00	  -2.1319124e-01	  -8.0730600e-02	
   6.9850000e+00	  -2.1620580e-01	  -8.0240082e-02	
   7.0400000e+00	  -2.1951566e-01	  -8.0092012e-02	
   7.0950000e+00	  -2.2317687e-01	  -8.0253073e-02	
   7.1500000e+00	  -2.2723777e-01	  -8.0685864e-02	
   7.2050000e+00	  -2.3173517e-01	  -8.1350782e-02	
   7.2600000e+00	  -2.3669128e-01	  -8.2207011e-02	
   7.3150000e+00	  -2.4211245e-01	  -8.3212824e-02	
   7.3700000e+00	  -2.4799049e-01	  -8.4325388e-02	
   7.4250000e+00	  -2.5430565e-01	  -8.5500124e-02	
   7.4800000e+00	  -2.6102921e-01	  -8.6689977e-02	
   7.5350000e+00	  -2.6812421e-01	  -8.7845389e-02	
   7.5900000e+00	  -2.7554395e-01	  -8.8915456e-02	
   7.6450000e+00	  -2.8322916e-01	  -8.9849766e-02	
   7.7000000e+00	  -2.9110435e-01	  -9.0600034e-02	
   7.7550000e+00	  -2.9907541e-01	  -9.1121551e-02	
   7.8100000e+00	  -3.0703046e-01	  -9.1375352e-02	
   7.8650000e+00	  -3.1484426e-01	  -9.1331023e-02	
   7.9200000e+00	  -3.2238437e-01	  -9.0968840e-02	
   7.9750000e+00	  -3.2951736e-01	  -9.0280121e-02	
   8.0300000e+00	  -3.3611476e-01	  -8.9265949e-02	
   8.0850000e+00	  -3.4205928e-01	  -8.7934959e-02	
   8.1400000e+00	  -3.4725165e-01	  -8.6301001e-02	
   8.1950000e+00	  -3.5161749e-01	  -8.4381868e-02	
   8.2500000e+00	  -3.5511345e-01	  -8.2199892e-02	
   8.3050000e+00	  -3.5773173e-01	  -7.9783866e-02	
   8.3600000e+00	  -3.5950181e-01	  -7.7170818e-02	
   8.4150000e+00	  -3.6048843e-01	  -7.4406507e-02	
   8.4700000e+00	  -3.6078630e-01	  -7.1544135e-02	
   8.5250000e+00	  -3.6051282e-01	  -6.8641013e-02	
   8.5800000e+00	  -3.5980032e-01	  -6.5753344e-02	
   8.6350000e+00	  -3.5878824e-01	  -6.2930229e-02	
   8.6900000e+00	  -3.5761549e-01	  -6.0208516e-02	
   8.7450000e+00	  -3.5641411e-01	  -5.7609667e-02	
   8.8000000e+00	  -3.5530421e-01	  -5.5138878e-02	
   8.8550000e+00	  -3.5438969e-01	  -5.2786201e-02	
   8.9100000e+00	  -3.5375465e-01	  -5.0529616e-02	
   8.9650000e+00	  -3.5346103e-01	  -4.8339775e-02	
   9.0200000e+00	  -3.5354795e-01	  -4.6184972e-02	
   9.0750000e+00	  -3.5403211e-01	  -4.4034424e-02	
   9.1300000e+00	  -3.5490941e-01	  -4.1859214e-02	
   9.1850000e+00	  -3.5615798e-01	  -3.9631557e-02	
   9.2400000e+00	  -3.5774179e-01	  -3.7323230e-02	
   9.2950000e+00	  -3.5961261e-01	  -3.4903907e-02	
   9.3500000e+00	  -3.6171042e-01	  -3.2340492e-02	
   9.4050000e+00	  -3.6396377e-01	  -2.9598243e-02	
   9.4600000e+00	  -3.6629129e-01	  -2.6643192e-02	
   9.5150000e+00	  -3.6860307e-01	  -2.3444727e-02	
   9.5700000e+00	  -3.7080090e-01	  -1.9978032e-02	
   9.6250000e+00	  -3.7277812e-01	  -1.6226843e-02	
   9.6800000e+00	  -3.7442135e-01	  -1.2186327e-02	
   9.7350000e+00	  -3.7561513e-01	  -7.8646403e-03	
   9.7900000e+00	  -3.7624889e-01	  -3.2819436e-03	
   9.8450000e+00	  -3.7622441e-01	   1.5327768e-03	
   9.9000000e+00	  -3.7546264e-01	   6.5454568e-03	
   9.9550000e+00	  -3.7390934e-01	   1.1720037e-02	
   1.0010000e+01	  -3.7153859e-01	   1.7020255e-02	
   1.0065000e+01	  -3.6835410e-01	   2.2409514e-02	
   1.0120000e+01	  -3.6438816e-01	   2.7848637e-02	
   1.0175000e+01	  -3.5969852e-01	   3.3292409e-02	
   1.0230000e+01	  -3.5436387e-01	   3.8686315e-02	
   1.0285000e+01	  -3.4847926e-01	   4.3964589e-02	
   1.0340000e+01	  -3.4215195e-01	   4.9050759e-02	
   1.0395000e+01	  -3.3549702e-01	   5.3861497e-02	
   1.0450000e+01	  -3.2863251e-01	   5.8313492e-02	
   1.0505000e+01	  -3.2167406e-01	   6.2331754e-02	
   1.0560000e+01	  -3.1472937e-01	   6.5857417e-02	
   1.0615000e+01	  -3.0789265e-01	   6.8853798e-02	
   1.0670000e+01	  -3.0123940e-01	   7.1310375e-02	
   1.0725000e+01	  -2.9482286e-01	   7.3244310e-02	
   1.0780000e+01	  -2.8867302e-01	   7.4698847e-02	
   1.0835000e+01	  -2.8279815e-01	   7.5738388e-02	
   1.0890000e+01	  -2.7718705e-01	   7.6440992e-02	
   1.0945000e+01	  -2.7181128e-01	   7.6889405e-02	
   1.1000000e+01	  -2.6662806e-01	   7.7162167e-02	
   1.1055000e+01	  -2.6158445e-01	   7.7327031e-02	
   1.1110000e+01	  -2.5662255e-01	   7.7438207e-02	
   1.1165000e+01	  -2.5168547e-01	   7.7536479e-02	
   1.1220000e+01	  -2.4672394e-01	   7.7649814e-02	
   1.1275000e+01	  -2.4170369e-01	   7.7793151e-02	
   1.1330000e+01	  -2.3661229e-01	   7.7967857e-02	
   1.1385000e+01	  -2.3146343e-01	   7.8162200e-02	
   1.1440000e+01	  -2.2629690e-01	   7.8353464e-02	
   1.1495000e+01	  -2.2117440e-01	   7.8511097e-02	
   1.1550000e+01	  -2.1617316e-01	   7.8600213e-02	
   1.1605000e+01	  -2.1137894e-01	   7.8585713e-02	
   1.1660000e+01	  -2.0687933e-01	   7.8437132e-02	
   1.1715000e+01	  -2.0275774e-01	   7.8133275e-02	
   1.1770000e+01	  -1.9908895e-01	   7.7665508e-02	
   1.1825000e+01	  -1.9593581e-01	   7.7039407e-02	
   1.1880000e+01	  -1.9334666e-01	   7.6274768e-02	
   1.1935000e+01	  -1.9135375e-01	   7.5403751e-02	
   1.1990000e+01	  -1.8997301e-01	   7.4467409e-02	
   1.2045000e+01	  -1.8920489e-01	   7.3511587e-02	
   1.2100000e+01	  -1.8903562e-01	   7.2582865e-02	
   1.2155000e+01	  -1.8943832e-01	   7.1724605e-02	
   1.2210000e+01	  -1.9037359e-01	   7.0973691e-02	
   1.2265000e+01	  -1.9178967e-01	   7.0359054e-02	
   1.2320000e+01	  -1.9362405e-01	   6.9902055e-02	
   1.2375000e+01	  -1.9580783e-01	   6.9617300e-02	
   1.2430000e+01	  -1.9827236e-01	   6.9512388e-02	
   1.2485000e+01	  -2.0095595e-01	   6.9586515e-02	
   1.2540000e+01	  -2.0380788e-01	   6.9829042e-02	
   1.2595000e+01	  -2.0678892e-01	   7.0218815e-02	
   1.2650000e+01	  -2.0987003e-01	   7.0723954e-02	
   1.2705000e+01	  -2.1303037e-01	   7.1301520e-02	
   1.2760000e+01	  -2.1625538e-01	   7.1896927e-02	
   1.2815000e+01	  -2.1953529e-01	   7.2443348e-02	
   1.2870000e+01	  -2.2286516e-01	   7.2861645e-02	
   1.2925000e+01	  -2.2624633e-01	   7.3061880e-02	
   1.2980000e+01	  -2.2968826e-01	   7.2947429e-02	
   1.3035000e+01	  -2.3320980e-01	   7.2421586e-02	
   1.3090000e+01	  -2.3683925e-01	   7.1395112e-02	
   1.3145000e+01	  -2.4061327e-01	   6.9793002e-02	
   1.3200000e+01	  -2.4457407e-01	   6.7559537e-02	
   1.3255000e+01	  -2.4876493e-01	   6.4661264e-02	
   1.3310000e+01	  -2.5322467e-01	   6.1087608e-02	
   1.3365000e+01	  -2.5798273e-01	   5.6849181e-02	
   1.3420000e+01	  -2.6305530e-01	   5.1974590e-02	
   1.3475000e+01	  -2.6844204e-01	   4.6506689e-02	
   1.3530000e+01	  -2.7412383e-01	   4.0498675e-02	
   1.3585000e+01	  -2.8006273e-01	   3.4010430e-02	
   1.3640000e+01	  -2.8620427e-01	   2.7105907e-02	
   1.3695000e+01	  -2.9248108e-01	   1.9852117e-02	
   1.3750000e+01	  -2.9881704e-01	   1.2319094e-02	
   1.3805000e+01	  -3.0513230e-01	   4.5795075e-03	
   1.3860000e+01	  -3.1134900e-01	  -3.2931584e-03	
   1.3915000e+01	  -3.1739692e-01	  -1.1227712e-02	
   1.3970000e+01	  -3.2321746e-01	  -1.9158784e-02	
   1.4025000e+01	  -3.2876488e-01	  -2.7030552e-02	
   1.4080000e+01	  -3.3400535e-01	  -3.4800870e-02	
   1.4135000e+01	  -3.3891472e-01	  -4.2445047e-02	
   1.4190000e+01	  -3.4347537e-01	  -4.9957722e-02	
   1.4245000e+01	  -3.4767269e-01	  -5.7351954e-02	
   1.4300000e+01	  -3.5149282e-01	  -6.4655392e-02	
   1.4355000e+01	  -3.5492196e-01	  -7.1903570e-02	
   1.4410000e+01	  -3.5794637e-01	  -7.9131222e-02	
   1.4465000e+01	  -3.6055230e-01	  -8.6363995e-02	
   1.4520000e+01	  -3.6272593e-01	  -9.3613065e-02	
   1.4575000e+01	  -3.6445392e-01	  -1.0087353e-01	
   1.4630000e+01	  -3.6572443e-01	  -1.0812615e-01	
   1.4685000e+01	  -3.6652890e-01	  -1.1534183e-01	
   1.4740000e+01	  -3.6686511e-01	  -1.2248802e-01	
   1.4795000e+01	  -3.6674142e-01	  -1.2953597e-01	
   1.4850000e+01	  -3.6618036e-01	  -1.3646718e-01	
   1.4905000e+01	  -3.6521948e-01	  -1.4327745e-01	
   1.4960000e+01	  -3.6390956e-01	  -1.4997771e-01	
   1.5015000e+01	  -3.6231168e-01	  -1.5659145e-01	
   1.5070000e+01	  -3.6049462e-01	  -1.6314992e-01	
   1.5125000e+01	  -3.5853317e-01	  -1.6968674e-01	
   1.5180000e+01	  -3.5650757e-01	  -1.7623375e-01	
   1.5235000e+01	  -3.5450349e-01	  -1.8281905e-01	
   1.5290000e+01	  -3.5261112e-01	  -1.8946659e-01	
   1.5345000e+01	  -3.5092209e-01	  -1.9619625e-01	
   1.5400000e+01	  -3.4952533e-01	  -2.0302398e-01	
   1.5455000e+01	  -3.4850417e-01	  -2.0996267e-01	
   1.5510000e+01	  -3.4793533e-01	  -2.1702295e-01	
   1.5565000e+01	  -3.4788839e-01	  -2.2421291e-01	
   1.5620000e+01	  -3.4842437e-01	  -2.3153646e-01	
   1.5675000e+01	  -3.4959294e-01	  -2.3899127e-01	
   1.5730000e+01	  -3.5142826e-01	  -2.4656668e-01	
   1.5785000e+01	  -3.5394416e-01	  -2.5424216e-01	
   1.5840000e+01	  -3.5712978e-01	  -2.6198653e-01	
   1.5895000e+01	  -3.6094687e-01	  -2.6975879e-01	
   1.5950000e+01	  -3.6532870e-01	  -2.7751058e-01	
   1.6005000e+01	  -3.7018052e-01	  -2.8518977e-01	
   1.6060000e+01	  -3.7538182e-01	  -2.9274435e-01	
   1.6115000e+01	  -3.8079189e-01	  -3.0012665e-01	
   1.6170000e+01	  -3.8625942e-01	  -3.0729763e-01	
   1.6225000e+01	  -3.9163458e-01	  -3.1422998e-01	
   1.6280000e+01	  -3.9678138e-01	  -3.2090869e-01	
   1.6335000e+01	  -4.0158829e-01	  -3.2732937e-01	
   1.6390000e+01	  -4.0597553e-01	  -3.3349517e-01	
   1.6445000e+01	  -4.0989803e-01	  -3.3941327e-01	
   1.6500000e+01	  -4.1334418e-01	  -3.4509142e-01	
   1.6555000e+01	  -4.1633081e-01	  -3.5053600e-01	
   1.6610000e+01	  -4.1889574e-01	  -3.5575231e-01	
   1.6665000e+01	  -4.2108946e-01	  -3.6074667e-01	
   1.6720000e+01	  -4.2296738e-01	  -3.6552874e-01	
   1.6775000e+01	  -4.2458378e-01	  -3.7011313e-01	
   1.6830000e+01	  -4.2598881e-01	  -3.7452008e-01	
   1.6885000e+01	  -4.2722905e-01	  -3.7877473e-01	
   1.6940000e+01	  -4.2834945e-01	  -3.8290437e-01	
   1.6995000e+01	  -4.2939449e-01	  -3.8693407e-01	
   1.7050000e+01	  -4.3040797e-01	  -3.9088254e-01	
   1.7105000e+01	  -4.3143226e-01	  -3.9475999e-01	
   1.7160000e+01	  -4.3250709e-01	  -3.9856819e-01	
   1.7215000e+01	  -4.3366776e-01	  -4.0230206e-01	
   1.7270000e+01	  -4.3494334e-01	  -4.0595220e-01	
   1.7325000e+01	  -4.3635441e-01	  -4.0950701e-01	
   1.7380000e+01	  -4.3790990e-01	  -4.1295346e-01	
   1.7435000e+01	  -4.3960304e-01	  -4.1627658e-01	
   1.7490000e+01	  -4.4140798e-01	  -4.1945800e-01	
   1.7545000e+01	  -4.4327935e-01	  -4.2247416e-01	
   1.7600000e+01	  -4.4515561e-01	  -4.2529437e-01	
   1.7655000e+01	  -4.4696555e-01	  -4.2787913e-01	
   1.7710000e+01	  -4.4863625e-01	  -4.3017962e-01	
   1.7765000e+01	  -4.5010057e-01	  -4.3213920e-01	
   1.7820000e+01	  -4.5130287e-01	  -4.3369718e-01	
   1.7875000e+01	  -4.5220228e-01	  -4.3479388e-01	
   1.7930000e+01	  -4.5277397e-01	  -4.3537611e-01	
   1.7985000e+01	  -4.5300991e-01	  -4.3540237e-01	
   1.8040000e+01	  -4.5291879e-01	  -4.3484703e-01	
   1.8095000e+01	  -4.5252382e-01	  -4.3370221e-01	
   1.8150000e+01	  -4.5185796e-01	  -4.3197666e-01	
   1.8205000e+01	  -4.5095867e-01	  -4.2969230e-01	
   1.8260000e+01	  -4.4986393e-01	  -4.2687904e-01	
   1.8315000e+01	  -4.4860933e-01	  -4.2356931e-01	
   1.8370000e+01	  -4.4722572e-01	  -4.1979346e-01	
   1.8425000e+01	  -4.4573688e-01	  -4.1557752e-01	
   1.8480000e+01	  -4.4415775e-01	  -4.1094360e-01	
   1.8535000e+01	  -4.4249298e-01	  -4.0591209e-01	
   1.8590000e+01	  -4.4073581e-01	  -4.0050477e-01	
   1.8645000e+01	  -4.3886779e-01	  -3.9474821e-01	
   1.8700000e+01	  -4.3686054e-01	  -3.8867652e-01	
   1.8755000e+01	  -4.3467957e-01	  -3.8233270e-01	
   1.8810000e+01	  -4.3228918e-01	  -3.7576789e-01	
   1.8865000e+01	  -4.2965733e-01	  -3.6903926e-01	
   1.8920000e+01	  -4.2676012e-01	  -3.6220806e-01	
   1.8975000e+01	  -4.2358465e-01	  -3.5533801e-01	
   1.9030000e+01	  -4.2012906e-01	  -3.4849326e-01	
   1.9085000e+01	  -4.1640039e-01	  -3.4173548e-01	
   1.9140000e+01	  -4.1241217e-01	  -3.3512180e-01	
   1.9195000e+01	  -4.0818315e-01	  -3.2870422e-01	
   1.9250000e+01	  -4.0373697e-01	  -3.2252962e-01	
   1.9305000e+01	  -3.9910207e-01	  -3.1663870e-01	
   1.9360000e+01	  -3.9431128e-01	  -3.1106359e-01	
   1.9415000e+01	  -3.8940050e-01	  -3.0582438e-01	
   1.9470000e+01	  -3.8440590e-01	  -3.0092592e-01	
   1.9525000e+01	  -3.7936021e-01	  -2.9635539e-01	
   1.9580000e+01	  -3.7428987e-01	  -2.9208214e-01	
   1.9635000e+01	  -3.6921423e-01	  -2.8806009e-01	
   1.9690000e+01	  -3.6414605e-01	  -2.8423238e-01	
   1.9745000e+01	  -3.5909167e-01	  -2.8053740e-01	
   1.9800000e+01	  -3.5405099e-01	  -2.7691545e-01	
   1.9855000e+01	  -3.4901819e-01	  -2.7331522e-01	
   1.9910000e+01	  -3.4398357e-01	  -2.6969916e-01	
   1.9965000e+01	  -3.3893594e-01	  -2.6604608e-01	
   2.0020000e+01	  -3.3386467e-01	  -2.6235052e-01	
   2.0075000e+01	  -3.2876135e-01	  -2.5861878e-01	
   2.0130000e+01	  -3.2362134e-01	  -2.5486326e-01	
   2.0185000e+01	  -3.1844571e-01	  -2.5109656e-01	
   2.0240000e+01	  -3.1324321e-01	  -2.4732703e-01	
   2.0295000e+01	  -3.0803202e-01	  -2.4355659e-01	
   2.0350000e+01	  -3.0284024e-01	  -2.3978108e-01	
   2.0405000e+01	  -2.9770422e-01	  -2.3599261e-01	
   2.0460000e+01	  -2.9266529e-01	  -2.3218307e-01	
   2.0515000e+01	  -2.8776661e-01	  -2.2834803e-01	
   2.0570000e+01	  -2.8305163e-01	  -2.2449020e-01	
   2.0625000e+01	  -2.7856327e-01	  -2.2062088e-01	
   2.0680000e+01	  -2.7434314e-01	  -2.1675902e-01	
   2.0735000e+01	  -2.7043056e-01	  -2.1292876e-01	
   2.0790000e+01	  -2.6686116e-01	  -2.0915687e-01	
   2.0845000e+01	  -2.6366456e-01	  -2.0547076e-01	
   2.0900000e+01	  -2.6086191e-01	  -2.0189718e-01	
   2.0955000e+01	  -2.5846482e-01	  -1.9846215e-01	
   2.1010000e+01	  -2.5647585e-01	  -1.9519216e-01	
   2.1065000e+01	  -2.5488894e-01	  -1.9211630e-01	
   2.1120000e+01	  -2.5368871e-01	  -1.8926848e-01	
   2.1175000e+01	  -2.5284888e-01	  -1.8668934e-01	
   2.1230000e+01	  -2.5233118e-01	  -1.8442723e-01	
   2.1285000e+01	  -2.5208588e-01	  -1.8253734e-01	
   2.1340000e+01	  -2.5205407e-01	  -1.8107821e-01	
   2.1395000e+01	  -2.5217133e-01	  -1.8010610e-01	
   2.1450000e+01	  -2.5237233e-01	  -1.7966906e-01	
   2.1505000e+01	  -2.5259613e-01	  -1.7980212e-01	
   2.1560000e+01	  -2.5279116e-01	  -1.8052402e-01	
   2.1615000e+01	  -2.5291860e-01	  -1.8183535e-01	
   2.1670000e+01	  -2.5295374e-01	  -1.8371843e-01	
   2.1725000e+01	  -2.5288558e-01	  -1.8613896e-01	
   2.1780000e+01	  -2.5271496e-01	  -1.8904874e-01	
   2.1835000e+01	  -2.5245178e-01	  -1.9238884e-01	
   2.1890000e+01	  -2.5211285e-01	  -1.9609339e-01	
   2.1945000e+01	  -2.5172121e-01	  -2.0009386e-01	
   2.2000000e+01	  -2.5130679e-01	  -2.0432218e-01	
   2.2055000e+01	  -2.5090733e-01	  -2.0871191e-01	
   2.2110000e+01	  -2.5056898e-01	  -2.1319824e-01	
   2.2165000e+01	  -2.5034637e-01	  -2.1771838e-01	
   2.2220000e+01	  -2.5030190e-01	  -2.2221277e-01	
   2.2275000e+01	  -2.5050339e-01	  -2.2662669e-01	
   2.2330000e+01	  -2.5101999e-01	  -2.3091264e-01	
   2.2385000e+01	  -2.5191731e-01	  -2.3503359e-01	
   2.2440000e+01	  -2.5325282e-01	  -2.3896685e-01	
   2.2495000e+01	  -2.5507165e-01	  -2.4270701e-01	
   2.2550000e+01	  -2.5740174e-01	  -2.4626719e-01	
   2.2605000e+01	  -2.6024862e-01	  -2.4967785e-01	
   2.2660000e+01	  -2.6359122e-01	  -2.5298278e-01	
   2.2715000e+01	  -2.6738059e-01	  -2.5623254e-01	
   2.2770000e+01	  -2.7154282e-01	  -2.5947723e-01	
   2.2825000e+01	  -2.7598653e-01	  -2.6276107e-01	
   2.2880000e+01	  -2.8061274e-01	  -2.6611936e-01	
   2.2935000e+01	  -2.8532391e-01	  -2.6957718e-01	
   2.2990000e+01	  -2.9003023e-01	  -2.7314902e-01	
   2.3045000e+01	  -2.9465358e-01	  -2.7683942e-01	
   2.3100000e+01	  -2.9913051e-01	  -2.8064444e-01	
   2.3155000e+01	  -3.0341428e-01	  -2.8455313e-01	
   2.3210000e+01	  -3.0747637e-01	  -2.8854800e-01	
   2.3265000e+01	  -3.1130754e-01	  -2.9260445e-01	
   2.3320000e+01	  -3.1491847e-01	  -2.9668969e-01	
   2.3375000e+01	  -3.1833910e-01	  -3.0076190e-01	
   2.3430000e+01	  -3.2161603e-01	  -3.0477015e-01	
   2.3485000e+01	  -3.2480891e-01	  -3.0865587e-01	
   2.3540000e+01	  -3.2798716e-01	  -3.1235686e-01	
   2.3595000e+01	  -3.3122737e-01	  -3.1581348e-01	
   2.3650000e+01	  -3.3461016e-01	  -3.1897539e-01	
   2.3705000e+01	  -3.3821595e-01	  -3.2180737e-01	
   2.3760000e+01	  -3.4212045e-01	  -3.2429314e-01	
   2.3815000e+01	  -3.4639092e-01	  -3.2643664e-01	
   2.3870000e+01	  -3.5108377e-01	  -3.2826017e-01	
   2.3925000e+01	  -3.5624342e-01	  -3.2979979e-01	
   2.3980000e+01	  -3.6190189e-01	  -3.3109878e-01	
   2.4035000e+01	  -3.6807849e-01	  -3.3220102e-01	
   2.4090000e+01	  -3.7477900e-01	  -3.3314581e-01	
   2.4145000e+01	  -3.8199444e-01	  -3.3396461e-01	
   2.4200000e+01	  -3.8970042e-01	  -3.3467998e-01	
   2.4255000e+01	  -3.9785798e-01	  -3.3530619e-01	
   2.4310000e+01	  -4.0641508e-01	  -3.3585082e-01	
   2.4365000e+01	  -4.1530770e-01	  -3.3631621e-01	
   2.4420000e+01	  -4.2446086e-01	  -3.3670046e-01	
   2.4475000e+01	  -4.3379055e-01	  -3.3699818e-01	
   2.4530000e+01	  -4.4320633e-01	  -3.3720018e-01	
   2.4585000e+01	  -4.5261355e-01	  -3.3729203e-01	
   2.4640000e+01	  -4.6191484e-01	  -3.3725182e-01	
   2.4695000e+01	  -4.7101132e-01	  -3.3704880e-01	
   2.4750000e+01	  -4.7980350e-01	  -3.3664353e-01	
   2.4805000e+01	  -4.8819141e-01	  -3.3598994e-01	
   2.4860000e+01	  -4.9607359e-01	  -3.3503908e-01	
   2.4915000e+01	  -5.0334549e-01	  -3.3374430e-01	
   2.4970000e+01	  -5.0989843e-01	  -3.3206704e-01	
   2.5025000e+01	  -5.1562051e-01	  -3.2998234e-01	
   2.5080000e+01	  -5.2040037e-01	  -3.2748339e-01	
   2.5135000e+01	  -5.2413419e-01	  -3.2458434e-01	
   2.5190000e+01	  -5.2673447e-01	  -3.2132070e-01	
   2.5245000e+01	  -5.2813815e-01	  -3.1774667e-01	
   2.5300000e+01	  -5.2831206e-01	  -3.1393021e-01	
   2.5355000e+01	  -5.2725503e-01	  -3.0994741e-01	
   2.5410000e+01	  -5.2499650e-01	  -3.0587744e-01	
   2.5465000e+01	  -5.2159189e-01	  -3.0179862e-01	
   2.5520000e+01	  -5.1711623e-01	  -2.9778570e-01	
   2.5575000e+01	  -5.1165770e-01	  -2.9390873e-01	
   2.5630000e+01	  -5.0531257e-01	  -2.9023332e-01	
   2.5685000e+01	  -4.9818139e-01	  -2.8682135e-01	
   2.5740000e+01	  -4.9036625e-01	  -2.8373118e-01	
   2.5795000e+01	  -4.8196942e-01	  -2.8101612e-01	
   2.5850000e+01	  -4.7309391e-01	  -2.7872188e-01	
   2.5905000e+01	  -4.6384495e-01	  -2.7688316e-01	
   2.5960000e+01	  -4.5433020e-01	  -2.7551931e-01	
   2.6015000e+01	  -4.4465669e-01	  -2.7462967e-01	
   2.6070000e+01	  -4.3492571e-01	  -2.7418984e-01	
   2.6125000e+01	  -4.2522802e-01	  -2.7415092e-01	
   2.6180000e+01	  -4.1564074e-01	  -2.7444188e-01	
   2.6235000e+01	  -4.0622549e-01	  -2.7497482e-01	
   2.6290000e+01	  -3.9702759e-01	  -2.7565196e-01	
   2.6345000e+01	  -3.8807630e-01	  -2.7637296e-01	
   2.6400000e+01	  -3.7938572e-01	  -2.7704058e-01	
   2.6455000e+01	  -3.7095633e-01	  -2.7756394e-01	
   2.6510000e+01	  -3.6277749e-01	  -2.7785939e-01	
   2.6565000e+01	  -3.5483114e-01	  -2.7785034e-01	
   2.6620000e+01	  -3.4709642e-01	  -2.7746699e-01	
   2.6675000e+01	  -3.3955411e-01	  -2.7664668e-01	
   2.6730000e+01	  -3.3218998e-01	  -2.7533506e-01	
   2.6785000e+01	  -3.2499646e-01	  -2.7348799e-01	
   2.6840000e+01	  -3.1797241e-01	  -2.7107402e-01	
   2.6895000e+01	  -3.1112114e-01	  -2.6807675e-01	
   2.6950000e+01	  -3.0444720e-01	  -2.6449726e-01	
   2.7005000e+01	  -2.9795356e-01	  -2.6035624e-01	
   2.7060000e+01	  -2.9164000e-01	  -2.5569512e-01	
   2.7115000e+01	  -2.8550292e-01	  -2.5057480e-01	
   2.7170000e+01	  -2.7953657e-01	  -2.4507181e-01	
   2.7225000e+01	  -2.7373572e-01	  -2.3927352e-01	
   2.7280000e+01	  -2.6809916e-01	  -2.3327372e-01	
   2.7335000e+01	  -2.6263249e-01	  -2.2716837e-01	
   2.7390000e+01	  -2.5734921e-01	  -2.2105194e-01	
   2.7445000e+01	  -2.5226982e-01	  -2.1501452e-01	
   2.7500000e+01	  -2.4741968e-01	  -2.0914027e-01	
   2.7555000e+01	  -2.4282633e-01	  -2.0350687e-01	
   2.7610000e+01	  -2.3851699e-01	  -1.9818470e-01	
   2.7665000e+01	  -2.3451702e-01	  -1.9323537e-01	
   2.7720000e+01	  -2.3084945e-01	  -1.8870889e-01	
   2.7775000e+01	  -2.2753450e-01	  -1.8463972e-01	
   2.7830000e+01	  -2.2458860e-01	  -1.8104281e-01	
   2.7885000e+01	  -2.2202382e-01	  -1.7791157e-01	
   2.7940000e+01	  -2.1984828e-01	  -1.7521890e-01	
   2.7995000e+01	  -2.1806655e-01	  -1.7292115e-01	
   2.8050000e+01	  -2.1667899e-01	  -1.7096346e-01	
   2.8105000e+01	  -2.1568044e-01	  -1.6928613e-01	
   2.8160000e+01	  -2.1505939e-01	  -1.6783142e-01	
   2.8215000e+01	  -2.1479828e-01	  -1.6654989e-01	
   2.8270000e+01	  -2.1487428e-01	  -1.6540469e-01	
   2.8325000e+01	  -2.1525958e-01	  -1.6437222e-01	
   2.8380000e+01	  -2.1592113e-01	  -1.6343925e-01	
   2.8435000e+01	  -2.1682117e-01	  -1.6259725e-01	
   2.8490000e+01	  -2.1791942e-01	  -1.6183623e-01	
   2.8545000e+01	  -2.1917679e-01	  -1.6114014e-01	
   2.8600000e+01	  -2.2056020e-01	  -1.6048537e-01	
   2.8655000e+01	  -2.2204746e-01	  -1.5984272e-01	
   2.8710000e+01	  -2.2363001e-01	  -1.5918113e-01	
   2.8765000e+01	  -2.2531229e-01	  -1.5847177e-01	
   2.8820000e+01	  -2.2710843e-01	  -1.5769175e-01	
   2.8875000e+01	  -2.2903800e-01	  -1.5682678e-01	
   2.8930000e+01	  -2.3112239e-01	  -1.5587215e-01	
   2.8985000e+01	  -2.3338204e-01	  -1.5483162e-01	
   2.9040000e+01	  -2.3583470e-01	  -1.5371497e-01	
   2.9095000e+01	  -2.3849445e-01	  -1.5253508e-01	
   2.9150000e+01	  -2.4137133e-01	  -1.5130513e-01	
   2.9205000e+01	  -2.4447139e-01	  -1.5003678e-01	
   2.9260000e+01	  -2.4779745e-01	  -1.4873982e-01	
   2.9315000e+01	  -2.5135018e-01	  -1.4742348e-01	
   2.9370000e+01	  -2.5512869e-01	  -1.4609872e-01	
   2.9425000e+01	  -2.5912972e-01	  -1.4478078e-01	
   2.9480000e+01	  -2.6334581e-01	  -1.4349095e-01	
   2.9535000e+01	  -2.6776400e-01	  -1.4225776e-01	
   2.9590000e+01	  -2.7236583e-01	  -1.4111693e-01	
   2.9645000e+01	  -2.7712817e-01	  -1.4010965e-01	
   2.9700000e+01	  -2.8202414e-01	  -1.3927906e-01	
   2.9755000e+01	  -2.8702447e-01	  -1.3866607e-01	
   2.9810000e+01	  -2.9209883e-01	  -1.3830579e-01	
   2.9865000e+01	  -2.9721581e-01	  -1.3822469e-01	
   2.9920000e+01	  -3.0234067e-01	  -1.3843792e-01	
   2.9975000e+01	  -3.0743277e-01	  -1.3894752e-01	
   3.0030000e+01	  -3.1244421e-01	  -1.3974261e-01	
   3.0085000e+01	  -3.1731947e-01	  -1.4080166e-01	
   3.0140000e+01	  -3.2199594e-01	  -1.4209610e-01	
   3.0195000e+01	  -3.2640582e-01	  -1.4359453e-01	
   3.0250000e+01	  -3.3047951e-01	  -1.4526679e-01	
   3.0305000e+01	  -3.3414927e-01	  -1.4708629e-01	
   3.0360000e+01	  -3.3735201e-01	  -1.4902933e-01	
   3.0415000e+01	  -3.4003122e-01	  -1.5107157e-01	
   3.0470000e+01	  -3.4213879e-01	  -1.5318324e-01	
   3.0525000e+01	  -3.4363657e-01	  -1.5532512e-01	
   3.0580000e+01	  -3.4449747e-01	  -1.5744677e-01	
   3.0635000e+01	  -3.4470595e-01	  -1.5948786e-01	
   3.0690000e+01	  -3.4425851e-01	  -1.6138225e-01	
   3.0745000e+01	  -3.4316424e-01	  -1.6306319e-01	
   3.0800000e+01	  -3.4144420e-01	  -1.6446794e-01	
   3.0855000e+01	  -3.3912983e-01	  -1.6554120e-01	
   3.0910000e+01	  -3.3626151e-01	  -1.6623726e-01	
   3.0965000e+01	  -3.3288883e-01	  -1.6652071e-01	
   3.1020000e+01	  -3.2907235e-01	  -1.6636528e-01	
   3.1075000e+01	  -3.2488549e-01	  -1.6575116e-01	
   3.1130000e+01	  -3.2041565e-01	  -1.6466203e-01	
   3.1185000e+01	  -3.1576415e-01	  -1.6308326e-01	
   3.1240000e+01	  -3.1104595e-01	  -1.6100168e-01	
   3.1295000e+01	  -3.0638919e-01	  -1.5840722e-01	
   3.1350000e+01	  -3.0193390e-01	  -1.5529655e-01	
   3.1405000e+01	  -2.9782811e-01	  -1.5167794e-01	
   3.1460000e+01	  -2.9422016e-01	  -1.4757583e-01	
   3.1515000e+01	  -2.9124814e-01	  -1.4303364e-01	
   3.1570000e+01	  -2.8902936e-01	  -1.3811493e-01	
   3.1625000e+01	  -2.8765261e-01	  -1.3290322e-01	
   3.1680000e+01	  -2.8717448e-01	  -1.2750018e-01	
   3.1735000e+01	  -2.8761935e-01	  -1.2202128e-01	
   3.1790000e+01	  -2.8898190e-01	  -1.1658992e-01	
   3.1845000e+01	  -2.9123034e-01	  -1.1133128e-01	
   3.1900000e+01	  -2.9430862e-01	  -1.0636667e-01	
   3.1955000e+01	  -2.9813734e-01	  -1.0180793e-01	
   3.2010000e+01	  -3.0261431e-01	  -9.7752589e-02	
   3.2065000e+01	  -3.0761632e-01	  -9.4280531e-02	
   3.2120000e+01	  -3.1300300e-01	  -9.1452794e-02	
   3.2175000e+01	  -3.1862227e-01	  -8.9311833e-02	
   3.2230000e+01	  -3.2431662e-01	  -8.7882529e-02	
   3.2285000e+01	  -3.2993007e-01	  -8.7173309e-02	
   3.2340000e+01	  -3.3531423e-01	  -8.7176478e-02	
   3.2395000e+01	  -3.4033207e-01	  -8.7867056e-02	
   3.2450000e+01	  -3.4485916e-01	  -8.9200783e-02	
   3.2505000e+01	  -3.4878402e-01	  -9.1113061e-02	
   3.2560000e+01	  -3.5200921e-01	  -9.3519903e-02	
   3.2615000e+01	  -3.5445321e-01	  -9.6320419e-02	
   3.2670000e+01	  -3.5605291e-01	  -9.9400317e-02	
   3.2725000e+01	  -3.5676513e-01	  -1.0263662e-01	
   3.2780000e+01	  -3.5656611e-01	  -1.0590369e-01	
   3.2835000e+01	  -3.5544881e-01	  -1.0907979e-01	
   3.2890000e+01	  -3.5341925e-01	  -1.1205294e-01	
   3.2945000e+01	  -3.5049366e-01	  -1.1472542e-01	
   3.3000000e+01	  -3.4669735e-01	  -1.1701578e-01	
   3.3055000e+01	  -3.4206433e-01	  -1.1885806e-01	
   3.3110000e+01	  -3.3663620e-01	  -1.2019856e-01	
   3.3165000e+01	  -3.3046004e-01	  -1.2099253e-01	
   3.3220000e+01	  -3.2358553e-01	  -1.2120183e-01	
   3.3275000e+01	  -3.1606144e-01	  -1.2079374e-01	
   3.3330000e+01	  -3.0793178e-01	  -1.1973994e-01	
   3.3385000e+01	  -2.9923230e-01	  -1.1801621e-01	
   3.3440000e+01	  -2.8998802e-01	  -1.1560375e-01	
   3.3495000e+01	  -2.8021291e-01	  -1.1249215e-01	
   3.3550000e+01	  -2.6991178e-01	  -1.0868249e-01	
   3.3605000e+01	  -2.5908459e-01	  -1.0418924e-01	
   3.3660000e+01	  -2.4773304e-01	  -9.9040586e-02	
   3.3715000e+01	  -2.3586891e-01	  -9.3277967e-02	
   3.3770000e+01	  -2.2352191e-01	  -8.6955006e-02	
   3.3825000e+01	  -2.1074462e-01	  -8.0136192e-02	
   3.3880000e+01	  -1.9761346e-01	  -7.2896067e-02	
   3.3935000e+01	  -1.8422610e-01	  -6.5319068e-02	
   3.3990000e+01	  -1.7069612e-01	  -5.7499335e-02	
   3.4045000e+01	  -1.5714642e-01	  -4.9540074e-02	
   3.4100000e+01	  -1.4370215e-01	  -4.1552640e-02	
   3.4155000e+01	  -1.3048386e-01	  -3.3654909e-02	
   3.4210000e+01	  -1.1760118e-01	  -2.5967747e-02	
   3.4265000e+01	  -1.0514814e-01	  -1.8609100e-02	
   3.4320000e+01	  -9.3201106e-02	  -1.1687129e-02	
   3.4375000e+01	  -8.1819445e-02	  -5.2944269e-03	
   3.4430000e+01	  -7.1048107e-02	   4.9555302e-04	
   3.4485000e+01	  -6.0920091e-02	   5.6296381e-03	
   3.4540000e+01	  -5.1457284e-02	   1.0073883e-02	
   3.4595000e+01	  -4.2669335e-02	   1.3811282e-02	
   3.4650000e+01	  -3.4551119e-02	   1.6839774e-02	
   3.4705000e+01	  -2.7079603e-02	   1.9171440e-02	
   3.4760000e+01	  -2.0211116e-02	   2.0832465e-02	
   3.4815000e+01	  -1.3880172e-02	   2.1863009e-02	
   3.4870000e+01	  -8.0002989e-03	   2.2316930e-02	
   3.4925000e+01	  -2.4658543e-03	   2.2261674e-02	
   3.4980000e+01	   2.8465962e-03	   2.1777914e-02	
   3.5035000e+01	   8.0771838e-03	   2.0958007e-02	
   3.5090000e+01	   1.3380618e-02	   1.9903260e-02	
   3.5145000e+01	   1.8922547e-02	   1.8720967e-02	
   3.5200000e+01	   2.4874735e-02	   1.7521493e-02	
   3.5255000e+01	   3.1408895e-02	   1.6414368e-02	
   3.5310000e+01	   3.8688593e-02	   1.5502796e-02	
   3.5365000e+01	   4.6859402e-02	   1.4878020e-02	
   3.5420000e+01	   5.6038683e-02	   1.4615730e-02	
   3.5475000e+01	   6.6306806e-02	   1.4775155e-02	
   3.5530000e+01	   7.7701110e-02	   1.5399677e-02	
   3.5585000e+01	   9.0213513e-02	   1.6517704e-02	
   3.5640000e+01	   1.0379248e-01	   1.8143556e-02	
   3.5695000e+01	   1.1834888e-01	   2.0278580e-02	
   3.5750000e+01	   1.3376355e-01	   2.2912449e-02	
   3.5805000e+01	   1.4989463e-01	   2.6024425e-02	
   3.5860000e+01	   1.6658423e-01	   2.9584293e-02	
   3.5915000e+01	   1.8366447e-01	   3.3552655e-02	
   3.5970000e+01	   2.0096271e-01	   3.7880653e-02	
   3.6025000e+01	   2.1830583e-01	   4.2509969e-02	
   3.6080000e+01	   2.3552412e-01	   4.7374418e-02	
   3.6135000e+01	   2.5245493e-01	   5.2403554e-02	
   3.6190000e+01	   2.6894526e-01	   5.7527300e-02	
   3.6245000e+01	   2.8485292e-01	   6.2680457e-02	
   3.6300000e+01	   3.0004738e-01	   6.7806744e-02	
   3.6355000e+01	   3.1441177e-01	   7.2862013e-02	
   3.6410000e+01	   3.2784630e-01	   7.7815738e-02	
   3.6465000e+01	   3.4027262e-01	   8.2650288e-02	
   3.6520000e+01	   3.5163773e-01	   8.7358343e-02	
   3.6575000e+01	   3.6191606e-01	   9.1938832e-02	
   3.6630000e+01	   3.7110804e-01	   9.6391845e-02	
   3.6685000e+01	   3.7923549e-01	   1.0071390e-01	
   3.6740000e+01	   3.8633511e-01	   1.0489520e-01	
   3.6795000e+01	   3.9245206e-01	   1.0891901e-01	
   3.6850000e+01	   3.9763447e-01	   1.1276216e-01	
   3.6905000e+01	   4.0192971e-01	   1.1639592e-01	
   3.6960000e+01	   4.0538296e-01	   1.1978763e-01	
   3.7015000e+01	   4.0803823e-01	   1.2290297e-01	
   3.7070000e+01	   4.0994064e-01	   1.2570792e-01	
   3.7125000e+01	   4.1113847e-01	   1.2816958e-01	
   3.7180000e+01	   4.1168373e-01	   1.3025577e-01	
   3.7235000e+01	   4.1163246e-01	   1.3193420e-01	
   3.7290000e+01	   4.1104532e-01	   1.3317189e-01	
   3.7345000e+01	   4.0998787e-01	   1.3393521e-01	
   3.7400000e+01	   4.0852915e-01	   1.3419095e-01	
   3.7455000e+01	   4.0673888e-01	   1.3390950e-01	
   3.7510000e+01	   4.0468479e-01	   1.3307031e-01	
   3.7565000e+01	   4.0243011e-01	   1.3166789e-01	
   3.7620000e+01	   4.0003114e-01	   1.2971620e-01	
   3.7675000e+01	   3.9753470e-01	   1.2724984e-01	
   3.7730000e+01	   3.9497615e-01	   1.2432196e-01	
   3.7785000e+01	   3.9237795e-01	   1.2099925e-01	
   3.7840000e+01	   3.8974862e-01	   1.1735502e-01	
   3.7895000e+01	   3.8708246e-01	   1.1346224e-01	
   3.7950000e+01	   3.8436020e-01	   1.0938818e-01	
   3.8005000e+01	   3.8154921e-01	   1.0519079e-01	
   3.8060000e+01	   3.7860306e-01	   1.0091722e-01	
   3.8115000e+01	   3.7546245e-01	   9.6605096e-02	
   3.8170000e+01	   3.7205935e-01	   9.2286347e-02	
   3.8225000e+01	   3.6832370e-01	   8.7991771e-02	
   3.8280000e+01	   3.6419085e-01	   8.3754842e-02	
   3.8335000e+01	   3.5960878e-01	   7.9614613e-02	
   3.8390000e+01	   3.5454430e-01	   7.5617311e-02	
   3.8445000e+01	   3.4898705e-01	   7.1815645e-02	
   3.8500000e+01	   3.4295121e-01	   6.8265878e-02	
   3.8555000e+01	   3.3647542e-01	   6.5024218e-02	
   3.8610000e+01	   3.2962169e-01	   6.2144066e-02	
   3.8665000e+01	   3.2247283e-01	   5.9674401e-02	
   3.8720000e+01	   3.1512830e-01	   5.7658614e-02	
   3.8775000e+01	   3.0769814e-01	   5.6133177e-02	
   3.8830000e+01	   3.0029519e-01	   5.5125862e-02	
   3.8885000e+01	   2.9302589e-01	   5.4653549e-02	
   3.8940000e+01	   2.8598094e-01	   5.4720021e-02	
   3.8995000e+01	   2.7922781e-01	   5.5314452e-02	
   3.9050000e+01	   2.7280660e-01	   5.6411045e-02	
   3.9105000e+01	   2.6672933e-01	   5.7969313e-02	
   3.9160000e+01	   2.6098178e-01	   5.9934133e-02	
   3.9215000e+01	   2.5552744e-01	   6.2235707e-02	
   3.9270000e+01	   2.5031355e-01	   6.4790824e-02	
   3.9325000e+01	   2.4527809e-01	   6.7506651e-02	
   3.9380000e+01	   2.4035613e-01	   7.0286933e-02	
   3.9435000e+01	   2.3548500e-01	   7.3039459e-02	
   3.9490000e+01	   2.3060872e-01	   7.5683371e-02	
   3.9545000e+01	   2.2568175e-01	   7.8154969e-02	
   3.9600000e+01	   2.2067151e-01	   8.0410903e-02	
   3.9655000e+01	   2.1556002e-01	   8.2428512e-02	
   3.9710000e+01	   2.1034490e-01	   8.4204244e-02	
   3.9765000e+01	   2.0504043e-01	   8.5751279e-02	
   3.9820000e+01	   1.9967804e-01	   8.7096496e-02	
   3.9875000e+01	   1.9430447e-01	   8.8276347e-02	
   3.9930000e+01	   1.8897687e-01	   8.9332097e-02	
   3.9985000e+01	   1.8375603e-01	   9.0305918e-02	
   4.0040000e+01	   1.7869933e-01	   9.1239014e-02	
   4.0095000e+01	   1.7385407e-01	   9.2171601e-02	
   4.0150000e+01	   1.6925241e-01	   9.3143599e-02	
   4.0205000e+01	   1.6491025e-01	   9.4195126e-02	
   4.0260000e+01	   1.6083071e-01	   9.5366270e-02	
   4.0315000e+01	   1.5701057e-01	   9.6695633e-02	
   4.0370000e+01	   1.5344620e-01	   9.8217542e-02	
   4.0425000e+01	   1.5013734e-01	   9.9958552e-02	
   4.0480000e+01	   1.4708903e-01	   1.0193405e-01	
   4.0535000e+01	   1.4431263e-01	   1.0414535e-01	
   4.0590000e+01	   1.4182611e-01	   1.0657772e-01	
   4.0645000e+01	   1.3965266e-01	   1.0920036e-01	
   4.0700000e+01	   1.3781678e-01	   1.1196893e-01	
   4.0755000e+01	   1.3633802e-01	   1.1483008e-01	
   4.0810000e+01	   1.3522443e-01	   1.1772651e-01	
   4.0865000e+01	   1.3446763e-01	   1.2060142e-01	
   4.0920000e+01	   1.3404082e-01	   1.2340154e-01	
   4.0975000e+01	   1.3389881e-01	   1.2607824e-01	
   4.1030000e+01	   1.3397960e-01	   1.2858666e-01	
   4.1085000e+01	   1.3420743e-01	   1.3088356e-01	
   4.1140000e+01	   1.3449707e-01	   1.3292476e-01	
   4.1195000e+01	   1.3475904e-01	   1.3466253e-01	
   4.1250000e+01	   1.3490512e-01	   1.3604362e-01	
   4.1305000e+01	   1.3485400e-01	   1.3700900e-01	
   4.1360000e+01	   1.3453667e-01	   1.3749629e-01	
   4.1415000e+01	   1.3390069e-01	   1.3744509e-01	
   4.1470000e+01	   1.3291175e-01	   1.3680409e-01	
   4.1525000e+01	   1.3155205e-01	   1.3553800e-01	
   4.1580000e+01	   1.2981660e-01	   1.3363298e-01	
   4.1635000e+01	   1.2770968e-01	   1.3110012e-01	
   4.1690000e+01	   1.2524289e-01	   1.2797709e-01	
   4.1745000e+01	   1.2243553e-01	   1.2432800e-01	
   4.1800000e+01	   1.1931732e-01	   1.2024138e-01	
   4.1855000e+01	   1.1593235e-01	   1.1582587e-01	
   4.1910000e+01	   1.1234171e-01	   1.1120352e-01	
   4.1965000e+01	   1.0862253e-01	   1.0650121e-01	
   4.2020000e+01	   1.0486318e-01	   1.0184263e-01	
   4.2075000e+01	   1.0115543e-01	   9.7342717e-02	
   4.2130000e+01	   9.7584626e-02	   9.3104562e-02	
   4.2185000e+01	   9.4219595e-02	   8.9217517e-02	
   4.2240000e+01	   9.1104626e-02	   8.5755788e-02	
   4.2295000e+01	   8.8254777e-02	   8.2777093e-02	
   4.2350000e+01	   8.5654467e-02	   8.0321383e-02	
   4.2405000e+01	   8.3258878e-02	   7.8409856e-02	
   4.2460000e+01	   8.0997916e-02	   7.7044553e-02	
   4.2515000e+01	   7.8782532e-02	   7.6208711e-02	
   4.2570000e+01	   7.6512771e-02	   7.5868049e-02	
   4.2625000e+01	   7.4086019e-02	   7.5973217e-02	
   4.2680000e+01	   7.1403816e-02	   7.6463801e-02	
   4.2735000e+01	   6.8376714e-02	   7.7273980e-02	
   4.2790000e+01	   6.4927716e-02	   7.8338878e-02	
   4.2845000e+01	   6.0994460e-02	   7.9599900e-02	
   4.2900000e+01	   5.6529914e-02	   8.1008180e-02	
   4.2955000e+01	   5.1501874e-02	   8.2526327e-02	
   4.3010000e+01	   4.5891810e-02	   8.4128603e-02	
   4.3065000e+01	   3.9693194e-02	   8.5799233e-02	
   4.3120000e+01	   3.2909632e-02	   8.7529132e-02	
   4.3175000e+01	   2.5553871e-02	   8.9312192e-02	
   4.3230000e+01	   1.7648466e-02	   9.1142396e-02	
   4.3285000e+01	   9.2272822e-03	   9.3012552e-02	
   4.3340000e+01	   3.3623603e-04	   9.4915065e-02	
   4.3395000e+01	  -8.9672259e-03	   9.6844706e-02	
   4.3450000e+01	  -1.8615258e-02	   9.8802284e-02	
   4.3505000e+01	  -2.8531098e-02	   1.0079746e-01	
   4.3560000e+01	  -3.8631151e-02	   1.0284956e-01	
   4.3615000e+01	  -4.8827377e-02	   1.0498670e-01	
   4.3670000e+01	  -5.9029122e-02	   1.0724374e-01	
   4.3725000e+01	  -6.9144111e-02	   1.0965874e-01	
   4.3780000e+01	  -7.9078845e-02	   1.1226779e-01	
   4.3835000e+01	  -8.8738473e-02	   1.1509901e-01	
   4.3890000e+01	  -9.8026363e-02	   1.1816761e-01	
   4.3945000e+01	  -1.0684442e-01	   1.2147342e-01	
   4.4000000e+01	  -1.1509505e-01	   1.2500226e-01	
   4.4055000e+01	  -1.2268447e-01	   1.2873093e-01	
   4.4110000e+01	  -1.2952649e-01	   1.3263399e-01	
   4.4165000e+01	  -1.3554608e-01	   1.3668941e-01	
   4.4220000e+01	  -1.4068316e-01	   1.4088079e-01	
   4.4275000e+01	  -1.4489660e-01	   1.4519621e-01	
   4.4330000e+01	  -1.4816755e-01	   1.4962507e-01	
   4.4385000e+01	  -1.5050022e-01	   1.5415485e-01	
   4.4440000e+01	  -1.5191960e-01	   1.5876798e-01	
   4.4495000e+01	  -1.5246744e-01	   1.6343945e-01	
   4.4550000e+01	  -1.5219786e-01	   1.6813561e-01	
   4.4605000e+01	  -1.5117335e-01	   1.7281500e-01	
   4.4660000e+01	  -1.4946160e-01	   1.7743092e-01	
   4.4715000e+01	  -1.4713341e-01	   1.8193465e-01	
   4.4770000e+01	  -1.4426187e-01	   1.8627849e-01	
   4.4825000e+01	  -1.4092151e-01	   1.9041791e-01	
   4.4880000e+01	  -1.3718716e-01	   1.9431256e-01	
   4.4935000e+01	  -1.3313269e-01	   1.9792599e-01	
   4.4990000e+01	  -1.2882977e-01	   2.0122426e-01	
   4.5045000e+01	  -1.2434646e-01	   2.0417335e-01	
   4.5100000e+01	  -1.1974593e-01	   2.0673585e-01	
   4.5155000e+01	  -1.1508528e-01	   2.0886862e-01	
   4.5210000e+01	  -1.1041465e-01	   2.1052298e-01	
   4.5265000e+01	  -1.0577691e-01	   2.1164779e-01	
   4.5320000e+01	  -1.0120873e-01	   2.1219500e-01	
   4.5375000e+01	  -9.6742773e-02	   2.1212662e-01	
   4.5430000e+01	  -9.2409769e-02	   2.1142182e-01	
   4.5485000e+01	  -8.8239287e-02	   2.1008261e-01	
   4.5540000e+01	  -8.4259458e-02	   2.0813717e-01	
   4.5595000e+01	  -8.0496543e-02	   2.0564002e-01	
   4.5650000e+01	  -7.6974758e-02	   2.0266931e-01	
   4.5705000e+01	  -7.3715779e-02	   1.9932188e-01	
   4.5760000e+01	  -7.0737159e-02	   1.9570684e-01	
   4.5815000e+01	  -6.8049663e-02	   1.9193840e-01	
   4.5870000e+01	  -6.5653742e-02	   1.8812898e-01	
   4.5925000e+01	  -6.3535103e-02	   1.8438378e-01	
   4.5980000e+01	  -6.1660351e-02	   1.8079722e-01	
   4.6035000e+01	  -5.9974641e-02	   1.7745079e-01	
   4.6090000e+01	  -5.8402111e-02	   1.7441153e-01	
   4.6145000e+01	  -5.6848971e-02	   1.7173127e-01	
   4.6200000e+01	  -5.5209478e-02	   1.6944767e-01	
   4.6255000e+01	  -5.3373529e-02	   1.6758751e-01	
   4.6310000e+01	  -5.1232350e-02	   1.6617119e-01	
   4.6365000e+01	  -4.8681010e-02	   1.6521608e-01	
   4.6420000e+01	  -4.5620279e-02	   1.6473700e-01	
   4.6475000e+01	  -4.1960424e-02	   1.6474382e-01	
   4.6530000e+01	  -3.7627301e-02	   1.6523740e-01	
   4.6585000e+01	  -3.2569480e-02	   1.6620606e-01	
   4.6640000e+01	  -2.6764392e-02	   1.6762401e-01	
   4.6695000e+01	  -2.0221695e-02	   1.6945174e-01	
   4.6750000e+01	  -1.2983090e-02	   1.7163815e-01	
   4.6805000e+01	  -5.1183211e-03	   1.7412370e-01	
   4.6860000e+01	   3.2821517e-03	   1.7684411e-01	
   4.6915000e+01	   1.2115861e-02	   1.7973340e-01	
   4.6970000e+01	   2.1275898e-02	   1.8272573e-01	
   4.7025000e+01	   3.0656098e-02	   1.8575587e-01	
   4.7080000e+01	   4.0153809e-02	   1.8875922e-01	
   4.7135000e+01	   4.9670123e-02	   1.9167203e-01	
   4.7190000e+01	   5.9107400e-02	   1.9443283e-01	
   4.7245000e+01	   6.8364899e-02	   1.9698536e-01	
   4.7300000e+01	   7.7334391e-02	   1.9928239e-01	
   4.7355000e+01	   8.5897171e-02	   2.0128913e-01	
   4.7410000e+01	   9.3922915e-02	   2.0298514e-01	
   4.7465000e+01	   1.0127104e-01	   2.0436526e-01	
   4.7520000e+01	   1.0779505e-01	   2.0544056e-01	
   4.7575000e+01	   1.1334817e-01	   2.0623902e-01	
   4.7630000e+01	   1.1778723e-01	   2.0680445e-01	
   4.7685000e+01	   1.2097379e-01	   2.0719346e-01	
   4.7740000e+01	   1.2277367e-01	   2.0747128e-01	
   4.7795000e+01	   1.2305600e-01	   2.0770740e-01	
   4.7850000e+01	   1.2169246e-01	   2.0797140e-01	
   4.7905000e+01	   1.1855846e-01	   2.0832986e-01	
   4.7960000e+01	   1.1353853e-01	   2.0884497e-01	
   4.8015000e+01	   1.0653642e-01	   2.0957393e-01	
   4.8070000e+01	   9.7489625e-02	   2.1056764e-01	
   4.8125000e+01	   8.6386954e-02	   2.1186760e-01	
   4.8180000e+01	   7.3285829e-02	   2.1350244e-01	
   4.8235000e+01	   5.8323778e-02	   2.1548586e-01	
   4.8290000e+01	   4.1720707e-02	   2.1781745e-01	
   4.8345000e+01	   2.3772755e-02	   2.2048502e-01	
   4.8400000e+01	   4.8406367e-03	   2.2346727e-01	
   4.8455000e+01	  -1.4664654e-02	   2.2673668e-01	
   4.8510000e+01	  -3.4296811e-02	   2.3026308e-01	
   4.8565000e+01	  -5.3589630e-02	   2.3401727e-01	
   4.8620000e+01	  -7.2073391e-02	   2.3797335e-01	
   4.8675000e+01	  -8.9292051e-02	   2.4210873e-01	
   4.8730000e+01	  -1.0482107e-01	   2.4640095e-01	
   4.8785000e+01	  -1.1828695e-01	   2.5082157e-01	
   4.8840000e+01	  -1.2938998e-01	   2.5532947e-01	
   4.8895000e+01	  -1.3792839e-01	   2.5986599e-01	
   4.8950000e+01	  -1.4381762e-01	   2.6435314e-01	
   4.9005000e+01	  -1.4709653e-01	   2.6869348e-01	
   4.9060000e+01	  -1.4791812e-01	   2.7277069e-01	
   4.9115000e+01	  -1.4653008e-01	   2.7645139e-01	
   4.9170000e+01	  -1.4325303e-01	   2.7958930e-01	
   4.9225000e+01	  -1.3846069e-01	   2.8203187e-01	
   4.9280000e+01	  -1.3256185e-01	   2.8362838e-01	
   4.9335000e+01	  -1.2598290e-01	   2.8423856e-01	
   4.9390000e+01	  -1.1915047e-01	   2.8374110e-01	
   4.9445000e+01	  -1.1247520e-01	   2.8204073e-01	
   4.9500000e+01	  -1.0633828e-01	   2.7907285e-01	
   4.9555000e+01	  -1.0108152e-01	   2.7480550e-01	
   4.9610000e+01	  -9.7000841e-02	   2.6923950e-01	
   4.9665000e+01	  -9.4340909e-02	   2.6240728e-01	
   4.9720000e+01	  -9.3288047e-02	   2.5437002e-01	
   4.9775000e+01	  -9.3961566e-02	   2.4521359e-01	
   4.9830000e+01	  -9.6406814e-02	   2.3504475e-01	
   4.9885000e+01	  -1.0059334e-01	   2.2398917e-01	
   4.9940000e+01	  -1.0641960e-01	   2.1219055e-01	
   4.9995000e+01	  -1.1372310e-01	   1.9980969e-01	
   5.0050000e+01	  -1.2229353e-01	   1.8702247e-01	
   5.0105000e+01	  -1.3188671e-01	   1.7401613e-01	
   5.0160000e+01	  -1.4223899e-01	   1.6098337e-01	
   5.0215000e+01	  -1.5308142e-01	   1.4811514e-01	
   5.0270000e+01	  -1.6415175e-01	   1.3559371e-01	
   5.0325000e+01	  -1.7520279e-01	   1.2358676e-01	
   5.0380000e+01	  -1.8600816e-01	   1.1224217e-01	
   5.0435000e+01	  -1.9636624e-01	   1.0168336e-01	
   5.0490000e+01	  -2.0610219e-01	   9.2006718e-02	
   5.0545000e+01	  -2.1506866e-01	   8.3282056e-02	
   5.0600000e+01	  -2.2314709e-01	   7.5555654e-02	
   5.0655000e+01	  -2.3024981e-01	   6.8854707e-02	
   5.0710000e+01	  -2.3632099e-01	   6.3192428e-02	
   5.0765000e+01	  -2.4133611e-01	   5.8572885e-02	
   5.0820000e+01	  -2.4530077e-01	   5.4994084e-02	
   5.0875000e+01	  -2.4824950e-01	   5.2448613e-02	
   5.0930000e+01	  -2.5024376e-01	   5.0922650e-02	
   5.0985000e+01	  -2.5136838e-01	   5.0394650e-02	
   5.1040000e+01	  -2.5172658e-01	   5.0834540e-02	
   5.1095000e+01	  -2.5143452e-01	   5.2204115e-02	
   5.1150000e+01	  -2.5061614e-01	   5.4458864e-02	
   5.1205000e+01	  -2.4939860e-01	   5.7550338e-02	
   5.1260000e+01	  -2.4790885e-01	   6.1427306e-02	
   5.1315000e+01	  -2.4627169e-01	   6.6034540e-02	
   5.1370000e+01	  -2.4460854e-01	   7.1309828e-02	
   5.1425000e+01	  -2.4303493e-01	   7.7180885e-02	
   5.1480000e+01	  -2.4165586e-01	   8.3563167e-02	
   5.1535000e+01	  -2.4055967e-01	   9.0358378e-02	
   5.1590000e+01	  -2.3981146e-01	   9.7453487e-02	
   5.1645000e+01	  -2.3944697e-01	   1.0472102e-01	
   5.1700000e+01	  -2.3946841e-01	   1.1202151e-01	
   5.1755000e+01	  -2.3984345e-01	   1.1920839e-01	
   5.1810000e+01	  -2.4050719e-01	   1.2613514e-01	
   5.1865000e+01	  -2.4136566e-01	   1.3266362e-01	
   5.1920000e+01	  -2.4230034e-01	   1.3867175e-01	
   5.1975000e+01	  -2.4317322e-01	   1.4405840e-01	
   5.2030000e+01	  -2.4383172e-01	   1.4874542e-01	
   5.2085000e+01	  -2.4411223e-01	   1.5267782e-01	
   5.2140000e+01	  -2.4384292e-01	   1.5582256e-01	
   5.2195000e+01	  -2.4284697e-01	   1.5816566e-01	
   5.2250000e+01	  -2.4094608e-01	   1.5970766e-01	
   5.2305000e+01	  -2.3796364e-01	   1.6045889e-01	
   5.2360000e+01	  -2.3372809e-01	   1.6043586e-01	
   5.2415000e+01	  -2.2807767e-01	   1.5965985e-01	
   5.2470000e+01	  -2.2086658e-01	   1.5815811e-01	
   5.2525000e+01	  -2.1197169e-01	   1.5596699e-01	
   5.2580000e+01	  -2.0129931e-01	   1.5313521e-01	
   5.2635000e+01	  -1.8879270e-01	   1.4972497e-01	
   5.2690000e+01	  -1.7443994e-01	   1.4581064e-01	
   5.2745000e+01	  -1.5828154e-01	   1.4147569e-01	
   5.2800000e+01	  -1.4041551e-01	   1.3680925e-01	
   5.2855000e+01	  -1.2099920e-01	   1.3190262e-01	
   5.2910000e+01	  -1.0024778e-01	   1.2684524e-01	
   5.2965000e+01	  -7.8430013e-02	   1.2172045e-01	
   5.3020000e+01	  -5.5861051e-02	   1.1660237e-01	
   5.3075000e+01	  -3.2892112e-02	   1.1155498e-01	
   5.3130000e+01	  -9.8976016e-03	   1.0663325e-01	
   5.3185000e+01	   1.2738851e-02	   1.0188548e-01	
   5.3240000e+01	   3.4637901e-02	   9.7355880e-02	
   5.3295000e+01	   5.5436360e-02	   9.3086899e-02	
   5.3350000e+01	   7.4796724e-02	   8.9120476e-02	
   5.3405000e+01	   9.2414483e-02	   8.5497998e-02	
   5.3460000e+01	   1.0802424e-01	   8.2259339e-02	
   5.3515000e+01	   1.2140552e-01	   7.9441237e-02	
   5.3570000e+01	   1.3238834e-01	   7.7075113e-02	
   5.3625000e+01	   1.4085775e-01	   7.5184803e-02	
   5.3680000e+01	   1.4675693e-01	   7.3784865e-02	
   5.3735000e+01	   1.5008756e-01	   7.2879770e-02	
   5.3790000e+01	   1.5090682e-01	   7.2463842e-02	
   5.3845000e+01	   1.4932168e-01	   7.2522007e-02	
   5.3900000e+01	   1.4548183e-01	   7.3031592e-02	
   5.3955000e+01	   1.3957275e-01	   7.3964641e-02	
   5.4010000e+01	   1.3180857e-01	   7.5289439e-02	
   5.4065000e+01	   1.2242457e-01	   7.6970348e-02	
   5.4120000e+01	   1.1166996e-01	   7.8966654e-02	
   5.4175000e+01	   9.9802874e-02	   8.1231826e-02	
   5.4230000e+01	   8.7087581e-02	   8.3713626e-02	
   5.4285000e+01	   7.3792024e-02	   8.6354704e-02	
   5.4340000e+01	   6.0184010e-02	   8.9093825e-02	
   5.4395000e+01	   4.6526119e-02	   9.1868336e-02	
   5.4450000e+01	   3.3070022e-02	   9.4617616e-02	
   5.4505000e+01	   2.0050956e-02	   9.7286486e-02	
   5.4560000e+01	   7.6834926e-03	   9.9828201e-02	
   5.4615000e+01	  -3.8401574e-03	   1.0220688e-01	
   5.4670000e+01	  -1.4349309e-02	   1.0439826e-01	
   5.4725000e+01	  -2.3692836e-02	   1.0638749e-01	
   5.4780000e+01	  -3.1737408e-02	   1.0816427e-01	
   5.4835000e+01	  -3.8366466e-02	   1.0971758e-01	
   5.4890000e+01	  -4.3480289e-02	   1.1103190e-01	
   5.4945000e+01	  -4.6997455e-02	   1.1208576e-01	
   5.5000000e+01	  -4.8857328e-02	   1.1285288e-01	
   5.5055000e+01	  -4.9022730e-02	   1.1330550e-01	
   5.5110000e+01	  -4.7482098e-02	   1.1341860e-01	
   5.5165000e+01	  -4.4250676e-02	   1.1317375e-01	
   5.5220000e+01	  -3.9370286e-02	   1.1256209e-01	
   5.5275000e+01	  -3.2907614e-02	   1.1158664e-01	
   5.5330000e+01	  -2.4951894e-02	   1.1026345e-01	
   5.5385000e+01	  -1.5612825e-02	   1.0862083e-01	
   5.5440000e+01	  -5.0180429e-03	   1.0669684e-01	
   5.5495000e+01	   6.6909419e-03	   1.0453660e-01	
   5.5550000e+01	   1.9363790e-02	   1.0219058e-01	
   5.5605000e+01	   3.2845737e-02	   9.9713519e-02	
   5.5660000e+01	   4.6980677e-02	   9.7163171e-02	
   5.5715000e+01	   6.1613765e-02	   9.4598610e-02	
   5.5770000e+01	   7.6594616e-02	   9.2078287e-02	
   5.5825000e+01	   9.1780919e-02	   8.9657800e-02	
   5.5880000e+01	   1.0704175e-01	   8.7386885e-02	
   5.5935000e+01	   1.2226100e-01	   8.5305664e-02	
   5.5990000e+01	   1.3734161e-01	   8.3440695e-02	
   5.6045000e+01	   1.5220932e-01	   8.1801279e-02	
   5.6100000e+01	   1.6681409e-01	   8.0376729e-02	
   5.6155000e+01	   1.8112823e-01	   7.9135782e-02	
   5.6210000e+01	   1.9514199e-01	   7.8029042e-02	
   5.6265000e+01	   2.0885702e-01	   7.6993879e-02	
   5.6320000e+01	   2.2227869e-01	   7.5960400e-02	
   5.6375000e+01	   2.3540946e-01	   7.4857505e-02	
   5.6430000e+01	   2.4824582e-01	   7.3618476e-02	
   5.6485000e+01	   2.6077922e-01	   7.2185339e-02	
   5.6540000e+01	   2.7299895e-01	   7.0511328e-02	
   5.6595000e+01	   2.8489452e-01	   6.8561710e-02	
   5.6650000e+01	   2.9645651e-01	   6.6313858e-02	
   5.6705000e+01	   3.0767555e-01	   6.3757084e-02	
   5.6760000e+01	   3.1853890e-01	   6.0892160e-02	
   5.6815000e+01	   3.2902441e-01	   5.7730749e-02	
   5.6870000e+01	   3.3909370e-01	   5.4295750e-02	
   5.6925000e+01	   3.4868715e-01	   5.0623077e-02	
   5.6980000e+01	   3.5772149e-01	   4.6763915e-02	
   5.7035000e+01	   3.6609003e-01	   4.2785776e-02	
   5.7090000e+01	   3.7366571e-01	   3.8771557e-02	
   5.7145000e+01	   3.8030844e-01	   3.4816859e-02	
   5.7200000e+01	   3.8587552e-01	   3.1025850e-02	
   5.7255000e+01	   3.9023317e-01	   2.7505626e-02	
   5.7310000e+01	   3.9326745e-01	   2.4359307e-02	
   5.7365000e+01	   3.9489452e-01	   2.1679042e-02	
   5.7420000e+01	   3.9506951e-01	   1.9540421e-02	
   5.7475000e+01	   3.9379298e-01	   1.7999291e-02	
   5.7530000e+01	   3.9111497e-01	   1.7091221e-02	
   5.7585000e+01	   3.8713680e-01	   1.6832965e-02	
   5.7640000e+01	   3.8201002e-01	   1.7224678e-02	
   5.7695000e+01	   3.7593166e-01	   1.8251680e-02	
   5.7750000e+01	   3.6913558e-01	   1.9885523e-02	
   5.7805000e+01	   3.6188076e-01	   2.2084951e-02	
   5.7860000e+01	   3.5443755e-01	   2.4796936e-02	
   5.7915000e+01	   3.4707191e-01	   2.7957175e-02	
   5.7970000e+01	   3.4002872e-01	   3.1489644e-02	
   5.8025000e+01	   3.3351652e-01	   3.5306115e-02	
   5.8080000e+01	   3.2769615e-01	   3.9307227e-02	
   5.8135000e+01	   3.2267481e-01	   4.3385963e-02	
   5.8190000e+01	   3.1850527e-01	   4.7432957e-02	
   5.8245000e+01	   3.1518920e-01	   5.1342489e-02	
   5.8300000e+01	   3.1268348e-01	   5.5018210e-02	
   5.8355000e+01	   3.1090847e-01	   5.8377899e-02	
   5.8410000e+01	   3.0975694e-01	   6.1356784e-02	
   5.8465000e+01	   3.0910344e-01	   6.3909394e-02	
   5.8520000e+01	   3.0881355e-01	   6.6009916e-02	
   5.8575000e+01	   3.0875227e-01	   6.7650699e-02	
   5.8630000e+01	   3.0879073e-01	   6.8838790e-02	
   5.8685000e+01	   3.0881034e-01	   6.9591394e-02	
   5.8740000e+01	   3.0870507e-01	   6.9931488e-02	
   5.8795000e+01	   3.0838216e-01	   6.9884593e-02	
   5.8850000e+01	   3.0776267e-01	   6.9477592e-02	
   5.8905000e+01	   3.0678315e-01	   6.8740123e-02	
   5.8960000e+01	   3.0539876e-01	   6.7707637e-02	
   5.9015000e+01	   3.0358698e-01	   6.6423961e-02	
   5.9070000e+01	   3.0135056e-01	   6.4941628e-02	
   5.9125000e+01	   2.9871890e-01	   6.3319595e-02	
   5.9180000e+01	   2.9574793e-01	   6.1618824e-02	
   5.9235000e+01	   2.9251829e-01	   5.9896297e-02	
   5.9290000e+01	   2.8913165e-01	   5.8198547e-02	
   5.9345000e+01	   2.8570581e-01	   5.6556742e-02	
   5.9400000e+01	   2.8236914e-01	   5.4985116e-02	
   5.9455000e+01	   2.7925418e-01	   5.3482834e-02	
   5.9510000e+01	   2.7649012e-01	   5.2037822e-02	
   5.9565000e+01	   2.7419531e-01	   5.0630950e-02	
   5.9620000e+01	   2.7247198e-01	   4.9239565e-02	
   5.9675000e+01	   2.7140427e-01	   4.7839807e-02	
   5.9730000e+01	   2.7105917e-01	   4.6407543e-02	
   5.9785000e+01	   2.7148993e-01	   4.4918381e-02	
   5.9840000e+01	   2.7274144e-01	   4.3347489e-02	
   5.9895000e+01	   2.7485639e-01	   4.1669348e-02	
   5.9950000e+01	   2.7787974e-01	   3.9857104e-02	
   6.0005000e+01	   2.8185996e-01	   3.7882210e-02	
   6.0060000e+01	   2.8684654e-01	   3.5716064e-02	
   6.0115000e+01	   2.9288516e-01	   3.3334229e-02	
   6.0170000e+01	   3.0001144e-01	   3.0721568e-02	
   6.0225000e+01	   3.0824435e-01	   2.7876263e-02	
   6.0280000e+01	   3.1758083e-01	   2.4811875e-02	
   6.0335000e+01	   3.2799283e-01	   2.1557095e-02	
   6.0390000e+01	   3.3942717e-01	   1.8153099e-02	
   6.0445000e+01	   3.5180791e-01	   1.4649479e-02	
   6.0500000e+01	   3.6504078e-01	   1.1100577e-02	
   6.0555000e+01	   3.7901781e-01	   7.5634631e-03	
   6.0610000e+01	   3.9362119e-01	   4.0975591e-03	
   6.0665000e+01	   4.0872490e-01	   7.6514360e-04	
   6.0720000e+01	   4.2419387e-01	  -2.3679922e-03	
   6.0775000e+01	   4.3988190e-01	  -5.2320842e-03	
   6.0830000e+01	   4.5563024e-01	  -7.7535144e-03	
   6.0885000e+01	   4.7126729e-01	  -9.8562056e-03	
   6.0940000e+01	   4.8660942e-01	  -1.1464662e-02	
   6.0995000e+01	   5.0146327e-01	  -1.2508219e-02	
   6.1050000e+01	   5.1562971e-01	  -1.2925968e-02	
   6.1105000e+01	   5.2890768e-01	  -1.2672197e-02	
   6.1160000e+01	   5.4109774e-01	  -1.1721891e-02	
   6.1215000e+01	   5.5200641e-01	  -1.0074810e-02	
   6.1270000e+01	   5.6145245e-01	  -7.7564819e-03	
   6.1325000e+01	   5.6927362e-01	  -4.8154092e-03	
   6.1380000e+01	   5.7533212e-01	  -1.3170757e-03	
   6.1435000e+01	   5.7951805e-01	   2.6636665e-03	
   6.1490000e+01	   5.8175087e-01	   7.0498850e-03	
   6.1545000e+01	   5.8198007e-01	   1.1768235e-02	
   6.1600000e+01	   5.8018666e-01	   1.6752889e-02	
   6.1655000e+01	   5.7638574e-01	   2.1948121e-02	
   6.1710000e+01	   5.7062951e-01	   2.7309242e-02	
   6.1765000e+01	   5.6300920e-01	   3.2800708e-02	
   6.1820000e+01	   5.5365507e-01	   3.8391121e-02	
   6.1875000e+01	   5.4273373e-01	   4.4046898e-02	
   6.1930000e+01	   5.3044269e-01	   4.9727175e-02	
   6.1985000e+01	   5.1700215e-01	   5.5381513e-02	
   6.2040000e+01	   5.0264432e-01	   6.0950653e-02	
   6.2095000e+01	   4.8760152e-01	   6.6369763e-02	
   6.2150000e+01	   4.7209613e-01	   7.1573230e-02	
   6.2205000e+01	   4.5633472e-01	   7.6499978e-02	
   6.2260000e+01	   4.4050616e-01	   8.1098206e-02	
   6.2315000e+01	   4.2478112e-01	   8.5328090e-02	
   6.2370000e+01	   4.0931209e-01	   8.9161243e-02	
   6.2425000e+01	   3.9423431e-01	   9.2576909e-02	
   6.2480000e+01	   3.7966878e-01	   9.5556271e-02	
   6.2535000e+01	   3.6572740e-01	   9.8076968e-02	
   6.2590000e+01	   3.5251943e-01	   1.0010939e-01	
   6.2645000e+01	   3.4015713e-01	   1.0161504e-01	
   6.2700000e+01	   3.2875861e-01	   1.0254657e-01	
   6.2755000e+01	   3.1844754e-01	   1.0284956e-01	
   6.2810000e+01	   3.0935059e-01	   1.0246647e-01	
   6.2865000e+01	   3.0159357e-01	   1.0134226e-01	
   6.2920000e+01	   2.9529631e-01	   9.9430107e-02	
   6.2975000e+01	   2.9056661e-01	   9.6695422e-02	
   6.3030000e+01	   2.8749418e-01	   9.3117351e-02	
   6.3085000e+01	   2.8614549e-01	   8.8688635e-02	
   6.3140000e+01	   2.8655999e-01	   8.3414905e-02	
   6.3195000e+01	   2.8874739e-01	   7.7314113e-02	
   6.3250000e+01	   2.9268598e-01	   7.0416095e-02	
   6.3305000e+01	   2.9832179e-01	   6.2762377e-02	
   6.3360000e+01	   3.0556858e-01	   5.4406564e-02	
   6.3415000e+01	   3.1430761e-01	   4.5415248e-02	
   6.3470000e+01	   3.2438758e-01	   3.5868955e-02	
   6.3525000e+01	   3.3562617e-01	   2.5862778e-02	
   6.3580000e+01	   3.4781423e-01	   1.5506305e-02	
   6.3635000e+01	   3.6072261e-01	   4.9223577e-03	
   6.3690000e+01	   3.7411061e-01	  -5.7555146e-03	
   6.3745000e+01	   3.8773592e-01	  -1.6386469e-02	
   6.3800000e+01	   4.0136575e-01	  -2.6826688e-02	
   6.3855000e+01	   4.1478676e-01	  -3.6934590e-02	
   6.3910000e+01	   4.2781224e-01	  -4.6575989e-02	
   6.3965000e+01	   4.4028624e-01	  -5.5627670e-02	
   6.4020000e+01	   4.5208464e-01	  -6.3978939e-02	
   6.4075000e+01	   4.6311212e-01	  -7.1532181e-02	
   6.4130000e+01	   4.7329459e-01	  -7.8203581e-02	
   6.4185000e+01	   4.8256895e-01	  -8.3924504e-02	
   6.4240000e+01	   4.9087294e-01	  -8.8643725e-02	
   6.4295000e+01	   4.9813667e-01	  -9.2330381e-02	
   6.4350000e+01	   5.0427744e-01	  -9.4976761e-02	
   6.4405000e+01	   5.0919941e-01	  -9.6599767e-02	
   6.4460000e+01	   5.1279776e-01	  -9.7240981e-02	
   6.4515000e+01	   5.1496494e-01	  -9.6966125e-02	
   6.4570000e+01	   5.1559681e-01	  -9.5863920e-02	
   6.4625000e+01	   5.1459776e-01	  -9.4043201e-02	
   6.4680000e+01	   5.1188494e-01	  -9.1627275e-02	
   6.4735000e+01	   5.0739168e-01	  -8.8745897e-02	
   6.4790000e+01	   5.0106961e-01	  -8.5526419e-02	
   6.4845000e+01	   4.9288990e-01	  -8.2086056e-02	
   6.4900000e+01	   4.8284453e-01	  -7.8526725e-02	
   6.4955000e+01	   4.7094842e-01	  -7.4933143e-02	
   6.5010000e+01	   4.5724268e-01	  -7.1373880e-02	
   6.5065000e+01	   4.4179832e-01	  -6.7904323e-02	
   6.5120000e+01	   4.2472001e-01	  -6.4570453e-02	
   6.5175000e+01	   4.0614908e-01	  -6.1413156e-02	
   6.5230000e+01	   3.8626380e-01	  -5.8472935e-02	
   6.5285000e+01	   3.6527592e-01	  -5.5794052e-02	
   6.5340000e+01	   3.4342353e-01	  -5.3426856e-02	
   6.5395000e+01	   3.2096111e-01	  -5.1427828e-02	
   6.5450000e+01	   2.9814742e-01	  -4.9857660e-02	
   6.5505000e+01	   2.7523340e-01	  -4.8777669e-02	
   6.5560000e+01	   2.5245242e-01	  -4.8244346e-02	
   6.5615000e+01	   2.3001428e-01	  -4.8302146e-02	
   6.5670000e+01	   2.0810212e-01	  -4.8976023e-02	
   6.5725000e+01	   1.8687088e-01	  -5.0265720e-02	
   6.5780000e+01	   1.6644734e-01	  -5.2143011e-02	
   6.5835000e+01	   1.4693156e-01	  -5.4552158e-02	
   6.5890000e+01	   1.2839947e-01	  -5.7413536e-02	
   6.5945000e+01	   1.1090600e-01	  -6.0629555e-02	
   6.6000000e+01	   9.4489764e-02	  -6.4091372e-02	
   6.6055000e+01	   7.9178149e-02	  -6.7685139e-02	
   6.6110000e+01	   6.4990604e-02	  -7.1297406e-02	
   6.6165000e+01	   5.1938226e-02	  -7.4819854e-02	
   6.6220000e+01	   4.0020780e-02	  -7.8153530e-02	
   6.6275000e+01	   2.9223991e-02	  -8.1212344e-02	
   6.6330000e+01	   1.9519331e-02	  -8.3925540e-02	
   6.6385000e+01	   1.0866712e-02	  -8.6239378e-02	
   6.6440000e+01	   3.2193063e-03	  -8.8118509e-02	
   6.6495000e+01	  -3.4705636e-03	  -8.9547221e-02	
   6.6550000e+01	  -9.2456679e-03	  -9.0530654e-02	
   6.6605000e+01	  -1.4139365e-02	  -9.1096152e-02	
   6.6660000e+01	  -1.8172268e-02	  -9.1294072e-02	
   6.6715000e+01	  -2.1349087e-02	  -9.1196465e-02	
   6.6770000e+01	  -2.3655765e-02	  -9.0892630e-02	
   6.6825000e+01	  -2.5058474e-02	  -9.0482095e-02	
   6.6880000e+01	  -2.5505015e-02	  -9.0066339e-02	
   6.6935000e+01	  -2.4927443e-02	  -8.9740453e-02	
   6.6990000e+01	  -2.3245220e-02	  -8.9586257e-02	
   6.7045000e+01	  -2.0369801e-02	  -8.9668261e-02	
   6.7100000e+01	  -1.6211130e-02	  -9.0032414e-02	
   6.7155000e+01	  -1.0684594e-02	  -9.0706559e-02	
   6.7210000e+01	  -3.7166502e-03	  -9.1701994e-02	
   6.7265000e+01	   4.7508941e-03	  -9.3016270e-02	
   6.7320000e+01	   1.4756556e-02	  -9.4636770e-02	
   6.7375000e+01	   2.6313387e-02	  -9.6543728e-02	
   6.7430000e+01	   3.9401208e-02	  -9.8711644e-02	
   6.7485000e+01	   5.3957542e-02	  -1.0110925e-01	
   6.7540000e+01	   6.9868997e-02	  -1.0369907e-01	
   6.7595000e+01	   8.6965127e-02	  -1.0643736e-01	
   6.7650000e+01	   1.0501617e-01	  -1.0927487e-01	
   6.7705000e+01	   1.2373498e-01	  -1.1215843e-01	
   6.7760000e+01	   1.4278287e-01	  -1.1503355e-01	
   6.7815000e+01	   1.6177942e-01	  -1.1784747e-01	
   6.7870000e+01	   1.8031702e-01	  -1.2055191e-01	
   6.7925000e+01	   1.9797938e-01	  -1.2310567e-01	
   6.7980000e+01	   2.1436156e-01	  -1.2547718e-01	
   6.8035000e+01	   2.2908851e-01	  -1.2764691e-01	
   6.8090000e+01	   2.4183022e-01	  -1.2960856e-01	
   6.8145000e+01	   2.5231206e-01	  -1.3136872e-01	
   6.8200000e+01	   2.6032004e-01	  -1.3294488e-01	
   6.8255000e+01	   2.6570174e-01	  -1.3436164e-01	
   6.8310000e+01	   2.6836527e-01	  -1.3564469e-01	
   6.8365000e+01	   2.6827764e-01	  -1.3681359e-01	
   6.8420000e+01	   2.6546206e-01	  -1.3787562e-01	
   6.8475000e+01	   2.5999256e-01	  -1.3882285e-01	
   6.8530000e+01	   2.5198616e-01	  -1.3963247e-01	
   6.8585000e+01	   2.4159397e-01	  -1.4027011e-01	
   6.8640000e+01	   2.2899272e-01	  -1.4069512e-01	
   6.8695000e+01	   2.1437917e-01	  -1.4086675e-01	
   6.8750000e+01	   1.9796831e-01	  -1.4074971e-01	
   6.8805000e+01	   1.7999389e-01	  -1.4031874e-01	
   6.8860000e+01	   1.6070765e-01	  -1.3956212e-01	
   6.8915000e+01	   1.4037576e-01	  -1.3848369e-01	
   6.8970000e+01	   1.1927393e-01	  -1.3710297e-01	
   6.9025000e+01	   9.7682354e-02	  -1.3545342e-01	
   6.9080000e+01	   7.5880514e-02	  -1.3357990e-01	
   6.9135000e+01	   5.4141588e-02	  -1.3153556e-01	
   6.9190000e+01	   3.2727723e-02	  -1.2937855e-01	
   6.9245000e+01	   1.1887041e-02	  -1.2716881e-01	
   6.9300000e+01	  -8.1480769e-03	  -1.2496556e-01	
   6.9355000e+01	  -2.7162679e-02	  -1.2282568e-01	
   6.9410000e+01	  -4.4961899e-02	  -1.2080223e-01	
   6.9465000e+01	  -6.1374902e-02	  -1.1894266e-01	
   6.9520000e+01	  -7.6259807e-02	  -1.1728639e-01	
   6.9575000e+01	  -8.9508740e-02	  -1.1586209e-01	
   6.9630000e+01	  -1.0105172e-01	  -1.1468452e-01	
   6.9685000e+01	  -1.1085815e-01	  -1.1375115e-01	
   6.9740000e+01	  -1.1893562e-01	  -1.1303999e-01	
   6.9795000e+01	  -1.2532615e-01	  -1.1251018e-01	
   6.9850000e+01	  -1.3010080e-01	  -1.1210493e-01	
   6.9905000e+01	  -1.3335290e-01	  -1.1175626e-01	
   6.9960000e+01	  -1.3519080e-01	  -1.1139101e-01	
   7.0015000e+01	  -1.3573125e-01	  -1.1093829e-01	
   7.0070000e+01	  -1.3509427e-01	  -1.1033705e-01	
   7.0125000e+01	  -1.3339985e-01	  -1.0954173e-01	
   7.0180000e+01	  -1.3076589e-01	  -1.0852495e-01	
   7.0235000e+01	  -1.2730692e-01	  -1.0727672e-01	
   7.0290000e+01	  -1.2313327e-01	  -1.0580045e-01	
   7.0345000e+01	  -1.1835024e-01	  -1.0410653e-01	
   7.0400000e+01	  -1.1305706e-01	  -1.0220548e-01	
   7.0455000e+01	  -1.0734652e-01	  -1.0010291e-01	
   7.0510000e+01	  -1.0130678e-01	  -9.7797305e-02	
   7.0565000e+01	  -9.5025085e-02	  -9.5280176e-02	
   7.0620000e+01	  -8.8591399e-02	  -9.2537662e-02	
   7.0675000e+01	  -8.2099949e-02	  -8.9553630e-02	
   7.0730000e+01	  -7.5647769e-02	  -8.6314193e-02	
   7.0785000e+01	  -6.9330277e-02	  -8.2812890e-02	
   7.0840000e+01	  -6.3235336e-02	  -7.9055596e-02	
   7.0895000e+01	  -5.7437426e-02	  -7.5064655e-02	
   7.0950000e+01	  -5.1992266e-02	  -7.0881448e-02	
   7.1005000e+01	  -4.6931424e-02	  -6.6566154e-02	
   7.1060000e+01	  -4.2257324e-02	  -6.2194110e-02	
   7.1115000e+01	  -3.7940536e-02	  -5.7849742e-02	
   7.1170000e+01	  -3.3921518e-02	  -5.3619809e-02	
   7.1225000e+01	  -3.0117327e-02	  -4.9586967e-02	
   7.1280000e+01	  -2.6431627e-02	  -4.5823833e-02	
   7.1335000e+01	  -2.2765743e-02	  -4.2388240e-02	
   7.1390000e+01	  -1.9029341e-02	  -3.9321030e-02	
   7.1445000e+01	  -1.5149496e-02	  -3.6646631e-02	
   7.1500000e+01	  -1.1076679e-02	  -3.4375040e-02	
   7.1555000e+01	  -6.7870659e-03	  -3.2503777e-02	
   7.1610000e+01	  -2.2822031e-03	  -3.1019256e-02	
   7.1665000e+01	   2.4121573e-03	  -2.9897344e-02	
   7.1720000e+01	   7.2466126e-03	  -2.9102965e-02	
   7.1775000e+01	   1.2147781e-02	  -2.8589087e-02	
   7.1830000e+01	   1.7017941e-02	  -2.8295850e-02	
   7.1885000e+01	   2.1736145e-02	  -2.8150601e-02	
   7.1940000e+01	   2.6162526e-02	  -2.8069156e-02	
   7.1995000e+01	   3.0146743e-02	  -2.7958336e-02	
   7.2050000e+01	   3.3539487e-02	  -2.7719885e-02	
   7.2105000e+01	   3.6204398e-02	  -2.7255854e-02	
   7.2160000e+01	   3.8028594e-02	  -2.6474948e-02	
   7.2215000e+01	   3.8931840e-02	  -2.5298683e-02	
   7.2270000e+01	   3.8874600e-02	  -2.3666242e-02	
   7.2325000e+01	   3.7864187e-02	  -2.1537269e-02	
   7.2380000e+01	   3.5957886e-02	  -1.8891908e-02	
   7.2435000e+01	   3.3262243e-02	  -1.5727905e-02	
   7.2490000e+01	   2.9927709e-02	  -1.2055953e-02	
   7.2545000e+01	   2.6138276e-02	  -7.8951143e-03	
   7.2600000e+01	   2.2097550e-02	  -3.2692134e-03	
   7.2655000e+01	   1.8014519e-02	   1.7959914e-03	
   7.2710000e+01	   1.4091868e-02	   7.2749055e-03	
   7.2765000e+01	   1.0517734e-02	   1.3142961e-02	
   7.2820000e+01	   7.4604664e-03	   1.9375885e-02	
   7.2875000e+01	   5.0656859e-03	   2.5947619e-02	
   7.2930000e+01	   3.4545580e-03	   3.2827340e-02	
   7.2985000e+01	   2.7222838e-03	   3.9976028e-02	
   7.3040000e+01	   2.9367981e-03	   4.7343517e-02	
   7.3095000e+01	   4.1384578e-03	   5.4867443e-02	
   7.3150000e+01	   6.3414443e-03	   6.2474855e-02	
   7.3205000e+01	   9.5367520e-03	   7.0085806e-02	
   7.3260000e+01	   1.3695797e-02	   7.7617839e-02	
   7.3315000e+01	   1.8773979e-02	   8.4990888e-02	
   7.3370000e+01	   2.4714168e-02	   9.2132159e-02	
   7.3425000e+01	   3.1449974e-02	   9.8979935e-02	
   7.3480000e+01	   3.8909005e-02	   1.0548540e-01	
   7.3535000e+01	   4.7016844e-02	   1.1161268e-01	
   7.3590000e+01	   5.5701657e-02	   1.1733769e-01	
   7.3645000e+01	   6.4897887e-02	   1.2264606e-01	
   7.3700000e+01	   7.4547830e-02	   1.2752997e-01	
   7.3755000e+01	   8.4601318e-02	   1.3198500e-01	
   7.3810000e+01	   9.5014162e-02	   1.3600836e-01	
   7.3865000e+01	   1.0574570e-01	   1.3959909e-01	
   7.3920000e+01	   1.1675591e-01	   1.4275942e-01	
   7.3975000e+01	   1.2800326e-01	   1.4549557e-01	
   7.4030000e+01	   1.3944459e-01	   1.4781746e-01	
   7.4085000e+01	   1.5103740e-01	   1.4973743e-01	
   7.4140000e+01	   1.6274321e-01	   1.5126838e-01	
   7.4195000e+01	   1.7453059e-01	   1.5242215e-01	
   7.4250000e+01	   1.8637713e-01	   1.5320876e-01	
   7.4305000e+01	   1.9827006e-01	   1.5363660e-01	
   7.4360000e+01	   2.1020486e-01	   1.5371263e-01	
   7.4415000e+01	   2.2218110e-01	   1.5344268e-01	
   7.4470000e+01	   2.3419645e-01	   1.5283180e-01	
   7.4525000e+01	   2.4624085e-01	   1.5188551e-01	
   7.4580000e+01	   2.5829271e-01	   1.5061189e-01	
   7.4635000e+01	   2.7031824e-01	   1.4902470e-01	
   7.4690000e+01	   2.8227409e-01	   1.4714650e-01	
   7.4745000e+01	   2.9411262e-01	   1.4501076e-01	
   7.4800000e+01	   3.0578800e-01	   1.4266221e-01	
   7.4855000e+01	   3.1726081e-01	   1.4015571e-01	
   7.4910000e+01	   3.2850009e-01	   1.3755406e-01	
   7.4965000e+01	   3.3948274e-01	   1.3492477e-01	
   7.5020000e+01	   3.5019076e-01	   1.3233574e-01	
   7.5075000e+01	   3.6060727e-01	   1.2985053e-01	
   7.5130000e+01	   3.7071317e-01	   1.2752442e-01	
   7.5185000e+01	   3.8048493e-01	   1.2540211e-01	
   7.5240000e+01	   3.8989252e-01	   1.2351684e-01	
   7.5295000e+01	   3.9889700e-01	   1.2189110e-01	
   7.5350000e+01	   4.0744874e-01	   1.2053917e-01	
   7.5405000e+01	   4.1548697e-01	   1.1947080e-01	
   7.5460000e+01	   4.2294079e-01	   1.1869489e-01	
   7.5515000e+01	   4.2973190e-01	   1.1822183e-01	
   7.5570000e+01	   4.3577944e-01	   1.1806451e-01	
   7.5625000e+01	   4.4100707e-01	   1.1823847e-01	
   7.5680000e+01	   4.4535153e-01	   1.1876140e-01	
   7.5735000e+01	   4.4877145e-01	   1.1965147e-01	
   7.5790000e+01	   4.5125478e-01	   1.2092424e-01	
   7.5845000e+01	   4.5282354e-01	   1.2258863e-01	
   7.5900000e+01	   4.5353452e-01	   1.2464259e-01	
   7.5955000e+01	   4.5347545e-01	   1.2706937e-01	
   7.6010000e+01	   4.5275679e-01	   1.2983574e-01	
   7.6065000e+01	   4.5150122e-01	   1.3289407e-01	
   7.6120000e+01	   4.4983356e-01	   1.3618777e-01	
   7.6175000e+01	   4.4787296e-01	   1.3965805e-01	
   7.6230000e+01	   4.4572697e-01	   1.4324968e-01	
   7.6285000e+01	   4.4348749e-01	   1.4691513e-01	
   7.6340000e+01	   4.4122884e-01	   1.5061700e-01	
   7.6395000e+01	   4.3900793e-01	   1.5432820e-01	
   7.6450000e+01	   4.3686525e-01	   1.5802971e-01	
   7.6505000e+01	   4.3482635e-01	   1.6170685e-01	
   7.6560000e+01	   4.3290361e-01	   1.6534498e-01	
   7.6615000e+01	   4.3109778e-01	   1.6892504e-01	
   7.6670000e+01	   4.2939824e-01	   1.7241930e-01	
   7.6725000e+01	   4.2778234e-01	   1.7578872e-01	
   7.6780000e+01	   4.2621468e-01	   1.7898354e-01	
   7.6835000e+01	   4.2464720e-01	   1.8194675e-01	
   7.6890000e+01	   4.2302013e-01	   1.8461888e-01	
   7.6945000e+01	   4.2126428e-01	   1.8694312e-01	
   7.7000000e+01	   4.1930552e-01	   1.8887049e-01	
   7.7055000e+01	   4.1707154e-01	   1.9036428e-01	
   7.7110000e+01	   4.1449920e-01	   1.9140322e-01	
   7.7165000e+01	   4.1154107e-01	   1.9198273e-01	
   7.7220000e+01	   4.0817056e-01	   1.9211411e-01	
   7.7275000e+01	   4.0438563e-01	   1.9182141e-01	
   7.7330000e+01	   4.0021052e-01	   1.9113642e-01	
   7.7385000e+01	   3.9569419e-01	   1.9009347e-01	
   7.7440000e+01	   3.9090555e-01	   1.8872548e-01	
   7.7495000e+01	   3.8592659e-01	   1.8706198e-01	
   7.7550000e+01	   3.8084486e-01	   1.8512889e-01	
   7.7605000e+01	   3.7574705e-01	   1.8294935e-01	
   7.7660000e+01	   3.7071475e-01	   1.8054562e-01	
   7.7715000e+01	   3.6582365e-01	   1.7794174e-01	
   7.7770000e+01	   3.6114534e-01	   1.7516683e-01	
   7.7825000e+01	   3.5675005e-01	   1.7225811e-01	
   7.7880000e+01	   3.5270940e-01	   1.6926257e-01	
   7.7935000e+01	   3.4909901e-01	   1.6623586e-01	
   7.7990000e+01	   3.4599975e-01	   1.6323759e-01	
   7.8045000e+01	   3.4349603e-01	   1.6032390e-01	
   7.8100000e+01	   3.4167203e-01	   1.5753982e-01	
   7.8155000e+01	   3.4060790e-01	   1.5491410e-01	
   7.8210000e+01	   3.4037726e-01	   1.5245776e-01	
   7.8265000e+01	   3.4104582e-01	   1.5016643e-01	
   7.8320000e+01	   3.4267081e-01	   1.4802566e-01	
   7.8375000e+01	   3.4530051e-01	   1.4601765e-01	
   7.8430000e+01	   3.4897353e-01	   1.4412770e-01	
   7.8485000e+01	   3.5371795e-01	   1.4234955e-01	
   7.8540000e+01	   3.5955074e-01	   1.4068906e-01	
   7.8595000e+01	   3.6647795e-01	   1.3916603e-01	
   7.8650000e+01	   3.7449554e-01	   1.3781308e-01	
   7.8705000e+01	   3.8359001e-01	   1.3667133e-01	
   7.8760000e+01	   3.9373854e-01	   1.3578316e-01	
   7.8815000e+01	   4.0490858e-01	   1.3518406e-01	
   7.8870000e+01	   4.1705776e-01	   1.3489550e-01	
   7.8925000e+01	   4.3013313e-01	   1.3491999e-01	
   7.8980000e+01	   4.4406830e-01	   1.3523897e-01	
   7.9035000e+01	   4.5877887e-01	   1.3581433e-01	
   7.9090000e+01	   4.7415809e-01	   1.3659339e-01	
   7.9145000e+01	   4.9007400e-01	   1.3751572e-01	
   7.9200000e+01	   5.0636756e-01	   1.3851964e-01	
   7.9255000e+01	   5.2285182e-01	   1.3954774e-01	
   7.9310000e+01	   5.3931340e-01	   1.4055088e-01	
   7.9365000e+01	   5.5551627e-01	   1.4148996e-01	
   7.9420000e+01	   5.7120781e-01	   1.4233459e-01	
   7.9475000e+01	   5.8612714e-01	   1.4305993e-01	
   7.9530000e+01	   6.0001529e-01	   1.4364362e-01	
   7.9585000e+01	   6.1262484e-01	   1.4406419e-01	
   7.9640000e+01	   6.2372621e-01	   1.4430088e-01	
   7.9695000e+01	   6.3310995e-01	   1.4433482e-01	
   7.9750000e+01	   6.4058628e-01	   1.4415220e-01	
   7.9805000e+01	   6.4598426e-01	   1.4374850e-01	
   7.9860000e+01	   6.4915233e-01	   1.4313231e-01	
   7.9915000e+01	   6.4996165e-01	   1.4232740e-01	
   7.9970000e+01	   6.4831317e-01	   1.4137288e-01	
   8.0025000e+01	   6.4414831e-01	   1.4032128e-01	
   8.0080000e+01	   6.3746024e-01	   1.3923398e-01	
   8.0135000e+01	   6.2830211e-01	   1.3817406e-01	
   8.0190000e+01	   6.1679013e-01	   1.3719807e-01	
   8.0245000e+01	   6.0310243e-01	   1.3634814e-01	
   8.0300000e+01	   5.8747483e-01	   1.3564518e-01	
   8.0355000e+01	   5.7019376e-01	   1.3508333e-01	
   8.0410000e+01	   5.5158642e-01	   1.3462765e-01	
   8.0465000e+01	   5.3200921e-01	   1.3421644e-01	
   8.0520000e+01	   5.1183518e-01	   1.3376860e-01	
   8.0575000e+01	   4.9144060e-01	   1.3319450e-01	
   8.0630000e+01	   4.7119128e-01	   1.3240829e-01	
   8.0685000e+01	   4.5143008e-01	   1.3133976e-01	
   8.0740000e+01	   4.3246651e-01	   1.2994357e-01	
   8.0795000e+01	   4.1456769e-01	   1.2820380e-01	
   8.0850000e+01	   3.9795002e-01	   1.2613342e-01	
   8.0905000e+01	   3.8277210e-01	   1.2377008e-01	
   8.0960000e+01	   3.6912987e-01	   1.2116999e-01	
   8.1015000e+01	   3.5705476e-01	   1.1840074e-01	
   8.1070000e+01	   3.4651517e-01	   1.1553353e-01	
   8.1125000e+01	   3.3742182e-01	   1.1263627e-01	
   8.1180000e+01	   3.2963603e-01	   1.0976865e-01	
   8.1235000e+01	   3.2297946e-01	   1.0697953e-01	
   8.1290000e+01	   3.1724436e-01	   1.0430617e-01	
   8.1345000e+01	   3.1220389e-01	   1.0177487e-01	
   8.1400000e+01	   3.0762272e-01	   9.9402252e-02	
   8.1455000e+01	   3.0326787e-01	   9.7196101e-02	
   8.1510000e+01	   2.9891951e-01	   9.5154758e-02	
   8.1565000e+01	   2.9438084e-01	   9.3266034e-02	
   8.1620000e+01	   2.8948646e-01	   9.1506989e-02	
   8.1675000e+01	   2.8410832e-01	   8.9844940e-02	
   8.1730000e+01	   2.7815805e-01	   8.8238932e-02	
   8.1785000e+01	   2.7158550e-01	   8.6641739e-02	
   8.1840000e+01	   2.6437441e-01	   8.5003386e-02	
   8.1895000e+01	   2.5653652e-01	   8.3276468e-02	
   8.1950000e+01	   2.4810434e-01	   8.1422218e-02	
   8.2005000e+01	   2.3912376e-01	   7.9416191e-02	
   8.2060000e+01	   2.2964848e-01	   7.7252861e-02	
   8.2115000e+01	   2.1973772e-01	   7.4948194e-02	
   8.2170000e+01	   2.0945676e-01	   7.2539330e-02	
   8.2225000e+01	   1.9887915e-01	   7.0081468e-02	
   8.2280000e+01	   1.8808859e-01	   6.7642555e-02	
   8.2335000e+01	   1.7717955e-01	   6.5296197e-02	
   8.2390000e+01	   1.6625578e-01	   6.3113487e-02	
   8.2445000e+01	   1.5542654e-01	   6.1155224e-02	
   8.2500000e+01	   1.4480105e-01	   5.9466274e-02	
   8.2555000e+01	   1.3448281e-01	   5.8073050e-02	
   8.2610000e+01	   1.2456449e-01	   5.6983699e-02	
   8.2665000e+01	   1.1512420e-01	   5.6189943e-02	
   8.2720000e+01	   1.0622373e-01	   5.5670336e-02	
   8.2775000e+01	   9.7909945e-02	   5.5395150e-02	
   8.2830000e+01	   9.0218397e-02	   5.5332014e-02	
   8.2885000e+01	   8.3177025e-02	   5.5450456e-02	
   8.2940000e+01	   7.6808860e-02	   5.5724338e-02	
   8.2995000e+01	   7.1134122e-02	   5.6132172e-02	
   8.3050000e+01	   6.6171812e-02	   5.6655325e-02	
   8.3105000e+01	   6.1940281e-02	   5.7274087e-02	
   8.3160000e+01	   5.8456266e-02	   5.7962504e-02	
   8.3215000e+01	   5.5731657e-02	   5.8683705e-02	
   8.3270000e+01	   5.3767506e-02	   5.9387270e-02	
   8.3325000e+01	   5.2546198e-02	   6.0009388e-02	
   8.3380000e+01	   5.2024099e-02	   6.0475852e-02	
   8.3435000e+01	   5.2126907e-02	   6.0707516e-02	
   8.3490000e+01	   5.2748867e-02	   6.0627243e-02	
   8.3545000e+01	   5.3755867e-02	   6.0166696e-02	
   8.3600000e+01	   5.4991510e-02	   5.9271373e-02	
   8.3655000e+01	   5.6285053e-02	   5.7903208e-02	
   8.3710000e+01	   5.7460754e-02	   5.6041082e-02	
   8.3765000e+01	   5.8348017e-02	   5.3679695e-02	
   8.3820000e+01	   5.8790612e-02	   5.0826858e-02	
   8.3875000e+01	   5.8652896e-02	   4.7499448e-02	
   8.3930000e+01	   5.7822491e-02	   4.3719102e-02	
   8.3985000e+01	   5.6209606e-02	   3.9508966e-02	
   8.4040000e+01	   5.3742816e-02	   3.4892217e-02	
   8.4095000e+01	   5.0362175e-02	   2.9892840e-02	
   8.4150000e+01	   4.6013034e-02	   2.4539346e-02	
   8.4205000e+01	   4.0643880e-02	   1.8870941e-02	
   8.4260000e+01	   3.4208527e-02	   1.2943432e-02	
   8.4315000e+01	   2.6671077e-02	   6.8317290e-03	
   8.4370000e+01	   1.8012335e-02	   6.2774831e-04	
   8.4425000e+01	   8.2368204e-03	  -5.5654819e-03	
   8.4480000e+01	  -2.6205929e-03	  -1.1641637e-02	
   8.4535000e+01	  -1.4489744e-02	  -1.7498702e-02	
   8.4590000e+01	  -2.7263258e-02	  -2.3044863e-02	
   8.4645000e+01	  -4.0798802e-02	  -2.8202500e-02	
   8.4700000e+01	  -5.4926467e-02	  -3.2910928e-02	
   8.4755000e+01	  -6.9460951e-02	  -3.7127943e-02	
   8.4810000e+01	  -8.4216095e-02	  -4.0829440e-02	
   8.4865000e+01	  -9.9018209e-02	  -4.4007024e-02	
   8.4920000e+01	  -1.1371571e-01	  -4.6664767e-02	
   8.4975000e+01	  -1.2818470e-01	  -4.8816307e-02	
   8.5030000e+01	  -1.4233122e-01	  -5.0482573e-02	
   8.5085000e+01	  -1.5609069e-01	  -5.1689920e-02	
   8.5140000e+01	  -1.6942446e-01	  -5.2468724e-02	
   8.5195000e+01	  -1.8231501e-01	  -5.2852836e-02	
   8.5250000e+01	  -1.9476137e-01	  -5.2880230e-02	
   8.5305000e+01	  -2.0677560e-01	  -5.2594792e-02	
   8.5360000e+01	  -2.1838017e-01	  -5.2048630e-02	
   8.5415000e+01	  -2.2960634e-01	  -5.1303376e-02	
   8.5470000e+01	  -2.4049339e-01	  -5.0428505e-02	
   8.5525000e+01	  -2.5108795e-01	  -4.9496046e-02	
   8.5580000e+01	  -2.6144301e-01	  -4.8573389e-02	
   8.5635000e+01	  -2.7161666e-01	  -4.7716859e-02	
   8.5690000e+01	  -2.8166979e-01	  -4.6967497e-02	
   8.5745000e+01	  -2.9166118e-01	  -4.6348834e-02	
   8.5800000e+01	  -3.0163989e-01	  -4.5866072e-02	
   8.5855000e+01	  -3.1163668e-01	  -4.5506728e-02	
   8.5910000e+01	  -3.2165682e-01	  -4.5243221e-02	
   8.5965000e+01	  -3.3167576e-01	  -4.5037417e-02	
   8.6020000e+01	  -3.4163876e-01	  -4.4846538e-02	
   8.6075000e+01	  -3.5146452e-01	  -4.4629336e-02	
   8.6130000e+01	  -3.6105244e-01	  -4.4350989e-02	
   8.6185000e+01	  -3.7029177e-01	  -4.3985051e-02	
   8.6240000e+01	  -3.7907069e-01	  -4.3511962e-02	
   8.6295000e+01	  -3.8728361e-01	  -4.2915714e-02	
   8.6350000e+01	  -3.9483624e-01	  -4.2181211e-02	
   8.6405000e+01	  -4.0164942e-01	  -4.1293833e-02	
   8.6460000e+01	  -4.0766223e-01	  -4.0240976e-02	
   8.6515000e+01	  -4.1283387e-01	  -3.9014733e-02	
   8.6570000e+01	  -4.1714444e-01	  -3.7615203e-02	
   8.6625000e+01	  -4.2059469e-01	  -3.6053773e-02	
   8.6680000e+01	  -4.2320491e-01	  -3.4355206e-02	
   8.6735000e+01	  -4.2501253e-01	  -3.2557672e-02	
   8.6790000e+01	  -4.2606945e-01	  -3.0710639e-02	
   8.6845000e+01	  -4.2644060e-01	  -2.8870860e-02	
   8.6900000e+01	  -4.2620373e-01	  -2.7096913e-02	
   8.6955000e+01	  -4.2544962e-01	  -2.5443451e-02	
   8.7010000e+01	  -4.2428164e-01	  -2.3956705e-02	
   8.7065000e+01	  -4.2281400e-01	  -2.2672062e-02	
   8.7120000e+01	  -4.2116804e-01	  -2.1613197e-02	
   8.7175000e+01	  -4.1946688e-01	  -2.0792005e-02	
   8.7230000e+01	  -4.1782876e-01	  -2.0209292e-02	
   8.7285000e+01	  -4.1635998e-01	  -1.9856429e-02	
   8.7340000e+01	  -4.1514798e-01	  -1.9717650e-02	
   8.7395000e+01	  -4.1425627e-01	  -1.9772566e-02	
   8.7450000e+01	  -4.1372246e-01	  -1.9998832e-02	
   8.7505000e+01	  -4.1355990e-01	  -2.0374636e-02	
   8.7560000e+01	  -4.1376207e-01	  -2.0879739e-02	
   8.7615000e+01	  -4.1430839e-01	  -2.1493989e-02	
   8.7670000e+01	  -4.1517116e-01	  -2.2194088e-02	
   8.7725000e+01	  -4.1632280e-01	  -2.2950826e-02	
   8.7780000e+01	  -4.1774259e-01	  -2.3728190e-02	
   8.7835000e+01	  -4.1942065e-01	  -2.4484112e-02	
   8.7890000e+01	  -4.2135795e-01	  -2.5172261e-02	
   8.7945000e+01	  -4.2356270e-01	  -2.5744927e-02	
   8.8000000e+01	  -4.2604474e-01	  -2.6157032e-02	
   8.8055000e+01	  -4.2880876e-01	  -2.6370569e-02	
   8.8110000e+01	  -4.3184690e-01	  -2.6358798e-02	
   8.8165000e+01	  -4.3513283e-01	  -2.6109999e-02	
   8.8220000e+01	  -4.3861993e-01	  -2.5630248e-02	
   8.8275000e+01	  -4.4224386e-01	  -2.4943772e-02	
   8.8330000e+01	  -4.4592810e-01	  -2.4089801e-02	
   8.8385000e+01	  -4.4959107e-01	  -2.3116692e-02	
   8.8440000e+01	  -4.5315434e-01	  -2.2075363e-02	
   8.8495000e+01	  -4.5655028e-01	  -2.1013510e-02	
   8.8550000e+01	  -4.5972652e-01	  -1.9970906e-02	
   8.8605000e+01	  -4.6264616e-01	  -1.8975865e-02	
   8.8660000e+01	  -4.6528512e-01	  -1.8043422e-02	
   8.8715000e+01	  -4.6762850e-01	  -1.7175841e-02	
   8.8770000e+01	  -4.6966724e-01	  -1.6365423e-02	
   8.8825000e+01	  -4.7139565e-01	  -1.5599033e-02	
   8.8880000e+01	  -4.7281071e-01	  -1.4863630e-02	
   8.8935000e+01	  -4.7391353e-01	  -1.4151728e-02	
   8.8990000e+01	  -4.7471170e-01	  -1.3465102e-02	
   8.9045000e+01	  -4.7522128e-01	  -1.2815397e-02	
   8.9100000e+01	  -4.7546788e-01	  -1.2222010e-02	
   8.9155000e+01	  -4.7548702e-01	  -1.1708637e-02	
   8.9210000e+01	  -4.7532359e-01	  -1.1299395e-02	
   8.9265000e+01	  -4.7502947e-01	  -1.1014766e-02	
   8.9320000e+01	  -4.7465893e-01	  -1.0868235e-02	
   8.9375000e+01	  -4.7426299e-01	  -1.0864994e-02	
   8.9430000e+01	  -4.7388414e-01	  -1.1003276e-02	
   8.9485000e+01	  -4.7355222e-01	  -1.1277742e-02	
   8.9540000e+01	  -4.7328125e-01	  -1.1683994e-02	
   8.9595000e+01	  -4.7306767e-01	  -1.2223026e-02	
   8.9650000e+01	  -4.7289019e-01	  -1.2904149e-02	
   8.9705000e+01	  -4.7271168e-01	  -1.3745191e-02	
   8.9760000e+01	  -4.7248330e-01	  -1.4769949e-02	
   8.9815000e+01	  -4.7215055e-01	  -1.6003974e-02	
   8.9870000e+01	  -4.7165990e-01	  -1.7469761e-02	
   8.9925000e+01	  -4.7096407e-01	  -1.9182010e-02	
   8.9980000e+01	  -4.7002461e-01	  -2.1143878e-02	
   9.0035000e+01	  -4.6881146e-01	  -2.3345613e-02	
   9.0090000e+01	  -4.6730093e-01	  -2.5766038e-02	
   9.0145000e+01	  -4.6547315e-01	  -2.8376010e-02	
   9.0200000e+01	  -4.6330971e-01	  -3.1142844e-02	
   9.0255000e+01	  -4.6079148e-01	  -3.4035170e-02	
   9.0310000e+01	  -4.5789750e-01	  -3.7027675e-02	
   9.0365000e+01	  -4.5460578e-01	  -4.0104573e-02	
   9.0420000e+01	  -4.5089622e-01	  -4.3260445e-02	
   9.0475000e+01	  -4.4675485e-01	  -4.6498011e-02	
   9.0530000e+01	  -4.4217938e-01	  -4.9823959e-02	
   9.0585000e+01	  -4.3718508e-01	  -5.3244191e-02	
   9.0640000e+01	  -4.3180907e-01	  -5.6759074e-02	
   9.0695000e+01	  -4.2611189e-01	  -6.0359176e-02	
   9.0750000e+01	  -4.2017681e-01	  -6.4022617e-02	
   9.0805000e+01	  -4.1410781e-01	  -6.7714941e-02	
   9.0860000e+01	  -4.0802637e-01	  -7.1391487e-02	
   9.0915000e+01	  -4.0206732e-01	  -7.5001894e-02	
   9.0970000e+01	  -3.9637416e-01	  -7.8496073e-02	
   9.1025000e+01	  -3.9109391e-01	  -8.1830183e-02	
   9.1080000e+01	  -3.8637105e-01	  -8.4970776e-02	
   9.1135000e+01	  -3.8234066e-01	  -8.7895945e-02	
   9.1190000e+01	  -3.7912147e-01	  -9.0593283e-02	
   9.1245000e+01	  -3.7681053e-01	  -9.3055323e-02	
   9.1300000e+01	  -3.7548057e-01	  -9.5273790e-02	
   9.1355000e+01	  -3.7518037e-01	  -9.7234430e-02	
   9.1410000e+01	  -3.7593757e-01	  -9.8913921e-02	
   9.1465000e+01	  -3.7776266e-01	  -1.0027965e-01	
   9.1520000e+01	  -3.8065239e-01	  -1.0129212e-01	
   9.1575000e+01	  -3.8459078e-01	  -1.0190923e-01	
   9.1630000e+01	  -3.8954740e-01	  -1.0209197e-01	
   9.1685000e+01	  -3.9547418e-01	  -1.0181105e-01	
   9.1740000e+01	  -4.0230201e-01	  -1.0105306e-01	
   9.1795000e+01	  -4.0993769e-01	  -9.9824396e-02	
   9.1850000e+01	  -4.1826102e-01	  -9.8152662e-02	
   9.1905000e+01	  -4.2712410e-01	  -9.6086364e-02	
   9.1960000e+01	  -4.3635474e-01	  -9.3693186e-02	
   9.2015000e+01	  -4.4576410e-01	  -9.1056025e-02	
   9.2070000e+01	  -4.5515628e-01	  -8.8266518e-02	
   9.2125000e+01	  -4.6433816e-01	  -8.5417342e-02	
   9.2180000e+01	  -4.7312862e-01	  -8.2595123e-02	
   9.2235000e+01	  -4.8136686e-01	  -7.9874848e-02	
   9.2290000e+01	  -4.8891889e-01	  -7.7315991e-02	
   9.2345000e+01	  -4.9568210e-01	  -7.4961017e-02	
   9.2400000e+01	  -5.0158832e-01	  -7.2837084e-02	
   9.2455000e+01	  -5.0660522e-01	  -7.0960634e-02	
   9.2510000e+01	  -5.1073551e-01	  -6.9343111e-02	
   9.2565000e+01	  -5.1401338e-01	  -6.7995981e-02	
   9.2620000e+01	  -5.1649893e-01	  -6.6934192e-02	
   9.2675000e+01	  -5.1827212e-01	  -6.6177497e-02	
   9.2730000e+01	  -5.1942695e-01	  -6.5748979e-02	
   9.2785000e+01	  -5.2006572e-01	  -6.5671060e-02	
   9.2840000e+01	  -5.2029357e-01	  -6.5960760e-02	
   9.2895000e+01	  -5.2021408e-01	  -6.6626159e-02	
   9.2950000e+01	  -5.1992596e-01	  -6.7664774e-02	
   9.3005000e+01	  -5.1952055e-01	  -6.9063269e-02	
   9.3060000e+01	  -5.1907926e-01	  -7.0797953e-02	
   9.3115000e+01	  -5.1867104e-01	  -7.2836004e-02	
   9.3170000e+01	  -5.1834962e-01	  -7.5137414e-02	
   9.3225000e+01	  -5.1815087e-01	  -7.7657411e-02	
   9.3280000e+01	  -5.1809132e-01	  -8.0349023e-02	
   9.3335000e+01	  -5.1816924e-01	  -8.3165192e-02	
   9.3390000e+01	  -5.1836841e-01	  -8.6059327e-02	
   9.3445000e+01	  -5.1866348e-01	  -8.8983663e-02	
   9.3500000e+01	  -5.1902495e-01	  -9.1886089e-02	
   9.3555000e+01	  -5.1942247e-01	  -9.4706801e-02	
   9.3610000e+01	  -5.1982576e-01	  -9.7375735e-02	
   9.3665000e+01	  -5.2020287e-01	  -9.9811469e-02	
   9.3720000e+01	  -5.2051778e-01	  -1.0192256e-01	
   9.3775000e+01	  -5.2072881e-01	  -1.0361192e-01	
   9.3830000e+01	  -5.2078849e-01	  -1.0478332e-01	
   9.3885000e+01	  -5.2064449e-01	  -1.0534866e-01	
   9.3940000e+01	  -5.2024155e-01	  -1.0523435e-01	
   9.3995000e+01	  -5.1952488e-01	  -1.0438644e-01	
   9.4050000e+01	  -5.1844442e-01	  -1.0277314e-01	
   9.4105000e+01	  -5.1695853e-01	  -1.0038400e-01	
   9.4160000e+01	  -5.1503582e-01	  -9.7225848e-02	
   9.4215000e+01	  -5.1265507e-01	  -9.3317480e-02	
   9.4270000e+01	  -5.0980493e-01	  -8.8685735e-02	
   9.4325000e+01	  -5.0648408e-01	  -8.3363860e-02	
   9.4380000e+01	  -5.0270046e-01	  -7.7391829e-02	
   9.4435000e+01	  -4.9846805e-01	  -7.0817456e-02	
   9.4490000e+01	  -4.9380112e-01	  -6.3697283e-02	
   9.4545000e+01	  -4.8870777e-01	  -5.6096839e-02	
   9.4600000e+01	  -4.8318457e-01	  -4.8090441e-02	
   9.4655000e+01	  -4.7721399e-01	  -3.9760772e-02	
   9.4710000e+01	  -4.7076465e-01	  -3.1198012e-02	
   9.4765000e+01	  -4.6379423e-01	  -2.2497795e-02	
   9.4820000e+01	  -4.5625407e-01	  -1.3757725e-02	
   9.4875000e+01	  -4.4809458e-01	  -5.0732361e-03	
   9.4930000e+01	  -4.3927072e-01	   3.4659132e-03	
   9.4985000e+01	  -4.2974725e-01	   1.1777788e-02	
   9.5040000e+01	  -4.1950324e-01	   1.9789231e-02	
   9.5095000e+01	  -4.0853581e-01	   2.7435856e-02	
   9.5150000e+01	  -3.9686336e-01	   3.4660714e-02	
   9.5205000e+01	  -3.8452840e-01	   4.1411443e-02	
   9.5260000e+01	  -3.7159901e-01	   4.7636796e-02	
   9.5315000e+01	  -3.5816769e-01	   5.3283859e-02	
   9.5370000e+01	  -3.4434809e-01	   5.8296492e-02	
   9.5425000e+01	  -3.3027114e-01	   6.2615320e-02	
   9.5480000e+01	  -3.1608083e-01	   6.6180238e-02	
   9.5535000e+01	  -3.0192912e-01	   6.8935960e-02	
   9.5590000e+01	  -2.8796962e-01	   7.0839414e-02	
   9.5645000e+01	  -2.7435098e-01	   7.1866842e-02	
   9.5700000e+01	  -2.6121000e-01	   7.2019161e-02	
   9.5755000e+01	  -2.4866408e-01	   7.1325131e-02	
   9.5810000e+01	  -2.3680369e-01	   6.9841921e-02	
   9.5865000e+01	  -2.2568662e-01	   6.7652585e-02	
   9.5920000e+01	  -2.1533551e-01	   6.4860654e-02	
   9.5975000e+01	  -2.0573889e-01	   6.1582875e-02	
   9.6030000e+01	  -1.9685542e-01	   5.7941205e-02	
   9.6085000e+01	  -1.8862072e-01	   5.4055167e-02	
   9.6140000e+01	  -1.8095586e-01	   5.0035944e-02	
   9.6195000e+01	  -1.7377652e-01	   4.5983404e-02	
   9.6250000e+01	  -1.6700153e-01	   4.1986048e-02	
   9.6305000e+01	  -1.6055970e-01	   3.8122529e-02	
   9.6360000e+01	  -1.5439448e-01	   3.4463221e-02	
   9.6415000e+01	  -1.4846573e-01	   3.1071386e-02	
   9.6470000e+01	  -1.4274802e-01	   2.8004303e-02	
   9.6525000e+01	  -1.3722572e-01	   2.5314404e-02	
   9.6580000e+01	  -1.3188688e-01	   2.3049757e-02	
   9.6635000e+01	  -1.2671790e-01	   2.1253163e-02	
   9.6690000e+01	  -1.2170080e-01	   1.9959458e-02	
   9.6745000e+01	  -1.1681369e-01	   1.9190911e-02	
   9.6800000e+01	  -1.1203507e-01	   1.8951436e-02	
   9.6855000e+01	  -1.0735077e-01	   1.9221731e-02	
   9.6910000e+01	  -1.0276099e-01	   1.9957848e-02	
   9.6965000e+01	  -9.8285115e-02	   2.1094080e-02	
   9.7020000e+01	  -9.3963023e-02	   2.2548723e-02	
   9.7075000e+01	  -8.9852787e-02	   2.4230457e-02	
   9.7130000e+01	  -8.6025125e-02	   2.6043854e-02	
   9.7185000e+01	  -8.2555796e-02	   2.7893638e-02	
   9.7240000e+01	  -7.9517573e-02	   2.9688056e-02	
   9.7295000e+01	  -7.6972998e-02	   3.1342035e-02	
   9.7350000e+01	  -7.4968596e-02	   3.2780444e-02	
   9.7405000e+01	  -7.3531215e-02	   3.3940762e-02	
   9.7460000e+01	  -7.2667606e-02	   3.4774021e-02	
   9.7515000e+01	  -7.2368287e-02	   3.5243758e-02	
   9.7570000e+01	  -7.2615257e-02	   3.5324265e-02	
   9.7625000e+01	  -7.3391034e-02	   3.4999848e-02	
   9.7680000e+01	  -7.4685837e-02	   3.4265698e-02	
   9.7735000e+01	  -7.6501250e-02	   3.3129418e-02	
   9.7790000e+01	  -7.8850445e-02	   3.1611907e-02	
   9.7845000e+01	  -8.1755536e-02	   2.9747093e-02	
   9.7900000e+01	  -8.5242809e-02	   2.7580499e-02	
   9.7955000e+01	  -8.9336799e-02	   2.5166597e-02	
   9.8010000e+01	  -9.4053885e-02	   2.2565094e-02	
   9.8065000e+01	  -9.9395851e-02	   1.9836704e-02	
   9.8120000e+01	  -1.0534461e-01	   1.7038917e-02	
   9.8175000e+01	  -1.1185978e-01	   1.4222138e-02	
   9.8230000e+01	  -1.1887980e-01	   1.1427157e-02	
   9.8285000e+01	  -1.2632556e-01	   8.6849929e-03	
   9.8340000e+01	  -1.3410496e-01	   6.0188708e-03	
   9.8395000e+01	  -1.4211746e-01	   3.4470309e-03	
   9.8450000e+01	  -1.5025763e-01	   9.8540177e-04	
   9.8505000e+01	  -1.5841632e-01	  -1.3501156e-03	
   9.8560000e+01	  -1.6647954e-01	  -3.5420868e-03	
   9.8615000e+01	  -1.7432610e-01	  -5.5713045e-03	
   9.8670000e+01	  -1.8182661e-01	  -7.4181925e-03	
   9.8725000e+01	  -1.8884490e-01	  -9.0656835e-03	
   9.8780000e+01	  -1.9524227e-01	  -1.0503159e-02	
   9.8835000e+01	  -2.0088396e-01	  -1.1730824e-02	
   9.8890000e+01	  -2.0564829e-01	  -1.2763380e-02	
   9.8945000e+01	  -2.0943736e-01	  -1.3631453e-02	
   9.9000000e+01	  -2.1218722e-01	  -1.4379822e-02	
   9.9055000e+01	  -2.1387493e-01	  -1.5063132e-02	
   9.9110000e+01	  -2.1452170e-01	  -1.5741042e-02	
   9.9165000e+01	  -2.1419172e-01	  -1.6474179e-02	
   9.9220000e+01	  -2.1298634e-01	  -1.7320929e-02	
   9.9275000e+01	  -2.1103456e-01	  -1.8334654e-02	
   9.9330000e+01	  -2.0848211e-01	  -1.9561287e-02	
   9.9385000e+01	  -2.0548133e-01	  -2.1037485e-02	
   9.9440000e+01	  -2.0218305e-01	  -2.2789598e-02	
   9.9495000e+01	  -1.9873166e-01	  -2.4833938e-02	
   9.9550000e+01	  -1.9526363e-01	  -2.7178822e-02	
   9.9605000e+01	  -1.9190851e-01	  -2.9827647e-02	
   9.9660000e+01	  -1.8879019e-01	  -3.2780600e-02	
   9.9715000e+01	  -1.8602724e-01	  -3.6033281e-02	
   9.9770000e+01	  -1.8373247e-01	  -3.9573539e-02	
   9.9825000e+01	  -1.8201212e-01	  -4.3379270e-02	
   9.9880000e+01	  -1.8096363e-01	  -4.7418172e-02	
   9.9935000e+01	  -1.8067153e-01	  -5.1648587e-02	
   9.9990000e+01	  -1.8120140e-01	  -5.6020758e-02	
   1.0004500e+02	  -1.8259339e-01	  -6.0478828e-02	
   1.0010000e+02	  -1.8485634e-01	  -6.4963674e-02	
   1.0015500e+02	  -1.8796458e-01	  -6.9416210e-02	
   1.0021000e+02	  -1.9185851e-01	  -7.3781105e-02	
   1.0026500e+02	  -1.9644945e-01	  -7.8011202e-02	
   1.0032000e+02	  -2.0162862e-01	  -8.2072219e-02	
   1.0037500e+02	  -2.0727913e-01	  -8.5946142e-02	
   1.0043000e+02	  -2.1328864e-01	  -8.9631618e-02	
   1.0048500e+02	  -2.1955989e-01	  -9.3140880e-02	
   1.0054000e+02	  -2.2601774e-01	  -9.6494271e-02	
   1.0059500e+02	  -2.3261183e-01	  -9.9714203e-02	
   1.0065000e+02	  -2.3931555e-01	  -1.0282016e-01	
   1.0070500e+02	  -2.4612174e-01	  -1.0582572e-01	
   1.0076000e+02	  -2.5303560e-01	  -1.0873772e-01	
   1.0081500e+02	  -2.6006493e-01	  -1.1155726e-01	
   1.0087000e+02	  -2.6720952e-01	  -1.1428170e-01	
   1.0092500e+02	  -2.7445268e-01	  -1.1690721e-01	
   1.0098000e+02	  -2.8175650e-01	  -1.1943078e-01	
   1.0103500e+02	  -2.8905995e-01	  -1.2185059e-01	
   1.0109000e+02	  -2.9627918e-01	  -1.2416409e-01	
   1.0114500e+02	  -3.0330907e-01	  -1.2636444e-01	
   1.0120000e+02	  -3.1002578e-01	  -1.2843697e-01	
   1.0125500e+02	  -3.1628948e-01	  -1.3035673e-01	
   1.0131000e+02	  -3.2194712e-01	  -1.3208740e-01	
   1.0136500e+02	  -3.2683581e-01	  -1.3358234e-01	
   1.0142000e+02	  -3.3078698e-01	  -1.3478827e-01	
   1.0147500e+02	  -3.3363126e-01	  -1.3565131e-01	
   1.0153000e+02	  -3.3520323e-01	  -1.3612369e-01	
   1.0158500e+02	  -3.3534570e-01	  -1.3616933e-01	
   1.0164000e+02	  -3.3391449e-01	  -1.3576723e-01	
   1.0169500e+02	  -3.3078509e-01	  -1.3491239e-01	
   1.0175000e+02	  -3.2586102e-01	  -1.3361439e-01	
   1.0180500e+02	  -3.1908231e-01	  -1.3189445e-01	
   1.0186000e+02	  -3.1043268e-01	  -1.2978211e-01	
   1.0191500e+02	  -2.9994427e-01	  -1.2731229e-01	
   1.0197000e+02	  -2.8769987e-01	  -1.2452286e-01	
   1.0202500e+02	  -2.7383301e-01	  -1.2145283e-01	
   1.0208000e+02	  -2.5852589e-01	  -1.1814156e-01	
   1.0213500e+02	  -2.4200511e-01	  -1.1462946e-01	
   1.0219000e+02	  -2.2453471e-01	  -1.1096015e-01	
   1.0224500e+02	  -2.0640652e-01	  -1.0718322e-01	
   1.0230000e+02	  -1.8792906e-01	  -1.0335633e-01	
   1.0235500e+02	  -1.6941730e-01	  -9.9546067e-02	
   1.0241000e+02	  -1.5118383e-01	  -9.5826608e-02	
   1.0246500e+02	  -1.3353053e-01	  -9.2275705e-02	
   1.0252000e+02	  -1.1674061e-01	  -8.8968396e-02	
   1.0257500e+02	  -1.0107112e-01	  -8.5969938e-02	
   1.0263000e+02	  -8.6745624e-02	  -8.3329628e-02	
   1.0268500e+02	  -7.3946886e-02	  -8.1076572e-02	
   1.0274000e+02	  -6.2810560e-02	  -7.9217956e-02	
   1.0279500e+02	  -5.3420636e-02	  -7.7740095e-02	
   1.0285000e+02	  -4.5807202e-02	  -7.6611925e-02	
   1.0290500e+02	  -3.9947298e-02	  -7.5789814e-02	
   1.0296000e+02	  -3.5769360e-02	  -7.5222144e-02	
   1.0301500e+02	  -3.3160887e-02	  -7.4852528e-02	
   1.0307000e+02	  -3.1978333e-02	  -7.4621203e-02	
   1.0312500e+02	  -3.2057982e-02	  -7.4464954e-02	
   1.0318000e+02	  -3.3226489e-02	  -7.4316394e-02	
   1.0323500e+02	  -3.5310267e-02	  -7.4103650e-02	
   1.0329000e+02	  -3.8143505e-02	  -7.3751252e-02	
   1.0334500e+02	  -4.1573957e-02	  -7.3182011e-02	
   1.0340000e+02	  -4.5464887e-02	  -7.2319082e-02	
   1.0345500e+02	  -4.9693004e-02	  -7.1088608e-02	
   1.0351000e+02	  -5.4144508e-02	  -6.9424262e-02	
   1.0356500e+02	  -5.8711108e-02	  -6.7273597e-02	
   1.0362000e+02	  -6.3286452e-02	  -6.4604338e-02	
   1.0367500e+02	  -6.7763340e-02	  -6.1408894e-02	
   1.0373000e+02	  -7.2032734e-02	  -5.7706296e-02	
   1.0378500e+02	  -7.5985335e-02	  -5.3541332e-02	
   1.0384000e+02	  -7.9515401e-02	  -4.8981176e-02	
   1.0389500e+02	  -8.2525281e-02	  -4.4110256e-02	
   1.0395000e+02	  -8.4929200e-02	  -3.9024200e-02	
   1.0400500e+02	  -8.6656092e-02	  -3.3823831e-02	
   1.0406000e+02	  -8.7651787e-02	  -2.8609921e-02	
   1.0411500e+02	  -8.7880108e-02	  -2.3479027e-02	
   1.0417000e+02	  -8.7322537e-02	  -1.8520954e-02	
   1.0422500e+02	  -8.5977590e-02	  -1.3818377e-02	
   1.0428000e+02	  -8.3861182e-02	  -9.4477207e-03	
   1.0433500e+02	  -8.1007656e-02	  -5.4792067e-03	
   1.0439000e+02	  -7.7470369e-02	  -1.9747179e-03	
   1.0444500e+02	  -7.3321415e-02	   1.0160483e-03	
   1.0450000e+02	  -6.8650294e-02	   3.4598202e-03	
   1.0455500e+02	  -6.3561320e-02	   5.3433605e-03	
   1.0461000e+02	  -5.8170032e-02	   6.6757807e-03	
   1.0466500e+02	  -5.2599188e-02	   7.4888744e-03	
   1.0472000e+02	  -4.6974029e-02	   7.8350973e-03	
   1.0477500e+02	  -4.1415794e-02	   7.7835919e-03	
   1.0483000e+02	  -3.6033754e-02	   7.4149194e-03	
   1.0488500e+02	  -3.0917762e-02	   6.8148310e-03	
   1.0494000e+02	  -2.6133027e-02	   6.0676239e-03	
   1.0499500e+02	  -2.1717317e-02	   5.2504766e-03	
   1.0505000e+02	  -1.7679946e-02	   4.4303530e-03	
   1.0510500e+02	  -1.4002293e-02	   3.6640289e-03	
   1.0516000e+02	  -1.0639947e-02	   3.0004068e-03	
   1.0521500e+02	  -7.5266944e-03	   2.4835401e-03	
   1.0527000e+02	  -4.5807352e-03	   2.1547901e-03	
   1.0532500e+02	  -1.7130308e-03	   2.0528641e-03	
   1.0538000e+02	   1.1636525e-03	   2.2112895e-03	
   1.0543500e+02	   4.1275391e-03	   2.6542527e-03	
   1.0549000e+02	   7.2441020e-03	   3.3924278e-03	
   1.0554500e+02	   1.0565090e-02	   4.4195246e-03	
   1.0560000e+02	   1.4128370e-02	   5.7094593e-03	
   1.0565500e+02	   1.7957570e-02	   7.2149380e-03	
   1.0571000e+02	   2.2061809e-02	   8.8691532e-03	
   1.0576500e+02	   2.6435528e-02	   1.0591024e-02	
   1.0582000e+02	   3.1057614e-02	   1.2292258e-02	
   1.0587500e+02	   3.5890004e-02	   1.3884143e-02	
   1.0593000e+02	   4.0877609e-02	   1.5283258e-02	
   1.0598500e+02	   4.5950806e-02	   1.6416222e-02	
   1.0604000e+02	   5.1029684e-02	   1.7223298e-02	
   1.0609500e+02	   5.6028855e-02	   1.7660369e-02	
   1.0615000e+02	   6.0862929e-02	   1.7699201e-02	
   1.0620500e+02	   6.5452615e-02	   1.7326189e-02	
   1.0626000e+02	   6.9729870e-02	   1.6539548e-02	
   1.0631500e+02	   7.3640312e-02	   1.5345470e-02	
   1.0637000e+02	   7.7143142e-02	   1.3755148e-02	
   1.0642500e+02	   8.0210286e-02	   1.1784678e-02	
   1.0648000e+02	   8.2825733e-02	   9.4578789e-03	
   1.0653500e+02	   8.4984911e-02	   6.8101029e-03	
   1.0659000e+02	   8.6694125e-02	   3.8909969e-03	
   1.0664500e+02	   8.7970477e-02	   7.6517312e-04	
   1.0670000e+02	   8.8842484e-02	  -2.4895243e-03	
   1.0675500e+02	   8.9351448e-02	  -5.7860335e-03	
   1.0681000e+02	   8.9553428e-02	  -9.0337254e-03	
   1.0686500e+02	   8.9520634e-02	  -1.2144682e-02	
   1.0692000e+02	   8.9340414e-02	  -1.5040018e-02	
   1.0697500e+02	   8.9110742e-02	  -1.7656169e-02	
   1.0703000e+02	   8.8932515e-02	  -1.9950481e-02	
   1.0708500e+02	   8.8900074e-02	  -2.1904328e-02	
   1.0714000e+02	   8.9091774e-02	  -2.3522257e-02	
   1.0719500e+02	   8.9561981e-02	  -2.4827426e-02	
   1.0725000e+02	   9.0335377e-02	  -2.5855170e-02	
   1.0730500e+02	   9.1404689e-02	  -2.6646505e-02	
   1.0736000e+02	   9.2732538e-02	  -2.7242768e-02	
   1.0741500e+02	   9.4256730e-02	  -2.7682241e-02	
   1.0747000e+02	   9.5897275e-02	  -2.7999220e-02	
   1.0752500e+02	   9.7563658e-02	  -2.8225238e-02	
   1.0758000e+02	   9.9161262e-02	  -2.8391651e-02	
   1.0763500e+02	   1.0059617e-01	  -2.8532810e-02	
   1.0769000e+02	   1.0177822e-01	  -2.8688861e-02	
   1.0774500e+02	   1.0262256e-01	  -2.8907268e-02	
   1.0780000e+02	   1.0304963e-01	  -2.9242277e-02	
   1.0785500e+02	   1.0298290e-01	  -2.9752112e-02	
   1.0791000e+02	   1.0234538e-01	  -3.0494404e-02	
   1.0796500e+02	   1.0105703e-01	  -3.1520931e-02	
   1.0802000e+02	   9.9035282e-02	  -3.2872517e-02	
   1.0807500e+02	   9.6199179e-02	  -3.4574712e-02	
   1.0813000e+02	   9.2475926e-02	  -3.6635220e-02	
   1.0818500e+02	   8.7808626e-02	  -3.9043904e-02	
   1.0824000e+02	   8.2164322e-02	  -4.1775275e-02	
   1.0829500e+02	   7.5541423e-02	  -4.4792655e-02	
   1.0835000e+02	   6.7975080e-02	  -4.8053268e-02	
   1.0840500e+02	   5.9539334e-02	  -5.1513479e-02	
   1.0846000e+02	   5.0345935e-02	  -5.5133214e-02	
   1.0851500e+02	   4.0540380e-02	  -5.8878853e-02	
   1.0857000e+02	   3.0295577e-02	  -6.2724405e-02	
   1.0862500e+02	   1.9803513e-02	  -6.6650943e-02	
   1.0868000e+02	   9.2659306e-03	  -7.0644511e-02	
   1.0873500e+02	  -1.1148549e-03	  -7.4693287e-02	
   1.0879000e+02	  -1.1144956e-02	  -7.8785496e-02	
   1.0884500e+02	  -2.0648559e-02	  -8.2909008e-02	
   1.0890000e+02	  -2.9477518e-02	  -8.7051880e-02	
   1.0895500e+02	  -3.7518552e-02	  -9.1202374e-02	
   1.0901000e+02	  -4.4696950e-02	  -9.5348263e-02	
   1.0906500e+02	  -5.0977944e-02	  -9.9476260e-02	
   1.0912000e+02	  -5.6366706e-02	  -1.0357182e-01	
   1.0917500e+02	  -6.0906573e-02	  -1.0761884e-01	
   1.0923000e+02	  -6.4675346e-02	  -1.1159916e-01	
   1.0928500e+02	  -6.7780459e-02	  -1.1549201e-01	
   1.0934000e+02	  -7.0353743e-02	  -1.1927394e-01	
   1.0939500e+02	  -7.2545501e-02	  -1.2291915e-01	
   1.0945000e+02	  -7.4517273e-02	  -1.2640007e-01	
   1.0950500e+02	  -7.6433630e-02	  -1.2968791e-01	
   1.0956000e+02	  -7.8453902e-02	  -1.3275337e-01	
   1.0961500e+02	  -8.0723992e-02	  -1.3556769e-01	
   1.0967000e+02	  -8.3367987e-02	  -1.3810451e-01	
   1.0972500e+02	  -8.6480583e-02	  -1.4034287e-01	
   1.0978000e+02	  -9.0122517e-02	  -1.4227118e-01	
   1.0983500e+02	  -9.4320063e-02	  -1.4389051e-01	
   1.0989000e+02	  -9.9067576e-02	  -1.4521594e-01	
   1.0994500e+02	  -1.0433177e-01	  -1.4627517e-01	
   1.1000000e+02	  -1.1005731e-01	  -1.4710554e-01	
   1.1005500e+02	  -1.1617337e-01	  -1.4775030e-01	
   1.1011000e+02	  -1.2260056e-01	  -1.4825509e-01	
   1.1016500e+02	  -1.2925698e-01	  -1.4866514e-01	
   1.1022000e+02	  -1.3606207e-01	  -1.4902346e-01	
   1.1027500e+02	  -1.4293771e-01	  -1.4937005e-01	
   1.1033000e+02	  -1.4980730e-01	  -1.4974243e-01	
   1.1038500e+02	  -1.5659451e-01	  -1.5017753e-01	
   1.1044000e+02	  -1.6322284e-01	  -1.5071444e-01	
   1.1049500e+02	  -1.6961651e-01	  -1.5139643e-01	
   1.1055000e+02	  -1.7570287e-01	  -1.5227053e-01	
   1.1060500e+02	  -1.8141611e-01	  -1.5338407e-01	
   1.1066000e+02	  -1.8670213e-01	  -1.5477875e-01	
   1.1071500e+02	  -1.9152360e-01	  -1.5648384e-01	
   1.1077000e+02	  -1.9586330e-01	  -1.5850975e-01	
   1.1082500e+02	  -1.9972514e-01	  -1.6084323e-01	
   1.1088000e+02	  -2.0313285e-01	  -1.6344545e-01	
   1.1093500e+02	  -2.0612667e-01	  -1.6625345e-01	
   1.1099000e+02	  -2.0875775e-01	  -1.6918388e-01	
   1.1104500e+02	  -2.1108050e-01	  -1.7213770e-01	
   1.1110000e+02	  -2.1314532e-01	  -1.7500603e-01	
   1.1115500e+02	  -2.1499499e-01	  -1.7767839e-01	
   1.1121000e+02	  -2.1666541e-01	  -1.8005303e-01	
   1.1126500e+02	  -2.1818913e-01	  -1.8204739e-01	
   1.1132000e+02	  -2.1959911e-01	  -1.8360603e-01	
   1.1137500e+02	  -2.2093186e-01	  -1.8470433e-01	
   1.1143000e+02	  -2.2222962e-01	  -1.8534804e-01	
   1.1148500e+02	  -2.2354115e-01	  -1.8556932e-01	
   1.1154000e+02	  -2.2492057e-01	  -1.8542072e-01	
   1.1159500e+02	  -2.2642449e-01	  -1.8496838e-01	
   1.1165000e+02	  -2.2810768e-01	  -1.8428554e-01	
   1.1170500e+02	  -2.3001783e-01	  -1.8344733e-01	
   1.1176000e+02	  -2.3218989e-01	  -1.8252675e-01	
   1.1181500e+02	  -2.3464165e-01	  -1.8159196e-01	
   1.1187000e+02	  -2.3737202e-01	  -1.8070543e-01	
   1.1192500e+02	  -2.4036133e-01	  -1.7992430e-01	
   1.1198000e+02	  -2.4357300e-01	  -1.7930110e-01	
   1.1203500e+02	  -2.4695708e-01	  -1.7888377e-01	
   1.1209000e+02	  -2.5045622e-01	  -1.7871385e-01	
   1.1214500e+02	  -2.5401259e-01	  -1.7882315e-01	
   1.1220000e+02	  -2.5757419e-01	  -1.7922999e-01	
   1.1225500e+02	  -2.6109952e-01	  -1.7993670e-01	
   1.1231000e+02	  -2.6456058e-01	  -1.8092924e-01	
   1.1236500e+02	  -2.6794370e-01	  -1.8217852e-01	
   1.1242000e+02	  -2.7124769e-01	  -1.8364243e-01	
   1.1247500e+02	  -2.7448002e-01	  -1.8526904e-01	
   1.1253000e+02	  -2.7765215e-01	  -1.8700188e-01	
   1.1258500e+02	  -2.8077487e-01	  -1.8878681e-01	
   1.1264000e+02	  -2.8385417e-01	  -1.9057840e-01	
   1.1269500e+02	  -2.8688918e-01	  -1.9234392e-01	
   1.1275000e+02	  -2.8987327e-01	  -1.9406444e-01	
   1.1280500e+02	  -2.9279781e-01	  -1.9573316e-01	
   1.1286000e+02	  -2.9565663e-01	  -1.9735218e-01	
   1.1291500e+02	  -2.9844846e-01	  -1.9892910e-01	
   1.1297000e+02	  -3.0117631e-01	  -2.0047391e-01	
   1.1302500e+02	  -3.0384471e-01	  -2.0199643e-01	
   1.1308000e+02	  -3.0645597e-01	  -2.0350390e-01	
   1.1313500e+02	  -3.0900611e-01	  -2.0499901e-01	
   1.1319000e+02	  -3.1148128e-01	  -2.0647882e-01	
   1.1324500e+02	  -3.1385643e-01	  -2.0793570e-01	
   1.1330000e+02	  -3.1609667e-01	  -2.0935969e-01	
   1.1335500e+02	  -3.1816009e-01	  -2.1074043e-01	
   1.1341000e+02	  -3.1999986e-01	  -2.1206638e-01	
   1.1346500e+02	  -3.2156471e-01	  -2.1332144e-01	
   1.1352000e+02	  -3.2279788e-01	  -2.1448009e-01	
   1.1357500e+02	  -3.2363528e-01	  -2.1550302e-01	
   1.1363000e+02	  -3.2400420e-01	  -2.1633525e-01	
   1.1368500e+02	  -3.2382371e-01	  -2.1690779e-01	
   1.1374000e+02	  -3.2300598e-01	  -2.1714232e-01	
   1.1379500e+02	  -3.2145814e-01	  -2.1695794e-01	
   1.1385000e+02	  -3.1908490e-01	  -2.1627948e-01	
   1.1390500e+02	  -3.1579285e-01	  -2.1504709e-01	
   1.1396000e+02	  -3.1149664e-01	  -2.1322493e-01	
   1.1401500e+02	  -3.0612585e-01	  -2.1080639e-01	
   1.1407000e+02	  -2.9963074e-01	  -2.0781409e-01	
   1.1412500e+02	  -2.9198526e-01	  -2.0429467e-01	
   1.1418000e+02	  -2.8318728e-01	  -2.0031015e-01	
   1.1423500e+02	  -2.7325727e-01	  -1.9592865e-01	
   1.1429000e+02	  -2.6223619e-01	  -1.9121632e-01	
   1.1434500e+02	  -2.5018339e-01	  -1.8623166e-01	
   1.1440000e+02	  -2.3717461e-01	  -1.8102218e-01	
   1.1445500e+02	  -2.2329986e-01	  -1.7562289e-01	
   1.1451000e+02	  -2.0866065e-01	  -1.7005663e-01	
   1.1456500e+02	  -1.9336729e-01	  -1.6433679e-01	
   1.1462000e+02	  -1.7753752e-01	  -1.5847249e-01	
   1.1467500e+02	  -1.6129685e-01	  -1.5247499e-01	
   1.1473000e+02	  -1.4477994e-01	  -1.4636292e-01	
   1.1478500e+02	  -1.2813236e-01	  -1.4016493e-01	
   1.1484000e+02	  -1.1151215e-01	  -1.3391899e-01	
   1.1489500e+02	  -9.5090269e-02	  -1.2766934e-01	
   1.1495000e+02	  -7.9049077e-02	  -1.2146180e-01	
   1.1500500e+02	  -6.3578039e-02	  -1.1533891e-01	
   1.1506000e+02	  -4.8866236e-02	  -1.0933561e-01	
   1.1511500e+02	  -3.5091770e-02	  -1.0347580e-01	
   1.1517000e+02	  -2.2409320e-02	  -9.7770244e-02	
   1.1522500e+02	  -1.0938177e-02	  -9.2216968e-02	
   1.1528000e+02	  -7.5314329e-04	  -8.6805308e-02	
   1.1533500e+02	   8.1203591e-03	  -8.1523269e-02	
   1.1539000e+02	   1.5707129e-02	  -7.6366324e-02	
   1.1544500e+02	   2.2079988e-02	  -7.1345370e-02	
   1.1550000e+02	   2.7355248e-02	  -6.6492376e-02	
   1.1555500e+02	   3.1685841e-02	  -6.1862932e-02	
   1.1561000e+02	   3.5252187e-02	  -5.7535019e-02	
   1.1566500e+02	   3.8251534e-02	  -5.3603953e-02	
   1.1572000e+02	   4.0886404e-02	  -5.0174625e-02	
   1.1577500e+02	   4.3352457e-02	  -4.7352557e-02	
   1.1583000e+02	   4.5827142e-02	  -4.5234759e-02	
   1.1588500e+02	   4.8461536e-02	  -4.3901211e-02	
   1.1594000e+02	   5.1376536e-02	  -4.3408349e-02	
   1.1599500e+02	   5.4662285e-02	  -4.3786003e-02	
   1.1605000e+02	   5.8378922e-02	  -4.5038177e-02	
   1.1610500e+02	   6.2557535e-02	  -4.7146556e-02	
   1.1616000e+02	   6.7201094e-02	  -5.0075104e-02	
   1.1621500e+02	   7.2285534e-02	  -5.3774715e-02	
   1.1627000e+02	   7.7761295e-02	  -5.8187319e-02	
   1.1632500e+02	   8.3555570e-02	  -6.3248641e-02	
   1.1638000e+02	   8.9574918e-02	  -6.8889163e-02	
   1.1643500e+02	   9.5707650e-02	  -7.5033560e-02	
   1.1649000e+02	   1.0182603e-01	  -8.1599117e-02	
   1.1654500e+02	   1.0778903e-01	  -8.8493410e-02	
   1.1660000e+02	   1.1344642e-01	  -9.5612255e-02	
   1.1665500e+02	   1.1864406e-01	  -1.0283953e-01	
   1.1671000e+02	   1.2323008e-01	  -1.1004977e-01	
   1.1676500e+02	   1.2706170e-01	  -1.1711285e-01	
   1.1682000e+02	   1.3001330e-01	  -1.2389961e-01	
   1.1687500e+02	   1.3198543e-01	  -1.3028748e-01	
   1.1693000e+02	   1.3291318e-01	  -1.3616634e-01	
   1.1698500e+02	   1.3277164e-01	  -1.4144379e-01	
   1.1704000e+02	   1.3157789e-01	  -1.4604893e-01	
   1.1709500e+02	   1.2938960e-01	  -1.4993409e-01	
   1.1715000e+02	   1.2630046e-01	  -1.5307507e-01	
   1.1720500e+02	   1.2243390e-01	  -1.5547003e-01	
   1.1726000e+02	   1.1793684e-01	  -1.5713654e-01	
   1.1731500e+02	   1.1297443e-01	  -1.5810694e-01	
   1.1737000e+02	   1.0772496e-01	  -1.5842353e-01	
   1.1742500e+02	   1.0237460e-01	  -1.5813469e-01	
   1.1748000e+02	   9.7112435e-02	  -1.5729261e-01	
   1.1753500e+02	   9.2126295e-02	  -1.5595249e-01	
   1.1759000e+02	   8.7598519e-02	  -1.5417288e-01	
   1.1764500e+02	   8.3700679e-02	  -1.5201633e-01	
   1.1770000e+02	   8.0587328e-02	  -1.4954933e-01	
   1.1775500e+02	   7.8389755e-02	  -1.4684118e-01	
   1.1781000e+02	   7.7210443e-02	  -1.4396171e-01	
   1.1786500e+02	   7.7118697e-02	  -1.4097811e-01	
   1.1792000e+02	   7.8148271e-02	  -1.3795125e-01	
   1.1797500e+02	   8.0298091e-02	  -1.3493218e-01	
   1.1803000e+02	   8.3536230e-02	  -1.3195997e-01	
   1.1808500e+02	   8.7806186e-02	  -1.2906166e-01	
   1.1814000e+02	   9.3034276e-02	  -1.2625411e-01	
   1.1819500e+02	   9.9137358e-02	  -1.2354681e-01	
   1.1825000e+02	   1.0602984e-01	  -1.2094541e-01	
   1.1830500e+02	   1.1362839e-01	  -1.1845587e-01	
   1.1836000e+02	   1.2185309e-01	  -1.1608853e-01	
   1.1841500e+02	   1.3062527e-01	  -1.1386053e-01	
   1.1847000e+02	   1.3986301e-01	  -1.1179513e-01	
   1.1852500e+02	   1.4947578e-01	  -1.0991787e-01	
   1.1858000e+02	   1.5935971e-01	  -1.0825092e-01	
   1.1863500e+02	   1.6939459e-01	  -1.0680659e-01	
   1.1869000e+02	   1.7944330e-01	  -1.0558141e-01	
   1.1874500e+02	   1.8935324e-01	  -1.0455201e-01	
   1.1880000e+02	   1.9895886e-01	  -1.0367419e-01	
   1.1885500e+02	   2.0808509e-01	  -1.0288536e-01	
   1.1891000e+02	   2.1655136e-01	  -1.0210980e-01	
   1.1896500e+02	   2.2417585e-01	  -1.0126550e-01	
   1.1902000e+02	   2.3077893e-01	  -1.0027222e-01	
   1.1907500e+02	   2.3618487e-01	  -9.9059549e-02	
   1.1913000e+02	   2.4022164e-01	  -9.7573930e-02	
   1.1918500e+02	   2.4271954e-01	  -9.5783230e-02	
   1.1924000e+02	   2.4351133e-01	  -9.3677636e-02	
   1.1929500e+02	   2.4243649e-01	  -9.1266507e-02	
   1.1935000e+02	   2.3935046e-01	  -8.8572023e-02	
   1.1940500e+02	   2.3413703e-01	  -8.5621788e-02	
   1.1946000e+02	   2.2672139e-01	  -8.2442676e-02	
   1.1951500e+02	   2.1708167e-01	  -7.9057193e-02	
   1.1957000e+02	   2.0525796e-01	  -7.5482470e-02	
   1.1962500e+02	   1.9135709e-01	  -7.1731553e-02	
   1.1968000e+02	   1.7555270e-01	  -6.7816591e-02	
   1.1973500e+02	   1.5808158e-01	  -6.3753154e-02	
   1.1979000e+02	   1.3923826e-01	  -5.9564227e-02	
   1.1984500e+02	   1.1936830e-01	  -5.5282232e-02	
   1.1990000e+02	   9.8858490e-02	  -5.0948125e-02	
   1.1995500e+02	   7.8122227e-02	  -4.6607808e-02	
   1.2001000e+02	   5.7581101e-02	  -4.2306738e-02	
   1.2006500e+02	   3.7645684e-02	  -3.8084136e-02	
   1.2012000e+02	   1.8698554e-02	  -3.3968568e-02	
   1.2017500e+02	   1.0811979e-03	  -2.9976176e-02	
   1.2023000e+02	  -1.4914597e-02	  -2.6111342e-02	
   1.2028500e+02	  -2.9050949e-02	  -2.2368729e-02	
   1.2034000e+02	  -4.1144441e-02	  -1.8736014e-02	
   1.2039500e+02	  -5.1064668e-02	  -1.5197008e-02	
   1.2045000e+02	  -5.8732411e-02	  -1.1734740e-02	
   1.2050500e+02	  -6.4117780e-02	  -8.3339507e-03	
   1.2056000e+02	  -6.7237919e-02	  -4.9826008e-03	
   1.2061500e+02	  -6.8154079e-02	  -1.6723368e-03	
   1.2067000e+02	  -6.6967837e-02	   1.6020137e-03	
   1.2072500e+02	  -6.3815488e-02	   4.8439398e-03	
   1.2078000e+02	  -5.8860003e-02	   8.0574461e-03	
   1.2083500e+02	  -5.2281330e-02	   1.1248976e-02	
   1.2089000e+02	  -4.4266542e-02	   1.4428054e-02	
   1.2094500e+02	  -3.5000794e-02	   1.7606357e-02	
   1.2100000e+02	  -2.4659623e-02	   2.0795324e-02	
   1.2105500e+02	  -1.3403138e-02	   2.4002705e-02	
   1.2111000e+02	  -1.3724739e-03	   2.7229072e-02	
   1.2116500e+02	   1.1311693e-02	   3.0465798e-02	
   1.2122000e+02	   2.4548883e-02	   3.3695300e-02	
   1.2127500e+02	   3.8257062e-02	   3.6893137e-02	
   1.2133000e+02	   5.2369797e-02	   4.0030847e-02	
   1.2138500e+02	   6.6832487e-02	   4.3078641e-02	
   1.2144000e+02	   8.1597482e-02	   4.6007532e-02	
   1.2149500e+02	   9.6618094e-02	   4.8790603e-02	
   1.2155000e+02	   1.1184226e-01	   5.1403301e-02	
   1.2160500e+02	   1.2720697e-01	   5.3823114e-02	
   1.2166000e+02	   1.4263463e-01	   5.6029259e-02	
   1.2171500e+02	   1.5803163e-01	   5.8002552e-02	
   1.2177000e+02	   1.7328865e-01	   5.9725426e-02	
   1.2182500e+02	   1.8828194e-01	   6.1182621e-02	
   1.2188000e+02	   2.0287588e-01	   6.2363371e-02	
   1.2193500e+02	   2.1692759e-01	   6.3264668e-02	
   1.2199000e+02	   2.3029280e-01	   6.3893917e-02	
   1.2204500e+02	   2.4283146e-01	   6.4269887e-02	
   1.2210000e+02	   2.5441204e-01	   6.4422346e-02	
   1.2215500e+02	   2.6491516e-01	   6.4390931e-02	
   1.2221000e+02	   2.7423679e-01	   6.4222852e-02	
   1.2226500e+02	   2.8229078e-01	   6.3968972e-02	
   1.2232000e+02	   2.8901045e-01	   6.3678945e-02	
   1.2237500e+02	   2.9434911e-01	   6.3397093e-02	
   1.2243000e+02	   2.9827915e-01	   6.3160184e-02	
   1.2248500e+02	   3.0078932e-01	   6.2997215e-02	
   1.2254000e+02	   3.0188098e-01	   6.2930923e-02	
   1.2259500e+02	   3.0156470e-01	   6.2980424e-02	
   1.2265000e+02	   2.9985802e-01	   6.3163761e-02	
   1.2270500e+02	   2.9678523e-01	   6.3499451e-02	
   1.2276000e+02	   2.9238011e-01	   6.4007220e-02	
   1.2281500e+02	   2.8669247e-01	   6.4708350e-02	
   1.2287000e+02	   2.7979652e-01	   6.5625244e-02	
   1.2292500e+02	   2.7179765e-01	   6.6779671e-02	
   1.2298000e+02	   2.6283403e-01	   6.8189652e-02	
   1.2303500e+02	   2.5307170e-01	   6.9865417e-02	
   1.2309000e+02	   2.4269431e-01	   7.1805188e-02	
   1.2314500e+02	   2.3188960e-01	   7.3992272e-02	
   1.2320000e+02	   2.2083458e-01	   7.6395285e-02	
   1.2325500e+02	   2.0968204e-01	   7.8972410e-02	
   1.2331000e+02	   1.9855038e-01	   8.1678614e-02	
   1.2336500e+02	   1.8751817e-01	   8.4473170e-02	
   1.2342000e+02	   1.7662342e-01	   8.7325123e-02	
   1.2347500e+02	   1.6586773e-01	   9.0216040e-02	
   1.2353000e+02	   1.5522520e-01	   9.3140327e-02	
   1.2358500e+02	   1.4465474e-01	   9.6102973e-02	
   1.2364000e+02	   1.3411330e-01	   9.9114624e-02	
   1.2369500e+02	   1.2356825e-01	   1.0218513e-01	
   1.2375000e+02	   1.1300799e-01	   1.0531738e-01	
   1.2380500e+02	   1.0244904e-01	   1.0850250e-01	
   1.2386000e+02	   9.1938180e-02	   1.1171684e-01	
   1.2391500e+02	   8.1549732e-02	   1.1492159e-01	
   1.2397000e+02	   7.1379838e-02	   1.1806546e-01	
   1.2402500e+02	   6.1539402e-02	   1.2109015e-01	
   1.2408000e+02	   5.2146689e-02	   1.2393713e-01	
   1.2413500e+02	   4.3320332e-02	   1.2655441e-01	
   1.2419000e+02	   3.5173487e-02	   1.2890239e-01	
   1.2424500e+02	   2.7809292e-02	   1.3095766e-01	
   1.2430000e+02	   2.1316793e-02	   1.3271358e-01	
   1.2435500e+02	   1.5766390e-02	   1.3417788e-01	
   1.2441000e+02	   1.1205001e-02	   1.3536892e-01	
   1.2446500e+02	   7.6518099e-03	   1.3631283e-01	
   1.2452000e+02	   5.0948274e-03	   1.3704217e-01	
   1.2457500e+02	   3.4886127e-03	   1.3759506e-01	
   1.2463000e+02	   2.7555348e-03	   1.3801465e-01	
   1.2468500e+02	   2.7932814e-03	   1.3834856e-01	
   1.2474000e+02	   3.4880035e-03	   1.3864799e-01	
   1.2479500e+02	   4.7293455e-03	   1.3896534e-01	
   1.2485000e+02	   6.4239065e-03	   1.3935051e-01	
   1.2490500e+02	   8.5054890e-03	   1.3984623e-01	
   1.2496000e+02	   1.0941137e-02	   1.4048250e-01	
   1.2501500e+02	   1.3731959e-02	   1.4127039e-01	
   1.2507000e+02	   1.6908704e-02	   1.4219643e-01	
   1.2512500e+02	   2.0523690e-02	   1.4321948e-01	
   1.2518000e+02	   2.4641296e-02	   1.4427160e-01	
   1.2523500e+02	   2.9328661e-02	   1.4526269e-01	
   1.2529000e+02	   3.4647571e-02	   1.4608824e-01	
   1.2534500e+02	   4.0648156e-02	   1.4663912e-01	
   1.2540000e+02	   4.7364562e-02	   1.4681172e-01	
   1.2545500e+02	   5.4812139e-02	   1.4651640e-01	
   1.2551000e+02	   6.2984936e-02	   1.4568287e-01	
   1.2556500e+02	   7.1852715e-02	   1.4426227e-01	
   1.2562000e+02	   8.1358282e-02	   1.4222677e-01	
   1.2567500e+02	   9.1416346e-02	   1.3956753e-01	
   1.2573000e+02	   1.0191359e-01	   1.3629174e-01	
   1.2578500e+02	   1.1270904e-01	   1.3241953e-01	
   1.2584000e+02	   1.2363482e-01	   1.2798184e-01	
   1.2589500e+02	   1.3449827e-01	   1.2301991e-01	
   1.2595000e+02	   1.4508657e-01	   1.1758630e-01	
   1.2600500e+02	   1.5517421e-01	   1.1174602e-01	
   1.2606000e+02	   1.6453273e-01	   1.0557695e-01	
   1.2611500e+02	   1.7294131e-01	   9.9168657e-02	
   1.2617000e+02	   1.8019675e-01	   9.2618971e-02	
   1.2622500e+02	   1.8612263e-01	   8.6028761e-02	
   1.2628000e+02	   1.9057823e-01	   7.9496182e-02	
   1.2633500e+02	   1.9346667e-01	   7.3111871e-02	
   1.2639000e+02	   1.9474092e-01	   6.6955330e-02	
   1.2644500e+02	   1.9440610e-01	   6.1092241e-02	
   1.2650000e+02	   1.9251791e-01	   5.5572860e-02	
   1.2655500e+02	   1.8917822e-01	   5.0431923e-02	
   1.2661000e+02	   1.8452894e-01	   4.5690268e-02	
   1.2666500e+02	   1.7874502e-01	   4.1358091e-02	
   1.2672000e+02	   1.7202717e-01	   3.7439310e-02	
   1.2677500e+02	   1.6459477e-01	   3.3935742e-02	
   1.2683000e+02	   1.5667863e-01	   3.0849229e-02	
