
0   2   1   4	
   0.0000000e+00	   4.5251158e+00	   1.3234261e+01	   1.7633412e+00	
   5.5000000e-02	   4.6179827e+00	   1.3506778e+01	   1.5297791e+00	
   1.1000000e-01	   4.6119232e+00	   1.3268813e+01	   1.6920388e+00	
   1.6500000e-01	   4.3590023e+00	   1.3080686e+01	   1.9282510e+00	
   2.2000000e-01	   4.2601830e+00	   1.2994177e+01	   1.4024807e+00	
   2.7500000e-01	   4.1230829e+00	   1.2911667e+01	   1.3463391e+00	
   3.3000000e-01	   4.0556788e+00	   1.3047175e+01	   1.2197859e+00	
   3.8500000e-01	   4.6117879e+00	   1.3607651e+01	   1.7944376e+00	
   4.4000000e-01	   4.6949594e+00	   1.3674584e+01	   2.1337599e+00	
   4.9500000e-01	   4.5238253e+00	   1.3151421e+01	   2.0387702e+00	
   5.5000000e-01	   4.5979996e+00	   1.3116881e+01	   1.7957370e+00	
   6.0500000e-01	   4.5326387e+00	   1.3060897e+01	   2.1042235e+00	
   6.6000000e-01	   4.6197360e+00	   1.3621638e+01	   1.9729056e+00	
   7.1500000e-01	   4.3040498e+00	   1.3074230e+01	   1.5659412e+00	
   7.7000000e-01	   4.3044540e+00	   1.2757515e+01	   1.2610370e+00	
   8.2500000e-01	   4.1873291e+00	   1.2908919e+01	   1.5914828e+00	
   8.8000000e-01	   4.1995795e+00	   1.2864735e+01	   1.2486347e+00	
   9.3500000e-01	   4.0051657e+00	   1.2552456e+01	   1.1551738e+00	
   9.9000000e-01	   4.3358551e+00	   1.2900312e+01	   1.4236158e+00	
   1.0450000e+00	   4.3427271e+00	   1.3076576e+01	   1.8572978e+00	
   1.1000000e+00	   4.4836379e+00	   1.4032286e+01	   2.0991010e+00	
   1.1550000e+00	   4.5955310e+00	   1.3492577e+01	   2.1060477e+00	
   1.2100000e+00	   4.2413118e+00	   1.3201506e+01	   1.7964101e+00	
   1.2650000e+00	   4.1947037e+00	   1.2736399e+01	   1.9951607e+00	
   1.3200000e+00	   4.5469945e+00	   1.3223878e+01	   2.2299627e+00	
   1.3750000e+00	   4.2774802e+00	   1.3107426e+01	   1.7683543e+00	
   1.4300000e+00	   4.0826966e+00	   1.2856769e+01	   1.4070320e+00	
   1.4850000e+00	   3.8099516e+00	   1.2414282e+01	   1.4972770e+00	
   1.5400000e+00	   3.9729069e+00	   1.2537920e+01	   1.6150794e+00	
   1.5950000e+00	   4.2610752e+00	   1.3700404e+01	   1.4318382e+00	
   1.6500000e+00	   4.3355746e+00	   1.2800999e+01	   2.0254110e+00	
   1.7050000e+00	   4.5443651e+00	   1.3365436e+01	   2.5149146e+00	
   1.7600000e+00	   4.5605606e+00	   1.3650395e+01	   2.0384885e+00	
   1.8150000e+00	   4.4497318e+00	   1.3997539e+01	   2.0326688e+00	
   1.8700000e+00	   4.2667013e+00	   1.3412894e+01	   1.9305540e+00	
   1.9250000e+00	   4.4965276e+00	   1.3452143e+01	   1.8711765e+00	
   1.9800000e+00	   4.1076359e+00	   1.2814576e+01	   1.4033644e+00	
   2.0350000e+00	   3.8940967e+00	   1.2764367e+01	   1.2465987e+00	
   2.0900000e+00	   3.8542634e+00	   1.2830174e+01	   1.1133263e+00	
   2.1450000e+00	   3.9361383e+00	   1.2490153e+01	   1.5846415e+00	
   2.2000000e+00	   3.8580594e+00	   1.2692989e+01	   1.5864168e+00	
   2.2550000e+00	   4.3929696e+00	   1.3332961e+01	   2.0193557e+00	
   2.3100000e+00	   4.4669676e+00	   1.3490616e+01	   2.0985796e+00	
   2.3650000e+00	   4.4314253e+00	   1.3391175e+01	   2.0133290e+00	
   2.4200000e+00	   4.3691619e+00	   1.3400796e+01	   1.9044675e+00	
   2.4750000e+00	   4.2340034e+00	   1.3269119e+01	   1.6666189e+00	
   2.5300000e+00	   4.2480481e+00	   1.2703108e+01	   1.5880210e+00	
   2.5850000e+00	   4.1159155e+00	   1.2803446e+01	   1.4963239e+00	
   2.6400000e+00	   3.8976648e+00	   1.3126534e+01	   1.4419915e+00	
   2.6950000e+00	   4.1606434e+00	   1.3020732e+01	   1.3504467e+00	
   2.7500000e+00	   3.7005665e+00	   1.2018418e+01	   1.2846717e+00	
   2.8050000e+00	   3.6977075e+00	   1.2673436e+01	   1.0269122e+00	
   2.8600000e+00	   4.1805296e+00	   1.2482767e+01	   2.0189170e+00	
   2.9150000e+00	   4.3292327e+00	   1.3324538e+01	   2.1530706e+00	
   2.9700000e+00	   4.3394911e+00	   1.3406030e+01	   1.7889122e+00	
   3.0250000e+00	   4.1735086e+00	   1.3209029e+01	   1.9359478e+00	
   3.0800000e+00	   4.0515561e+00	   1.2769455e+01	   1.7655314e+00	
   3.1350000e+00	   4.1891785e+00	   1.3265370e+01	   1.7428320e+00	
   3.1900000e+00	   4.2865560e+00	   1.3229581e+01	   1.8407438e+00	
   3.2450000e+00	   3.9442174e+00	   1.2648096e+01	   1.5370009e+00	
   3.3000000e+00	   3.9415923e+00	   1.2789029e+01	   1.3911857e+00	
   3.3550000e+00	   3.7153307e+00	   1.3019977e+01	   1.6026873e+00	
   3.4100000e+00	   3.6408241e+00	   1.2810590e+01	   1.3365557e+00	
   3.4650000e+00	   3.6856989e+00	   1.2670848e+01	   1.7749353e+00	
   3.5200000e+00	   3.8590952e+00	   1.2800799e+01	   1.5017486e+00	
   3.5750000e+00	   3.9797220e+00	   1.3257439e+01	   1.6075572e+00	
   3.6300000e+00	   4.1165704e+00	   1.3297713e+01	   2.3482078e+00	
   3.6850000e+00	   4.2715859e+00	   1.2983750e+01	   1.9754803e+00	
   3.7400000e+00	   3.9523456e+00	   1.3132185e+01	   1.9082020e+00	
   3.7950000e+00	   3.8448921e+00	   1.2736297e+01	   1.4257085e+00	
   3.8500000e+00	   3.9215585e+00	   1.3101227e+01	   1.7935134e+00	
   3.9050000e+00	   3.8541495e+00	   1.2907733e+01	   1.7922330e+00	
   3.9600000e+00	   3.6255182e+00	   1.3249312e+01	   1.0045846e+00	
   4.0150000e+00	   3.2684160e+00	   1.2379413e+01	   9.9450217e-01	
   4.0700000e+00	   3.4064983e+00	   1.2554182e+01	   1.2155723e+00	
   4.1250000e+00	   3.9094985e+00	   1.2909808e+01	   1.7938480e+00	
   4.1800000e+00	   3.8237356e+00	   1.3227454e+01	   1.9221416e+00	
   4.2350000e+00	   3.9385046e+00	   1.3376693e+01	   2.3011314e+00	
   4.2900000e+00	   3.9921475e+00	   1.3224376e+01	   2.1413593e+00	
   4.3450000e+00	   3.8734583e+00	   1.3494220e+01	   1.8144191e+00	
   4.4000000e+00	   3.6796273e+00	   1.2854503e+01	   1.7588661e+00	
   4.4550000e+00	   3.7460221e+00	   1.2351815e+01	   1.6394689e+00	
   4.5100000e+00	   3.4523838e+00	   1.2339413e+01	   1.4068609e+00	
   4.5650000e+00	   3.5662173e+00	   1.2846272e+01	   1.6494625e+00	
   4.6200000e+00	   3.7208039e+00	   1.2158055e+01	   1.3715568e+00	
   4.6750000e+00	   3.4855053e+00	   1.2610998e+01	   1.4125163e+00	
   4.7300000e+00	   3.6656369e+00	   1.3175494e+01	   1.9054300e+00	
   4.7850000e+00	   3.7761230e+00	   1.3300609e+01	   2.1837482e+00	
   4.8400000e+00	   4.0266781e+00	   1.2765947e+01	   2.7059637e+00	
   4.8950000e+00	   3.8919767e+00	   1.2803918e+01	   2.0619125e+00	
   4.9500000e+00	   3.5472432e+00	   1.2718789e+01	   1.9346771e+00	
   5.0050000e+00	   3.7342249e+00	   1.2877916e+01	   1.9712534e+00	
   5.0600000e+00	   3.8849144e+00	   1.2621248e+01	   2.2806360e+00	
   5.1150000e+00	   3.5746601e+00	   1.2277235e+01	   1.3422894e+00	
   5.1700000e+00	   3.1719086e+00	   1.2443663e+01	   1.5434143e+00	
   5.2250000e+00	   3.3712778e+00	   1.2464370e+01	   1.6424375e+00	
   5.2800000e+00	   3.5041198e+00	   1.2878323e+01	   1.8341667e+00	
   5.3350000e+00	   3.7012186e+00	   1.2869598e+01	   1.7401790e+00	
   5.3900000e+00	   3.5622984e+00	   1.2700575e+01	   2.0213707e+00	
   5.4450000e+00	   3.9601708e+00	   1.2799350e+01	   2.2502342e+00	
   5.5000000e+00	   3.9980144e+00	   1.3074438e+01	   2.2685438e+00	
   5.5550000e+00	   3.8591348e+00	   1.3198597e+01	   2.2689590e+00	
   5.6100000e+00	   3.6123683e+00	   1.2685073e+01	   1.8655943e+00	
   5.6650000e+00	   3.7161103e+00	   1.1908223e+01	   1.9439446e+00	
   5.7200000e+00	   3.7505705e+00	   1.2633651e+01	   1.8812541e+00	
   5.7750000e+00	   3.7236770e+00	   1.2525949e+01	   1.6924146e+00	
   5.8300000e+00	   3.4383987e+00	   1.2264307e+01	   1.4411698e+00	
   5.8850000e+00	   3.4566984e+00	   1.2186192e+01	   1.3815009e+00	
   5.9400000e+00	   3.6501706e+00	   1.2370551e+01	   1.4130783e+00	
   5.9950000e+00	   3.8032664e+00	   1.2665926e+01	   1.9509937e+00	
   6.0500000e+00	   4.0088961e+00	   1.2782981e+01	   2.3798086e+00	
   6.1050000e+00	   3.9254070e+00	   1.2362695e+01	   2.3106305e+00	
   6.1600000e+00	   4.0532412e+00	   1.2968124e+01	   2.2999605e+00	
   6.2150000e+00	   4.1222883e+00	   1.2909626e+01	   2.1750794e+00	
   6.2700000e+00	   3.9516942e+00	   1.3111635e+01	   2.2550915e+00	
   6.3250000e+00	   3.6466931e+00	   1.2113802e+01	   1.6634800e+00	
   6.3800000e+00	   3.4269795e+00	   1.2045801e+01	   1.7628404e+00	
   6.4350000e+00	   3.7491308e+00	   1.2474341e+01	   2.2253727e+00	
   6.4900000e+00	   3.5025393e+00	   1.2623697e+01	   1.8629362e+00	
   6.5450000e+00	   3.3198863e+00	   1.1894759e+01	   1.4411698e+00	
   6.6000000e+00	   3.6460397e+00	   1.2455392e+01	   1.9891686e+00	
   6.6550000e+00	   4.0963496e+00	   1.3415962e+01	   2.2860844e+00	
   6.7100000e+00	   4.0906161e+00	   1.3038544e+01	   2.3221430e+00	
   6.7650000e+00	   4.0776856e+00	   1.2854596e+01	   2.2478654e+00	
   6.8200000e+00	   4.2349265e+00	   1.3235859e+01	   2.4343777e+00	
   6.8750000e+00	   4.1459759e+00	   1.3293234e+01	   2.3432096e+00	
   6.9300000e+00	   4.0334787e+00	   1.2564418e+01	   2.4186811e+00	
   6.9850000e+00	   3.8185009e+00	   1.2783229e+01	   1.9071772e+00	
   7.0400000e+00	   3.7062575e+00	   1.2397510e+01	   1.8162269e+00	
   7.0950000e+00	   3.7470383e+00	   1.2655707e+01	   2.0202775e+00	
   7.1500000e+00	   3.4430087e+00	   1.2472611e+01	   1.8506753e+00	
   7.2050000e+00	   3.4923263e+00	   1.2116666e+01	   1.5660533e+00	
   7.2600000e+00	   3.7731948e+00	   1.2769312e+01	   1.8606895e+00	
   7.3150000e+00	   3.8443526e+00	   1.3048926e+01	   2.2565977e+00	
   7.3700000e+00	   4.0881016e+00	   1.2660650e+01	   2.7156157e+00	
   7.4250000e+00	   4.0159211e+00	   1.3349687e+01	   2.5327837e+00	
   7.4800000e+00	   3.8577912e+00	   1.2358744e+01	   2.3346904e+00	
   7.5350000e+00	   3.7660802e+00	   1.2786777e+01	   2.2680507e+00	
   7.5900000e+00	   3.8935040e+00	   1.2679901e+01	   2.3913624e+00	
   7.6450000e+00	   3.7800706e+00	   1.2592464e+01	   2.0497928e+00	
   7.7000000e+00	   3.6912276e+00	   1.2068958e+01	   2.3124110e+00	
   7.7550000e+00	   3.5905914e+00	   1.2446019e+01	   1.7789228e+00	
   7.8100000e+00	   3.9178060e+00	   1.2893593e+01	   2.1909949e+00	
   7.8650000e+00	   3.8464492e+00	   1.3317101e+01	   2.1636410e+00	
   7.9200000e+00	   3.8618615e+00	   1.2470514e+01	   2.2127249e+00	
   7.9750000e+00	   3.8885070e+00	   1.2637741e+01	   2.4866208e+00	
   8.0300000e+00	   4.2892224e+00	   1.3115742e+01	   3.0325306e+00	
   8.0850000e+00	   3.9267704e+00	   1.3231468e+01	   2.4731028e+00	
   8.1400000e+00	   3.8946436e+00	   1.2348077e+01	   2.5528783e+00	
   8.1950000e+00	   3.9306199e+00	   1.2990988e+01	   2.3364594e+00	
   8.2500000e+00	   3.6849865e+00	   1.2566353e+01	   2.2582699e+00	
   8.3050000e+00	   3.6635512e+00	   1.2735975e+01	   2.4050944e+00	
   8.3600000e+00	   3.4826777e+00	   1.2559653e+01	   1.8659123e+00	
   8.4150000e+00	   3.3834894e+00	   1.2272024e+01	   1.7542551e+00	
   8.4700000e+00	   3.8245917e+00	   1.2935134e+01	   2.2691840e+00	
   8.5250000e+00	   4.0325169e+00	   1.2893426e+01	   2.4583118e+00	
   8.5800000e+00	   4.3151010e+00	   1.2958736e+01	   2.8147261e+00	
   8.6350000e+00	   3.9643589e+00	   1.2978131e+01	   2.4831597e+00	
   8.6900000e+00	   3.9477556e+00	   1.2592904e+01	   2.4006421e+00	
   8.7450000e+00	   4.0643616e+00	   1.2946461e+01	   2.2864578e+00	
   8.8000000e+00	   3.9729509e+00	   1.2128291e+01	   2.4092227e+00	
   8.8550000e+00	   3.9020008e+00	   1.2489565e+01	   2.3683397e+00	
   8.9100000e+00	   3.7699939e+00	   1.2183124e+01	   2.3005872e+00	
   8.9650000e+00	   3.7563926e+00	   1.1759824e+01	   2.3801785e+00	
   9.0200000e+00	   3.6293426e+00	   1.1738463e+01	   1.8493967e+00	
   9.0750000e+00	   3.7617474e+00	   1.2477803e+01	   2.0000369e+00	
   9.1300000e+00	   4.1428793e+00	   1.2773824e+01	   2.6834732e+00	
   9.1850000e+00	   4.1479944e+00	   1.3175582e+01	   3.0092961e+00	
   9.2400000e+00	   4.1105484e+00	   1.2773479e+01	   2.8221291e+00	
   9.2950000e+00	   4.1171261e+00	   1.2847442e+01	   2.7528930e+00	
   9.3500000e+00	   4.3081955e+00	   1.2915170e+01	   2.8335523e+00	
   9.4050000e+00	   4.2493208e+00	   1.3174379e+01	   2.8541773e+00	
   9.4600000e+00	   4.1845220e+00	   1.3110547e+01	   2.6699936e+00	
   9.5150000e+00	   3.8425542e+00	   1.2557683e+01	   2.3541204e+00	
   9.5700000e+00	   3.7206708e+00	   1.2516171e+01	   1.8576239e+00	
   9.6250000e+00	   3.8320859e+00	   1.2696926e+01	   2.1237935e+00	
   9.6800000e+00	   3.8614918e+00	   1.2453971e+01	   2.3618910e+00	
   9.7350000e+00	   4.2806159e+00	   1.2974325e+01	   2.8011790e+00	
   9.7900000e+00	   4.2779514e+00	   1.2727296e+01	   2.8849731e+00	
   9.8450000e+00	   4.3860292e+00	   1.3418571e+01	   2.9950408e+00	
   9.9000000e+00	   4.3620098e+00	   1.3036084e+01	   2.6756361e+00	
   9.9550000e+00	   4.3537748e+00	   1.2991929e+01	   2.8661615e+00	
   1.0010000e+01	   4.1396258e+00	   1.2864544e+01	   2.6763258e+00	
   1.0065000e+01	   3.8881501e+00	   1.2927109e+01	   2.8221559e+00	
   1.0120000e+01	   4.1528133e+00	   1.2847626e+01	   2.6330052e+00	
   1.0175000e+01	   4.2508874e+00	   1.2900785e+01	   2.2851360e+00	
   1.0230000e+01	   4.0692248e+00	   1.2666769e+01	   2.2736738e+00	
   1.0285000e+01	   3.6240452e+00	   1.2206787e+01	   2.0102864e+00	
   1.0340000e+01	   4.2174904e+00	   1.2818427e+01	   2.6894272e+00	
   1.0395000e+01	   4.5284674e+00	   1.3763070e+01	   2.8592802e+00	
   1.0450000e+01	   4.1803815e+00	   1.2978024e+01	   2.8219064e+00	
   1.0505000e+01	   4.3860132e+00	   1.2915508e+01	   2.8290088e+00	
   1.0560000e+01	   4.4757766e+00	   1.3231737e+01	   3.1580299e+00	
   1.0615000e+01	   4.3424773e+00	   1.3168372e+01	   2.4577693e+00	
   1.0670000e+01	   4.2941794e+00	   1.2953961e+01	   2.5951294e+00	
   1.0725000e+01	   4.2507279e+00	   1.2914906e+01	   2.8777993e+00	
   1.0780000e+01	   4.1191577e+00	   1.3052511e+01	   2.4211075e+00	
   1.0835000e+01	   4.1667462e+00	   1.2695171e+01	   2.4794108e+00	
   1.0890000e+01	   4.2138732e+00	   1.2899075e+01	   2.8497671e+00	
   1.0945000e+01	   4.0701721e+00	   1.2723695e+01	   2.4481066e+00	
   1.1000000e+01	   4.1982063e+00	   1.2394733e+01	   2.2440883e+00	
   1.1055000e+01	   4.2409480e+00	   1.3288734e+01	   2.7085178e+00	
   1.1110000e+01	   4.4032091e+00	   1.3466695e+01	   2.9785876e+00	
   1.1165000e+01	   4.4067344e+00	   1.3391182e+01	   2.9176353e+00	
   1.1220000e+01	   4.3421842e+00	   1.2967842e+01	   2.7708189e+00	
   1.1275000e+01	   4.4537859e+00	   1.2221279e+01	   3.0062152e+00	
   1.1330000e+01	   4.4510169e+00	   1.3452863e+01	   3.2058257e+00	
   1.1385000e+01	   4.0513593e+00	   1.3028803e+01	   2.5189657e+00	
   1.1440000e+01	   4.0567083e+00	   1.2457703e+01	   2.6468944e+00	
   1.1495000e+01	   4.1304333e+00	   1.2625288e+01	   2.8004083e+00	
   1.1550000e+01	   3.9740566e+00	   1.2927769e+01	   2.4731714e+00	
   1.1605000e+01	   3.8453157e+00	   1.2639695e+01	   2.4153593e+00	
   1.1660000e+01	   4.1732427e+00	   1.2932327e+01	   2.9588684e+00	
   1.1715000e+01	   4.7363045e+00	   1.3008197e+01	   3.2710476e+00	
   1.1770000e+01	   4.4519099e+00	   1.2796903e+01	   2.9991937e+00	
   1.1825000e+01	   4.1950184e+00	   1.3112440e+01	   2.8076733e+00	
   1.1880000e+01	   4.3333141e+00	   1.2723628e+01	   2.7829627e+00	
   1.1935000e+01	   4.2831275e+00	   1.2795145e+01	   2.4650794e+00	
   1.1990000e+01	   4.1065675e+00	   1.2866111e+01	   2.8153013e+00	
   1.2045000e+01	   4.1451666e+00	   1.2479571e+01	   1.9516139e+00	
   1.2100000e+01	   3.9130708e+00	   1.1929278e+01	   2.4367010e+00	
   1.2155000e+01	   3.8340202e+00	   1.1866278e+01	   2.1333961e+00	
   1.2210000e+01	   3.9545178e+00	   1.2748137e+01	   2.3257572e+00	
   1.2265000e+01	   4.2872292e+00	   1.3096956e+01	   2.8463738e+00	
   1.2320000e+01	   4.4335724e+00	   1.2810561e+01	   2.8849731e+00	
   1.2375000e+01	   4.2243339e+00	   1.3502410e+01	   3.0808341e+00	
   1.2430000e+01	   4.4143764e+00	   1.3528256e+01	   3.1322069e+00	
   1.2485000e+01	   4.4860082e+00	   1.3242929e+01	   3.2766522e+00	
   1.2540000e+01	   4.2310560e+00	   1.2830197e+01	   3.0544016e+00	
   1.2595000e+01	   4.1725743e+00	   1.2914593e+01	   2.4720455e+00	
   1.2650000e+01	   4.0139560e+00	   1.2121782e+01	   2.1633305e+00	
   1.2705000e+01	   4.2584179e+00	   1.2596926e+01	   2.6952344e+00	
   1.2760000e+01	   3.7271603e+00	   1.2528072e+01	   2.1758345e+00	
   1.2815000e+01	   3.6984075e+00	   1.1995654e+01	   2.0053141e+00	
   1.2870000e+01	   4.0431506e+00	   1.2665589e+01	   2.4185566e+00	
   1.2925000e+01	   4.4939147e+00	   1.3267790e+01	   2.7521264e+00	
   1.2980000e+01	   4.4506205e+00	   1.2847339e+01	   2.9852173e+00	
   1.3035000e+01	   4.1933884e+00	   1.2529325e+01	   2.4531234e+00	
   1.3090000e+01	   4.3275864e+00	   1.2928540e+01	   2.7656225e+00	
   1.3145000e+01	   4.4970519e+00	   1.2731993e+01	   3.1507271e+00	
   1.3200000e+01	   4.3835407e+00	   1.2779730e+01	   2.8080573e+00	
   1.3255000e+01	   4.2176204e+00	   1.2290283e+01	   2.4298367e+00	
   1.3310000e+01	   4.2458744e+00	   1.2548458e+01	   2.8406650e+00	
   1.3365000e+01	   3.8853522e+00	   1.2802858e+01	   2.4941475e+00	
   1.3420000e+01	   3.9749370e+00	   1.2544306e+01	   2.0933545e+00	
   1.3475000e+01	   3.8352150e+00	   1.1743272e+01	   1.9701532e+00	
   1.3530000e+01	   3.8030699e+00	   1.1695407e+01	   1.8226029e+00	
   1.3585000e+01	   4.1244865e+00	   1.2737752e+01	   2.1977149e+00	
   1.3640000e+01	   4.2540791e+00	   1.3154228e+01	   2.8221559e+00	
   1.3695000e+01	   4.6007192e+00	   1.2785372e+01	   2.8967253e+00	
   1.3750000e+01	   4.4476370e+00	   1.3045592e+01	   2.8710987e+00	
   1.3805000e+01	   4.2979034e+00	   1.2626256e+01	   2.7261264e+00	
   1.3860000e+01	   4.5102775e+00	   1.2705674e+01	   2.8406282e+00	
   1.3915000e+01	   4.2861589e+00	   1.3333970e+01	   2.2564432e+00	
   1.3970000e+01	   3.9472377e+00	   1.2448109e+01	   2.1548513e+00	
   1.4025000e+01	   3.8904905e+00	   1.2645130e+01	   1.8933139e+00	
   1.4080000e+01	   4.1022437e+00	   1.2907445e+01	   2.5394234e+00	
   1.4135000e+01	   3.8476670e+00	   1.2225768e+01	   1.9610390e+00	
   1.4190000e+01	   3.6660777e+00	   1.1801669e+01	   1.9065191e+00	
   1.4245000e+01	   4.0138100e+00	   1.2694068e+01	   2.0394803e+00	
   1.4300000e+01	   4.3342183e+00	   1.3112982e+01	   2.3225268e+00	
   1.4355000e+01	   4.2273700e+00	   1.2426307e+01	   2.5254542e+00	
   1.4410000e+01	   4.1771772e+00	   1.2564388e+01	   2.2479820e+00	
   1.4465000e+01	   4.1785066e+00	   1.2534995e+01	   2.4208114e+00	
   1.4520000e+01	   4.2747931e+00	   1.2812736e+01	   2.7274988e+00	
   1.4575000e+01	   4.4357514e+00	   1.3225049e+01	   2.3946536e+00	
   1.4630000e+01	   4.0289342e+00	   1.2302352e+01	   1.7988757e+00	
   1.4685000e+01	   3.8675511e+00	   1.2371880e+01	   2.1574578e+00	
   1.4740000e+01	   3.8900092e+00	   1.2108324e+01	   1.8541986e+00	
   1.4795000e+01	   3.7970265e+00	   1.2307735e+01	   1.9313482e+00	
   1.4850000e+01	   3.7433029e+00	   1.1856257e+01	   1.7004105e+00	
   1.4905000e+01	   3.7682301e+00	   1.1655724e+01	   1.7367901e+00	
   1.4960000e+01	   4.1676464e+00	   1.2418532e+01	   2.2666888e+00	
   1.5015000e+01	   4.2249720e+00	   1.2691242e+01	   2.1429984e+00	
   1.5070000e+01	   4.2901204e+00	   1.2390432e+01	   2.6281402e+00	
   1.5125000e+01	   3.7138970e+00	   1.1922474e+01	   2.1328209e+00	
   1.5180000e+01	   3.6718287e+00	   1.2015729e+01	   1.9289883e+00	
   1.5235000e+01	   3.9022132e+00	   1.2300216e+01	   1.8891941e+00	
   1.5290000e+01	   3.9386072e+00	   1.2571957e+01	   2.1726893e+00	
   1.5345000e+01	   3.4554293e+00	   1.1730359e+01	   1.4219022e+00	
   1.5400000e+01	   3.3811152e+00	   1.1712867e+01	   1.2981143e+00	
   1.5455000e+01	   3.2374041e+00	   1.1672417e+01	   1.6775600e+00	
   1.5510000e+01	   3.5957616e+00	   1.2055870e+01	   1.4000161e+00	
   1.5565000e+01	   3.8337206e+00	   1.2048099e+01	   1.8092312e+00	
   1.5620000e+01	   4.0145365e+00	   1.1773308e+01	   1.8512913e+00	
   1.5675000e+01	   4.0925982e+00	   1.2411559e+01	   2.2949900e+00	
   1.5730000e+01	   3.6698555e+00	   1.2362273e+01	   1.9447594e+00	
   1.5785000e+01	   3.5665393e+00	   1.2131450e+01	   1.8984690e+00	
   1.5840000e+01	   3.8110927e+00	   1.2338679e+01	   1.7988757e+00	
   1.5895000e+01	   3.5854795e+00	   1.1952441e+01	   1.5211958e+00	
   1.5950000e+01	   3.5314019e+00	   1.2171981e+01	   1.7103768e+00	
   1.6005000e+01	   3.5894762e+00	   1.2038458e+01	   1.0455959e+00	
   1.6060000e+01	   3.4805007e+00	   1.1541446e+01	   1.6201438e+00	
   1.6115000e+01	   3.2028647e+00	   1.1301604e+01	   1.2547704e+00	
   1.6170000e+01	   3.6984804e+00	   1.2485634e+01	   1.4080325e+00	
   1.6225000e+01	   4.0343301e+00	   1.2283108e+01	   1.8454049e+00	
   1.6280000e+01	   3.8244761e+00	   1.2099037e+01	   1.8188846e+00	
   1.6335000e+01	   3.9284853e+00	   1.2383881e+01	   1.6454490e+00	
   1.6390000e+01	   3.9719552e+00	   1.2676180e+01	   1.9624111e+00	
   1.6445000e+01	   3.8712740e+00	   1.2598882e+01	   2.0465566e+00	
   1.6500000e+01	   3.4913658e+00	   1.2183734e+01	   1.3532329e+00	
   1.6555000e+01	   3.6582534e+00	   1.2048637e+01	   1.6162816e+00	
   1.6610000e+01	   3.6893330e+00	   1.1913693e+01	   1.4601984e+00	
   1.6665000e+01	   3.5011718e+00	   1.2320812e+01	   1.7280377e+00	
   1.6720000e+01	   3.1579052e+00	   1.1712756e+01	   7.5359019e-01	
   1.6775000e+01	   3.1702895e+00	   1.1639919e+01	   1.0852055e+00	
   1.6830000e+01	   3.8453252e+00	   1.2449552e+01	   1.2971378e+00	
   1.6885000e+01	   3.8817363e+00	   1.2155058e+01	   1.5278320e+00	
   1.6940000e+01	   3.7827051e+00	   1.2192932e+01	   1.2533496e+00	
   1.6995000e+01	   3.9236306e+00	   1.2289969e+01	   1.4852040e+00	
   1.7050000e+01	   3.8284536e+00	   1.2864252e+01	   1.8400239e+00	
   1.7105000e+01	   3.8357887e+00	   1.2608870e+01	   1.6001978e+00	
   1.7160000e+01	   3.8209207e+00	   1.2783525e+01	   1.2934903e+00	
   1.7215000e+01	   3.6378628e+00	   1.1900213e+01	   1.6713731e+00	
   1.7270000e+01	   3.4922470e+00	   1.1951423e+01	   8.5863899e-01	
   1.7325000e+01	   3.5191740e+00	   1.1685587e+01	   9.1244155e-01	
   1.7380000e+01	   3.4084688e+00	   1.1967809e+01	   1.3094731e+00	
   1.7435000e+01	   3.1664168e+00	   1.1811855e+01	   1.0193742e+00	
   1.7490000e+01	   3.6345472e+00	   1.2064622e+01	   9.7958251e-01	
   1.7545000e+01	   3.8390245e+00	   1.2418768e+01	   1.4442241e+00	
   1.7600000e+01	   3.8987067e+00	   1.2795390e+01	   1.8677261e+00	
   1.7655000e+01	   3.7988978e+00	   1.2688339e+01	   1.7752240e+00	
   1.7710000e+01	   3.7131025e+00	   1.2501302e+01	   1.3703414e+00	
   1.7765000e+01	   3.8721912e+00	   1.2467260e+01	   1.4020770e+00	
   1.7820000e+01	   3.9289185e+00	   1.1942224e+01	   1.5871016e+00	
   1.7875000e+01	   3.5145684e+00	   1.1849522e+01	   1.0924754e+00	
   1.7930000e+01	   3.4354380e+00	   1.2159145e+01	   7.6210270e-01	
   1.7985000e+01	   3.4135453e+00	   1.1643108e+01	   1.3502409e+00	
   1.8040000e+01	   3.1131694e+00	   1.1563808e+01	   8.9256698e-01	
   1.8095000e+01	   3.6229052e+00	   1.2259704e+01	   1.0521234e+00	
   1.8150000e+01	   3.7749600e+00	   1.2097555e+01	   1.3413520e+00	
   1.8205000e+01	   3.7811888e+00	   1.2267859e+01	   1.4065548e+00	
   1.8260000e+01	   3.8140084e+00	   1.2524709e+01	   1.2255557e+00	
   1.8315000e+01	   3.7899814e+00	   1.2170186e+01	   1.3686664e+00	
   1.8370000e+01	   3.8018558e+00	   1.2388521e+01	   1.4299319e+00	
   1.8425000e+01	   3.5050885e+00	   1.2472213e+01	   1.2080053e+00	
   1.8480000e+01	   3.4967775e+00	   1.2111812e+01	   1.2151127e+00	
   1.8535000e+01	   3.4419496e+00	   1.1847944e+01	   1.1826787e+00	
   1.8590000e+01	   3.4092152e+00	   1.2292799e+01	   5.6775843e-01	
   1.8645000e+01	   3.2626652e+00	   1.1948940e+01	   6.8542397e-01	
   1.8700000e+01	   3.6138472e+00	   1.2728282e+01	   9.4329349e-01	
   1.8755000e+01	   3.7683643e+00	   1.2709779e+01	   1.5255484e+00	
   1.8810000e+01	   3.9158625e+00	   1.2286187e+01	   1.6837984e+00	
   1.8865000e+01	   3.6328083e+00	   1.2327461e+01	   1.5549184e+00	
   1.8920000e+01	   3.6007749e+00	   1.2127757e+01	   1.4993680e+00	
   1.8975000e+01	   3.8955785e+00	   1.2810284e+01	   1.7264279e+00	
   1.9030000e+01	   3.6334226e+00	   1.2504516e+01	   1.0938908e+00	
   1.9085000e+01	   3.5243578e+00	   1.2197335e+01	   1.0382815e+00	
   1.9140000e+01	   3.5391711e+00	   1.2297888e+01	   1.4941802e+00	
   1.9195000e+01	   3.6601697e+00	   1.2207558e+01	   1.1451726e+00	
   1.9250000e+01	   3.3760492e+00	   1.1666345e+01	   1.3151586e+00	
   1.9305000e+01	   3.5949338e+00	   1.2420312e+01	   1.2428949e+00	
   1.9360000e+01	   3.9568204e+00	   1.2316477e+01	   1.4042830e+00	
   1.9415000e+01	   4.0449761e+00	   1.3127546e+01	   1.9053528e+00	
   1.9470000e+01	   3.8873023e+00	   1.2531181e+01	   1.4703975e+00	
   1.9525000e+01	   3.6791249e+00	   1.2291708e+01	   1.4213176e+00	
   1.9580000e+01	   3.9318641e+00	   1.2520313e+01	   2.0457027e+00	
   1.9635000e+01	   3.9500907e+00	   1.2563505e+01	   1.7279734e+00	
   1.9690000e+01	   3.5865552e+00	   1.2598163e+01	   1.3469664e+00	
   1.9745000e+01	   3.6039141e+00	   1.2560220e+01	   1.0738968e+00	
   1.9800000e+01	   3.4365380e+00	   1.1925604e+01	   9.8550704e-01	
   1.9855000e+01	   3.3607295e+00	   1.2189520e+01	   8.8523940e-01	
   1.9910000e+01	   3.4203017e+00	   1.2034873e+01	   1.0622701e+00	
   1.9965000e+01	   4.0383354e+00	   1.2622067e+01	   1.8087473e+00	
   2.0020000e+01	   3.5352739e+00	   1.2559331e+01	   1.6778444e+00	
   2.0075000e+01	   3.7373598e+00	   1.3049010e+01	   1.9296775e+00	
   2.0130000e+01	   4.0214441e+00	   1.2984212e+01	   2.0965250e+00	
   2.0185000e+01	   4.2375795e+00	   1.2834101e+01	   1.7447252e+00	
   2.0240000e+01	   3.7617153e+00	   1.2787776e+01	   1.6208856e+00	
   2.0295000e+01	   3.6682453e+00	   1.2582615e+01	   1.5651268e+00	
   2.0350000e+01	   3.9015431e+00	   1.2171395e+01	   2.0991734e+00	
   2.0405000e+01	   3.4613818e+00	   1.1997885e+01	   1.2679205e+00	
   2.0460000e+01	   3.4474179e+00	   1.1983386e+01	   1.2751866e+00	
   2.0515000e+01	   3.4088552e+00	   1.1985631e+01	   1.1431285e+00	
   2.0570000e+01	   3.7521484e+00	   1.2163261e+01	   1.7173199e+00	
   2.0625000e+01	   3.9146444e+00	   1.2800384e+01	   1.7958438e+00	
   2.0680000e+01	   4.0015503e+00	   1.2291972e+01	   2.1336200e+00	
   2.0735000e+01	   4.0086589e+00	   1.2952229e+01	   1.9434389e+00	
   2.0790000e+01	   4.0314760e+00	   1.2825055e+01	   2.4596563e+00	
   2.0845000e+01	   3.9831076e+00	   1.2710738e+01	   2.0533563e+00	
   2.0900000e+01	   3.9365915e+00	   1.2484346e+01	   1.9912156e+00	
   2.0955000e+01	   3.9004196e+00	   1.2957244e+01	   2.0094842e+00	
   2.1010000e+01	   3.7699278e+00	   1.2146144e+01	   1.8652492e+00	
   2.1065000e+01	   3.5399551e+00	   1.1824056e+01	   1.8792818e+00	
   2.1120000e+01	   3.5363400e+00	   1.2315420e+01	   1.2991564e+00	
   2.1175000e+01	   3.5317243e+00	   1.1797378e+01	   1.5553365e+00	
   2.1230000e+01	   3.4456555e+00	   1.1760587e+01	   1.2590287e+00	
   2.1285000e+01	   3.8949988e+00	   1.2502361e+01	   1.8664608e+00	
   2.1340000e+01	   4.0522450e+00	   1.2693410e+01	   1.9403781e+00	
   2.1395000e+01	   4.0051286e+00	   1.2498173e+01	   2.1003343e+00	
   2.1450000e+01	   4.0960657e+00	   1.2836330e+01	   2.1457208e+00	
   2.1505000e+01	   4.0156653e+00	   1.2642598e+01	   2.4442598e+00	
   2.1560000e+01	   3.8400950e+00	   1.2825930e+01	   2.0915095e+00	
   2.1615000e+01	   3.7907013e+00	   1.2276290e+01	   2.0356603e+00	
   2.1670000e+01	   3.6675627e+00	   1.1739646e+01	   1.6789656e+00	
   2.1725000e+01	   4.0097369e+00	   1.2350895e+01	   1.9988015e+00	
   2.1780000e+01	   3.7262109e+00	   1.2220547e+01	   1.9881123e+00	
   2.1835000e+01	   3.2395493e+00	   1.1851878e+01	   1.3922254e+00	
   2.1890000e+01	   3.5778338e+00	   1.2028739e+01	   1.1819786e+00	
   2.1945000e+01	   3.7273359e+00	   1.2914132e+01	   1.9090972e+00	
   2.2000000e+01	   3.9287945e+00	   1.2806085e+01	   2.1656435e+00	
   2.2055000e+01	   3.7672664e+00	   1.2496691e+01	   2.0066352e+00	
   2.2110000e+01	   3.6506783e+00	   1.2631967e+01	   2.1056344e+00	
   2.2165000e+01	   3.8865896e+00	   1.2218733e+01	   2.0978011e+00	
   2.2220000e+01	   3.7587334e+00	   1.2378326e+01	   1.9580298e+00	
   2.2275000e+01	   3.7020569e+00	   1.2468373e+01	   1.6900071e+00	
   2.2330000e+01	   3.7681209e+00	   1.2166821e+01	   1.8583468e+00	
   2.2385000e+01	   3.5067181e+00	   1.1407208e+01	   1.8130415e+00	
   2.2440000e+01	   3.4837164e+00	   1.2242893e+01	   1.1915615e+00	
   2.2495000e+01	   3.3072620e+00	   1.1824572e+01	   1.5630898e+00	
   2.2550000e+01	   3.2908608e+00	   1.1393484e+01	   1.3906529e+00	
   2.2605000e+01	   3.6907508e+00	   1.2477919e+01	   1.3618181e+00	
   2.2660000e+01	   3.7738458e+00	   1.2578805e+01	   2.2443712e+00	
   2.2715000e+01	   3.9505882e+00	   1.2313071e+01	   2.3465228e+00	
   2.2770000e+01	   3.7880738e+00	   1.2289683e+01	   1.9223900e+00	
   2.2825000e+01	   3.7609337e+00	   1.2397566e+01	   1.9876700e+00	
   2.2880000e+01	   3.9069942e+00	   1.2620278e+01	   1.7152324e+00	
   2.2935000e+01	   3.8584269e+00	   1.2122873e+01	   1.9220139e+00	
   2.2990000e+01	   3.4825360e+00	   1.2551774e+01	   1.4000676e+00	
   2.3045000e+01	   3.3870517e+00	   1.2334180e+01	   1.4262000e+00	
   2.3100000e+01	   3.6816058e+00	   1.1985310e+01	   1.9200674e+00	
   2.3155000e+01	   3.0472915e+00	   1.1916593e+01	   1.1265695e+00	
   2.3210000e+01	   3.4478035e+00	   1.2145365e+01	   1.4371767e+00	
   2.3265000e+01	   3.7894340e+00	   1.2679971e+01	   2.0942684e+00	
   2.3320000e+01	   3.7703018e+00	   1.2408577e+01	   1.8607774e+00	
   2.3375000e+01	   3.6903927e+00	   1.2418521e+01	   1.5670428e+00	
   2.3430000e+01	   3.5686426e+00	   1.2143339e+01	   1.8779649e+00	
   2.3485000e+01	   3.5686968e+00	   1.2128554e+01	   1.6507588e+00	
   2.3540000e+01	   3.7328885e+00	   1.2160859e+01	   1.5633679e+00	
   2.3595000e+01	   3.3714276e+00	   1.1671890e+01	   1.4680946e+00	
   2.3650000e+01	   3.3848504e+00	   1.2334308e+01	   1.3199699e+00	
   2.3705000e+01	   3.3191100e+00	   1.1713278e+01	   1.1967133e+00	
   2.3760000e+01	   3.0827913e+00	   1.1551840e+01	   1.0329777e+00	
   2.3815000e+01	   3.4324496e+00	   1.2185222e+01	   1.3187489e+00	
   2.3870000e+01	   3.8688523e+00	   1.2507994e+01	   1.6195882e+00	
   2.3925000e+01	   3.5949116e+00	   1.2681525e+01	   1.5651268e+00	
   2.3980000e+01	   3.5886519e+00	   1.2179174e+01	   1.9251070e+00	
   2.4035000e+01	   3.6771385e+00	   1.2255661e+01	   1.4845909e+00	
   2.4090000e+01	   3.6780678e+00	   1.2219581e+01	   2.1841046e+00	
   2.4145000e+01	   3.5053571e+00	   1.2134519e+01	   1.6129831e+00	
   2.4200000e+01	   3.4226611e+00	   1.1920582e+01	   8.4758866e-01	
   2.4255000e+01	   3.5157001e+00	   1.2089257e+01	   1.7291531e+00	
   2.4310000e+01	   3.4246370e+00	   1.2473306e+01	   1.4091919e+00	
   2.4365000e+01	   3.2500798e+00	   1.1603466e+01	   1.3058729e+00	
   2.4420000e+01	   3.2191723e+00	   1.2264559e+01	   1.0268059e+00	
   2.4475000e+01	   3.6805170e+00	   1.2742299e+01	   1.9881123e+00	
   2.4530000e+01	   3.7208236e+00	   1.2468777e+01	   2.1243870e+00	
   2.4585000e+01	   3.6976446e+00	   1.2160439e+01	   1.9751522e+00	
   2.4640000e+01	   3.6675234e+00	   1.2543800e+01	   1.5989232e+00	
   2.4695000e+01	   3.9176009e+00	   1.2625761e+01	   1.8701548e+00	
   2.4750000e+01	   3.9858678e+00	   1.2642577e+01	   1.8353340e+00	
   2.4805000e+01	   3.4462816e+00	   1.2525145e+01	   1.4894689e+00	
   2.4860000e+01	   3.5114130e+00	   1.2259719e+01	   1.6414066e+00	
   2.4915000e+01	   3.3623837e+00	   1.2088892e+01	   1.4690884e+00	
   2.4970000e+01	   3.2552237e+00	   1.1774809e+01	   1.4200841e+00	
   2.5025000e+01	   3.1925103e+00	   1.1761788e+01	   1.1640156e+00	
   2.5080000e+01	   3.7194106e+00	   1.2289744e+01	   1.4164952e+00	
   2.5135000e+01	   3.6831805e+00	   1.2746492e+01	   1.6691679e+00	
   2.5190000e+01	   3.9764532e+00	   1.2310701e+01	   2.0753311e+00	
   2.5245000e+01	   3.7738153e+00	   1.2419792e+01	   1.9219301e+00	
   2.5300000e+01	   3.7868032e+00	   1.2742472e+01	   1.9816184e+00	
   2.5355000e+01	   3.7988536e+00	   1.2714454e+01	   2.0055503e+00	
   2.5410000e+01	   3.8168491e+00	   1.2581740e+01	   2.1867031e+00	
   2.5465000e+01	   3.7473236e+00	   1.2421935e+01	   1.8691015e+00	
   2.5520000e+01	   3.2711181e+00	   1.2146776e+01	   1.0575002e+00	
   2.5575000e+01	   3.2464305e+00	   1.1802690e+01	   1.3120131e+00	
   2.5630000e+01	   3.4482285e+00	   1.1777523e+01	   1.3387789e+00	
   2.5685000e+01	   3.3860511e+00	   1.2163120e+01	   1.4296144e+00	
   2.5740000e+01	   3.7711388e+00	   1.2075357e+01	   1.4781635e+00	
   2.5795000e+01	   3.7899814e+00	   1.2623841e+01	   1.8821521e+00	
   2.5850000e+01	   3.8108595e+00	   1.2693655e+01	   1.9689354e+00	
   2.5905000e+01	   3.8235147e+00	   1.2864334e+01	   2.0251674e+00	
   2.5960000e+01	   3.6827948e+00	   1.2998505e+01	   1.6861306e+00	
   2.6015000e+01	   3.6830658e+00	   1.2324241e+01	   1.8767988e+00	
   2.6070000e+01	   3.6688540e+00	   1.2957327e+01	   1.7378130e+00	
   2.6125000e+01	   3.6759454e+00	   1.2618621e+01	   2.1704226e+00	
   2.6180000e+01	   3.5483624e+00	   1.2216390e+01	   1.3201983e+00	
   2.6235000e+01	   3.3548395e+00	   1.1673519e+01	   9.5211367e-01	
   2.6290000e+01	   3.1894439e+00	   1.1552134e+01	   1.1036848e+00	
   2.6345000e+01	   3.2488863e+00	   1.1899072e+01	   1.1413395e+00	
   2.6400000e+01	   3.5238644e+00	   1.2105845e+01	   1.3534670e+00	
   2.6455000e+01	   3.5727477e+00	   1.2544117e+01	   1.8071111e+00	
   2.6510000e+01	   3.5456914e+00	   1.2527666e+01	   1.6671698e+00	
   2.6565000e+01	   3.5189552e+00	   1.2315404e+01	   1.8974444e+00	
   2.6620000e+01	   3.8468587e+00	   1.2963591e+01	   1.8468930e+00	
   2.6675000e+01	   3.7556013e+00	   1.2775022e+01	   1.7152324e+00	
   2.6730000e+01	   3.5332518e+00	   1.2452827e+01	   1.4888031e+00	
   2.6785000e+01	   3.4640528e+00	   1.2522719e+01	   1.4781635e+00	
   2.6840000e+01	   3.4671859e+00	   1.2482758e+01	   1.4263610e+00	
   2.6895000e+01	   3.3114015e+00	   1.2248815e+01	   1.2176971e+00	
   2.6950000e+01	   3.1035212e+00	   1.1706721e+01	   9.2665162e-01	
   2.7005000e+01	   3.3741373e+00	   1.2433012e+01	   1.1967133e+00	
   2.7060000e+01	   3.9159954e+00	   1.2753306e+01	   2.1202722e+00	
   2.7115000e+01	   3.7949586e+00	   1.2882642e+01	   1.9257943e+00	
   2.7170000e+01	   3.5362941e+00	   1.2080888e+01	   1.8181508e+00	
   2.7225000e+01	   3.6214236e+00	   1.2454753e+01	   1.2901182e+00	
   2.7280000e+01	   3.6587012e+00	   1.2743576e+01	   1.8929179e+00	
   2.7335000e+01	   3.3023813e+00	   1.2603169e+01	   1.6317941e+00	
   2.7390000e+01	   3.3306958e+00	   1.2597967e+01	   1.0300448e+00	
   2.7445000e+01	   3.3057193e+00	   1.2165026e+01	   1.4201395e+00	
   2.7500000e+01	   3.2493764e+00	   1.2495724e+01	   1.4481414e+00	
   2.7555000e+01	   2.9108221e+00	   1.1319903e+01	   9.1231078e-01	
   2.7610000e+01	   3.0412511e+00	   1.1957476e+01	   8.6540506e-01	
   2.7665000e+01	   3.6061323e+00	   1.2099656e+01	   1.7841394e+00	
   2.7720000e+01	   3.6883110e+00	   1.2781703e+01	   2.2363227e+00	
   2.7775000e+01	   3.6848621e+00	   1.2742819e+01	   1.5713221e+00	
   2.7830000e+01	   3.5695169e+00	   1.2614189e+01	   1.7928582e+00	
   2.7885000e+01	   3.5000822e+00	   1.2579315e+01	   1.9447594e+00	
   2.7940000e+01	   3.5229913e+00	   1.2552356e+01	   1.9257943e+00	
   2.7995000e+01	   3.4883170e+00	   1.2298534e+01	   1.4821957e+00	
   2.8050000e+01	   3.3116716e+00	   1.2138598e+01	   1.4818676e+00	
   2.8105000e+01	   3.3563017e+00	   1.2457394e+01	   1.3698565e+00	
   2.8160000e+01	   3.2883505e+00	   1.2041971e+01	   1.2305496e+00	
   2.8215000e+01	   3.1714850e+00	   1.2125329e+01	   1.1166232e+00	
   2.8270000e+01	   3.4712855e+00	   1.2674150e+01	   1.4200841e+00	
   2.8325000e+01	   3.6363473e+00	   1.2536986e+01	   1.6664530e+00	
   2.8380000e+01	   3.7433634e+00	   1.2589825e+01	   1.7814867e+00	
   2.8435000e+01	   3.9476934e+00	   1.2954742e+01	   2.0636923e+00	
   2.8490000e+01	   3.6799304e+00	   1.2466491e+01	   1.7230534e+00	
   2.8545000e+01	   3.5906046e+00	   1.2235947e+01	   1.8701548e+00	
   2.8600000e+01	   3.7461851e+00	   1.2465809e+01	   2.2433433e+00	
   2.8655000e+01	   3.6898021e+00	   1.2279876e+01	   2.3152683e+00	
   2.8710000e+01	   3.4305440e+00	   1.2428762e+01	   1.6902229e+00	
   2.8765000e+01	   3.2252324e+00	   1.2166707e+01	   1.0396433e+00	
   2.8820000e+01	   3.1611000e+00	   1.1870484e+01	   1.6081031e+00	
   2.8875000e+01	   3.0927314e+00	   1.2016070e+01	   1.3566955e+00	
   2.8930000e+01	   3.4395003e+00	   1.2003508e+01	   1.4404710e+00	
   2.8985000e+01	   3.5764437e+00	   1.2619380e+01	   1.8087473e+00	
   2.9040000e+01	   3.6949839e+00	   1.2590117e+01	   1.9673166e+00	
   2.9095000e+01	   3.7134743e+00	   1.2875304e+01	   2.0787845e+00	
   2.9150000e+01	   3.7367501e+00	   1.2348980e+01	   2.0548121e+00	
   2.9205000e+01	   4.0060464e+00	   1.2599338e+01	   1.5843386e+00	
   2.9260000e+01	   3.5542873e+00	   1.2906585e+01	   1.8005165e+00	
   2.9315000e+01	   3.5947455e+00	   1.2366674e+01	   1.8142841e+00	
   2.9370000e+01	   3.5546889e+00	   1.2438689e+01	   1.7626778e+00	
   2.9425000e+01	   3.3512500e+00	   1.2140881e+01	   1.6304968e+00	
   2.9480000e+01	   3.2173947e+00	   1.2638519e+01	   1.4269547e+00	
   2.9535000e+01	   3.2716741e+00	   1.1922755e+01	   1.4216454e+00	
   2.9590000e+01	   3.3325488e+00	   1.2147465e+01	   1.7363145e+00	
   2.9645000e+01	   3.5081219e+00	   1.2349935e+01	   1.6944728e+00	
   2.9700000e+01	   3.6854895e+00	   1.2860001e+01	   2.0119369e+00	
   2.9755000e+01	   3.7796692e+00	   1.2816827e+01	   2.1466211e+00	
   2.9810000e+01	   3.6954275e+00	   1.2092790e+01	   2.0194641e+00	
   2.9865000e+01	   3.6291614e+00	   1.2721390e+01	   1.6570757e+00	
   2.9920000e+01	   3.5759505e+00	   1.2507109e+01	   1.9396649e+00	
   2.9975000e+01	   3.6121745e+00	   1.2250291e+01	   1.7263165e+00	
   3.0030000e+01	   3.8889451e+00	   1.2864398e+01	   2.1401231e+00	
   3.0085000e+01	   3.5327684e+00	   1.2613993e+01	   1.9720982e+00	
   3.0140000e+01	   3.4074067e+00	   1.2170993e+01	   1.5567970e+00	
   3.0195000e+01	   3.0912037e+00	   1.2003041e+01	   1.2166694e+00	
   3.0250000e+01	   3.2706891e+00	   1.1983151e+01	   1.6273596e+00	
   3.0305000e+01	   3.6345046e+00	   1.2593793e+01	   1.7631057e+00	
   3.0360000e+01	   3.7524608e+00	   1.2495260e+01	   1.7955473e+00	
   3.0415000e+01	   3.3441841e+00	   1.2148908e+01	   1.6748084e+00	
   3.0470000e+01	   3.6104141e+00	   1.2837553e+01	   1.8758372e+00	
   3.0525000e+01	   3.5626137e+00	   1.2788971e+01	   1.6478771e+00	
   3.0580000e+01	   3.6019970e+00	   1.2668771e+01	   1.4000676e+00	
   3.0635000e+01	   3.6717940e+00	   1.2617479e+01	   1.7604111e+00	
   3.0690000e+01	   3.4016367e+00	   1.2420113e+01	   1.7320973e+00	
   3.0745000e+01	   3.2510973e+00	   1.2455092e+01	   1.4703596e+00	
   3.0800000e+01	   3.1868639e+00	   1.1827126e+01	   1.4387015e+00	
   3.0855000e+01	   2.9611541e+00	   1.1782508e+01	   1.0925034e+00	
   3.0910000e+01	   2.7954636e+00	   1.1928628e+01	   1.1205030e+00	
   3.0965000e+01	   3.5464940e+00	   1.2879235e+01	   2.2194769e+00	
   3.1020000e+01	   3.4081060e+00	   1.1961647e+01	   1.7540800e+00	
   3.1075000e+01	   3.2887710e+00	   1.2463199e+01	   1.5850479e+00	
   3.1130000e+01	   3.3041008e+00	   1.2196987e+01	   1.5598226e+00	
   3.1185000e+01	   3.5003743e+00	   1.2759165e+01	   1.9712151e+00	
   3.1240000e+01	   3.3280521e+00	   1.2350968e+01	   1.6243564e+00	
   3.1295000e+01	   3.2500511e+00	   1.2100986e+01	   1.3899965e+00	
   3.1350000e+01	   3.2155736e+00	   1.2301395e+01	   1.6347267e+00	
   3.1405000e+01	   3.1918736e+00	   1.2208575e+01	   1.3457964e+00	
   3.1460000e+01	   2.7373484e+00	   1.1635251e+01	   7.3225534e-01	
   3.1515000e+01	   2.6363088e+00	   1.1961140e+01	   1.1153349e+00	
   3.1570000e+01	   2.8911541e+00	   1.2028767e+01	   1.2169526e+00	
   3.1625000e+01	   3.2628744e+00	   1.2480054e+01	   1.4501440e+00	
   3.1680000e+01	   3.2600837e+00	   1.2702066e+01	   1.6210905e+00	
   3.1735000e+01	   3.2849568e+00	   1.2065354e+01	   2.0559321e+00	
   3.1790000e+01	   3.4525566e+00	   1.2759700e+01	   1.9561468e+00	
   3.1845000e+01	   3.3162412e+00	   1.2352774e+01	   1.7136346e+00	
   3.1900000e+01	   3.4174223e+00	   1.2554661e+01	   1.5583227e+00	
   3.1955000e+01	   3.2962378e+00	   1.2365297e+01	   1.7765140e+00	
   3.2010000e+01	   2.9957115e+00	   1.2403847e+01	   1.4000676e+00	
   3.2065000e+01	   3.1446897e+00	   1.2135420e+01	   1.5025454e+00	
   3.2120000e+01	   3.1924506e+00	   1.1970667e+01	   1.6235690e+00	
   3.2175000e+01	   2.8617681e+00	   1.1807398e+01	   1.0852055e+00	
   3.2230000e+01	   2.6275272e+00	   1.1296299e+01	   1.1432254e+00	
   3.2285000e+01	   3.1491658e+00	   1.2222593e+01	   1.7251747e+00	
   3.2340000e+01	   3.7231880e+00	   1.2803962e+01	   2.2415184e+00	
   3.2395000e+01	   3.4474765e+00	   1.2835720e+01	   1.9600817e+00	
   3.2450000e+01	   3.2323585e+00	   1.1961011e+01	   1.8163523e+00	
   3.2505000e+01	   3.5588829e+00	   1.2910551e+01	   2.1264605e+00	
   3.2560000e+01	   3.2696164e+00	   1.2211806e+01	   1.8443422e+00	
   3.2615000e+01	   3.3198326e+00	   1.2186382e+01	   1.8028699e+00	
   3.2670000e+01	   3.2920935e+00	   1.2348423e+01	   1.4726045e+00	
   3.2725000e+01	   3.1243914e+00	   1.2176143e+01	   1.5340729e+00	
   3.2780000e+01	   3.0995660e+00	   1.2562161e+01	   1.5025068e+00	
   3.2835000e+01	   3.0582476e+00	   1.1784927e+01	   1.0360938e+00	
   3.2890000e+01	   2.7970478e+00	   1.1724875e+01	   9.4693033e-01	
   3.2945000e+01	   3.0335538e+00	   1.2819411e+01	   1.4097763e+00	
   3.3000000e+01	   3.4870513e+00	   1.2260748e+01	   2.2433324e+00	
   3.3055000e+01	   3.4404203e+00	   1.2636722e+01	   2.0352224e+00	
   3.3110000e+01	   3.4231416e+00	   1.2510301e+01	   1.9283976e+00	
   3.3165000e+01	   3.2602869e+00	   1.2285008e+01	   1.8933139e+00	
   3.3220000e+01	   3.3960922e+00	   1.2621327e+01	   2.0076075e+00	
   3.3275000e+01	   3.5643915e+00	   1.2708780e+01	   1.7480519e+00	
   3.3330000e+01	   3.1825300e+00	   1.2277957e+01	   1.7978835e+00	
   3.3385000e+01	   3.2388793e+00	   1.2286932e+01	   1.8250699e+00	
   3.3440000e+01	   3.2170930e+00	   1.1978706e+01	   1.7155206e+00	
   3.3495000e+01	   2.9815599e+00	   1.2002845e+01	   1.5437324e+00	
   3.3550000e+01	   3.3302698e+00	   1.2410104e+01	   1.1512858e+00	
   3.3605000e+01	   3.4260130e+00	   1.2648760e+01	   1.7918410e+00	
   3.3660000e+01	   3.5451965e+00	   1.2798858e+01	   2.3813906e+00	
   3.3715000e+01	   3.8074314e+00	   1.3413341e+01	   2.3325129e+00	
   3.3770000e+01	   3.4013159e+00	   1.2889992e+01	   1.8512913e+00	
   3.3825000e+01	   3.2933839e+00	   1.2589794e+01	   1.8352763e+00	
   3.3880000e+01	   3.6100014e+00	   1.2774744e+01	   2.3228990e+00	
   3.3935000e+01	   3.3208890e+00	   1.2611838e+01	   1.7718895e+00	
   3.3990000e+01	   3.1997093e+00	   1.2416528e+01	   1.7134858e+00	
   3.4045000e+01	   3.1409348e+00	   1.1775584e+01	   1.4544435e+00	
   3.4100000e+01	   3.1627846e+00	   1.2429197e+01	   1.4600885e+00	
   3.4155000e+01	   3.3771710e+00	   1.2497095e+01	   1.8390769e+00	
   3.4210000e+01	   3.5452630e+00	   1.2774592e+01	   1.9014846e+00	
   3.4265000e+01	   3.3906663e+00	   1.2418544e+01	   1.7454111e+00	
   3.4320000e+01	   3.3973226e+00	   1.2181618e+01	   1.7361540e+00	
   3.4375000e+01	   3.5475163e+00	   1.2833920e+01	   2.0492857e+00	
   3.4430000e+01	   3.4554317e+00	   1.2865180e+01	   2.0737115e+00	
   3.4485000e+01	   3.4721006e+00	   1.2677197e+01	   1.8002795e+00	
   3.4540000e+01	   3.2500827e+00	   1.2262592e+01	   2.0884134e+00	
   3.4595000e+01	   3.3053543e+00	   1.2776702e+01	   1.5461293e+00	
   3.4650000e+01	   3.4133577e+00	   1.2455418e+01	   1.8270331e+00	
   3.4705000e+01	   3.1070957e+00	   1.2120883e+01	   1.3119843e+00	
   3.4760000e+01	   3.4098737e+00	   1.2433435e+01	   1.7155206e+00	
   3.4815000e+01	   3.6773578e+00	   1.2787715e+01	   2.3405272e+00	
   3.4870000e+01	   3.8044995e+00	   1.2934033e+01	   2.5655436e+00	
   3.4925000e+01	   3.7192360e+00	   1.2995435e+01	   1.9917421e+00	
   3.4980000e+01	   3.5247516e+00	   1.2422642e+01	   1.9889396e+00	
   3.5035000e+01	   3.6889494e+00	   1.2296524e+01	   2.1053800e+00	
   3.5090000e+01	   3.6280117e+00	   1.2649486e+01	   2.3784939e+00	
   3.5145000e+01	   3.6763896e+00	   1.2580564e+01	   2.0768674e+00	
   3.5200000e+01	   3.3912561e+00	   1.2278054e+01	   1.9515848e+00	
   3.5255000e+01	   3.5058489e+00	   1.2507197e+01	   1.8880697e+00	
   3.5310000e+01	   3.2931370e+00	   1.2221957e+01	   2.1647128e+00	
   3.5365000e+01	   3.5375228e+00	   1.2305070e+01	   1.9071772e+00	
   3.5420000e+01	   3.7576170e+00	   1.2674376e+01	   2.0923990e+00	
   3.5475000e+01	   3.7233016e+00	   1.2525953e+01	   2.5945943e+00	
   3.5530000e+01	   3.9667738e+00	   1.2645845e+01	   2.6717531e+00	
   3.5585000e+01	   3.8026080e+00	   1.2834300e+01	   2.1486915e+00	
   3.5640000e+01	   3.8801904e+00	   1.3290368e+01	   2.4604647e+00	
   3.5695000e+01	   3.7853005e+00	   1.3084190e+01	   2.4316244e+00	
   3.5750000e+01	   3.9194208e+00	   1.2992836e+01	   2.3851231e+00	
   3.5805000e+01	   3.8740303e+00	   1.2419654e+01	   2.4731028e+00	
   3.5860000e+01	   3.5593946e+00	   1.2559894e+01	   1.9803544e+00	
   3.5915000e+01	   3.4625130e+00	   1.2083436e+01	   2.2285861e+00	
   3.5970000e+01	   3.4487629e+00	   1.2315479e+01	   1.7921286e+00	
   3.6025000e+01	   3.8306444e+00	   1.2852906e+01	   2.4346986e+00	
   3.6080000e+01	   3.8630039e+00	   1.2940783e+01	   2.5958518e+00	
   3.6135000e+01	   3.9434784e+00	   1.2985007e+01	   2.6077605e+00	
   3.6190000e+01	   4.3113072e+00	   1.3087875e+01	   2.9919616e+00	
   3.6245000e+01	   4.2644534e+00	   1.3107338e+01	   3.0897115e+00	
   3.6300000e+01	   4.1171738e+00	   1.3016656e+01	   2.4973164e+00	
   3.6355000e+01	   4.0957729e+00	   1.2748293e+01	   2.2070657e+00	
   3.6410000e+01	   4.0438689e+00	   1.2629704e+01	   2.3182554e+00	
   3.6465000e+01	   3.9115422e+00	   1.2776996e+01	   2.2616785e+00	
   3.6520000e+01	   3.8938668e+00	   1.2649276e+01	   2.3870312e+00	
   3.6575000e+01	   3.8161622e+00	   1.2050921e+01	   2.0059935e+00	
   3.6630000e+01	   3.7021778e+00	   1.2633768e+01	   2.1796618e+00	
   3.6685000e+01	   4.0241777e+00	   1.2645516e+01	   2.3734540e+00	
   3.6740000e+01	   4.4544242e+00	   1.2842434e+01	   2.7573752e+00	
   3.6795000e+01	   4.0851355e+00	   1.3181613e+01	   2.7324493e+00	
   3.6850000e+01	   4.2632781e+00	   1.3011761e+01	   2.6972496e+00	
   3.6905000e+01	   4.3594492e+00	   1.3305448e+01	   2.9403872e+00	
   3.6960000e+01	   4.1807266e+00	   1.2921379e+01	   2.4400941e+00	
   3.7015000e+01	   4.1464671e+00	   1.2848666e+01	   2.3101947e+00	
   3.7070000e+01	   4.3401804e+00	   1.2986324e+01	   2.4297401e+00	
   3.7125000e+01	   4.0334151e+00	   1.2733233e+01	   2.0737092e+00	
   3.7180000e+01	   3.8864180e+00	   1.2599174e+01	   2.2403292e+00	
   3.7235000e+01	   3.9693157e+00	   1.2831378e+01	   2.2447848e+00	
   3.7290000e+01	   3.7538416e+00	   1.2145103e+01	   1.8417985e+00	
   3.7345000e+01	   3.8508848e+00	   1.2769650e+01	   2.0547734e+00	
   3.7400000e+01	   4.1553245e+00	   1.2977294e+01	   2.5094734e+00	
   3.7455000e+01	   4.0680367e+00	   1.3190280e+01	   2.5960399e+00	
   3.7510000e+01	   4.1286253e+00	   1.2829028e+01	   2.3793868e+00	
   3.7565000e+01	   4.1445322e+00	   1.2932915e+01	   2.4969852e+00	
   3.7620000e+01	   4.4647379e+00	   1.3028728e+01	   2.9823880e+00	
   3.7675000e+01	   4.1748937e+00	   1.2889514e+01	   2.0550142e+00	
   3.7730000e+01	   3.9590044e+00	   1.2127418e+01	   2.0278908e+00	
   3.7785000e+01	   4.0161776e+00	   1.2597525e+01	   2.4731047e+00	
   3.7840000e+01	   4.0207546e+00	   1.2414132e+01	   2.4230609e+00	
   3.7895000e+01	   3.7634588e+00	   1.2066155e+01	   1.8648136e+00	
   3.7950000e+01	   3.4626105e+00	   1.2161808e+01	   1.8911659e+00	
   3.8005000e+01	   4.0245105e+00	   1.2658838e+01	   2.0735644e+00	
   3.8060000e+01	   4.0825948e+00	   1.3189948e+01	   2.6399398e+00	
   3.8115000e+01	   4.1250782e+00	   1.3158306e+01	   2.8583437e+00	
   3.8170000e+01	   4.2122222e+00	   1.2924561e+01	   3.0601865e+00	
   3.8225000e+01	   3.9880772e+00	   1.2677225e+01	   2.5228901e+00	
   3.8280000e+01	   3.9616362e+00	   1.2732097e+01	   2.5527927e+00	
   3.8335000e+01	   4.2032436e+00	   1.2560320e+01	   2.7702973e+00	
   3.8390000e+01	   3.8528617e+00	   1.2634555e+01	   2.3607810e+00	
   3.8445000e+01	   3.7623542e+00	   1.2213094e+01	   1.9410052e+00	
   3.8500000e+01	   3.7630915e+00	   1.2615258e+01	   2.3079753e+00	
   3.8555000e+01	   3.7992976e+00	   1.2655799e+01	   2.1520006e+00	
   3.8610000e+01	   3.6504763e+00	   1.2268356e+01	   1.8918152e+00	
   3.8665000e+01	   3.7828513e+00	   1.2609683e+01	   2.1175634e+00	
   3.8720000e+01	   3.9829541e+00	   1.2536131e+01	   2.5045131e+00	
   3.8775000e+01	   4.2430263e+00	   1.2965091e+01	   2.5590373e+00	
   3.8830000e+01	   3.9397112e+00	   1.2282558e+01	   2.3658197e+00	
   3.8885000e+01	   4.0176128e+00	   1.2445707e+01	   2.4831597e+00	
   3.8940000e+01	   4.0899773e+00	   1.2731718e+01	   2.4101482e+00	
   3.8995000e+01	   3.8357393e+00	   1.2551595e+01	   2.3032185e+00	
   3.9050000e+01	   3.8046859e+00	   1.2444949e+01	   2.0480338e+00	
   3.9105000e+01	   3.7364902e+00	   1.1969848e+01	   1.9010289e+00	
   3.9160000e+01	   3.7359594e+00	   1.1957816e+01	   1.9255657e+00	
   3.9215000e+01	   3.6257818e+00	   1.2061898e+01	   1.9836067e+00	
   3.9270000e+01	   3.5630956e+00	   1.2228105e+01	   1.6491299e+00	
   3.9325000e+01	   3.9273775e+00	   1.2022401e+01	   1.9078815e+00	
   3.9380000e+01	   4.1596910e+00	   1.2857046e+01	   2.5075020e+00	
   3.9435000e+01	   4.0617100e+00	   1.2920982e+01	   2.6642368e+00	
   3.9490000e+01	   4.1065177e+00	   1.2639792e+01	   2.2837753e+00	
   3.9545000e+01	   4.1553336e+00	   1.2584747e+01	   2.7595514e+00	
   3.9600000e+01	   3.9941072e+00	   1.2405857e+01	   2.6538956e+00	
   3.9655000e+01	   3.9135964e+00	   1.2550762e+01	   2.1790703e+00	
   3.9710000e+01	   3.7048333e+00	   1.2262954e+01	   2.0447102e+00	
   3.9765000e+01	   3.6332305e+00	   1.2674065e+01	   1.9633040e+00	
   3.9820000e+01	   3.5603747e+00	   1.2176423e+01	   1.7424215e+00	
   3.9875000e+01	   3.5171381e+00	   1.1534151e+01	   1.1284840e+00	
   3.9930000e+01	   3.5460127e+00	   1.2253518e+01	   1.6273596e+00	
   3.9985000e+01	   4.0362992e+00	   1.2576297e+01	   2.2131928e+00	
   4.0040000e+01	   3.9681032e+00	   1.2468394e+01	   2.5219367e+00	
   4.0095000e+01	   4.1632483e+00	   1.2286418e+01	   2.5762765e+00	
   4.0150000e+01	   4.2719529e+00	   1.2764277e+01	   3.1473800e+00	
   4.0205000e+01	   4.0157342e+00	   1.2288682e+01	   2.4843552e+00	
   4.0260000e+01	   3.9458470e+00	   1.2827678e+01	   2.0206371e+00	
   4.0315000e+01	   3.9392623e+00	   1.2534412e+01	   2.4835036e+00	
   4.0370000e+01	   4.1055739e+00	   1.2871971e+01	   2.7450565e+00	
   4.0425000e+01	   3.6325400e+00	   1.1911446e+01	   2.1588960e+00	
   4.0480000e+01	   3.5214355e+00	   1.1945428e+01	   1.4730509e+00	
   4.0535000e+01	   3.4294741e+00	   1.1769901e+01	   1.9647975e+00	
   4.0590000e+01	   3.2977916e+00	   1.2402532e+01	   1.4201525e+00	
   4.0645000e+01	   3.9496873e+00	   1.2090012e+01	   2.0889523e+00	
   4.0700000e+01	   3.9039148e+00	   1.2248844e+01	   2.1372238e+00	
   4.0755000e+01	   4.1861582e+00	   1.2805232e+01	   2.8846271e+00	
   4.0810000e+01	   4.0750127e+00	   1.2775820e+01	   2.9086440e+00	
   4.0865000e+01	   4.0278367e+00	   1.2173362e+01	   2.4153483e+00	
   4.0920000e+01	   4.0313199e+00	   1.2587019e+01	   2.3831317e+00	
   4.0975000e+01	   3.7904859e+00	   1.2207969e+01	   2.1352496e+00	
   4.1030000e+01	   3.7896437e+00	   1.2074707e+01	   2.3414198e+00	
   4.1085000e+01	   3.7373049e+00	   1.2155164e+01	   1.7430208e+00	
   4.1140000e+01	   3.6819802e+00	   1.2110759e+01	   1.8787872e+00	
   4.1195000e+01	   3.4643979e+00	   1.1981712e+01	   1.8632406e+00	
   4.1250000e+01	   3.4420443e+00	   1.1551608e+01	   1.8233392e+00	
   4.1305000e+01	   3.5975424e+00	   1.2105745e+01	   1.9635129e+00	
   4.1360000e+01	   3.8424328e+00	   1.2439316e+01	   2.1762636e+00	
   4.1415000e+01	   3.8448217e+00	   1.2238023e+01	   2.3645260e+00	
   4.1470000e+01	   4.1022398e+00	   1.2892290e+01	   2.1972399e+00	
   4.1525000e+01	   4.1823087e+00	   1.2617277e+01	   2.7272765e+00	
   4.1580000e+01	   3.9126021e+00	   1.2711788e+01	   2.2704607e+00	
   4.1635000e+01	   3.7335426e+00	   1.1691383e+01	   2.1391890e+00	
   4.1690000e+01	   3.9042658e+00	   1.2437456e+01	   2.1758345e+00	
   4.1745000e+01	   3.6897009e+00	   1.2536630e+01	   2.3432096e+00	
   4.1800000e+01	   3.3414165e+00	   1.1728486e+01	   1.4294333e+00	
   4.1855000e+01	   3.4092053e+00	   1.1831971e+01	   2.0187855e+00	
   4.1910000e+01	   3.3231857e+00	   1.1909587e+01	   1.7890660e+00	
   4.1965000e+01	   3.2782600e+00	   1.1785442e+01	   1.5937336e+00	
   4.2020000e+01	   3.6925031e+00	   1.2211844e+01	   2.0510532e+00	
   4.2075000e+01	   3.8485863e+00	   1.2706742e+01	   2.1818069e+00	
   4.2130000e+01	   3.7064851e+00	   1.2442198e+01	   2.1149507e+00	
   4.2185000e+01	   3.6680470e+00	   1.2089880e+01	   2.2972679e+00	
   4.2240000e+01	   3.6169263e+00	   1.2255838e+01	   2.2507690e+00	
   4.2295000e+01	   3.8278950e+00	   1.2158548e+01	   1.9934886e+00	
   4.2350000e+01	   3.4164944e+00	   1.2212589e+01	   1.8947081e+00	
   4.2405000e+01	   3.5804861e+00	   1.2377527e+01	   2.1347171e+00	
   4.2460000e+01	   3.3729639e+00	   1.1991477e+01	   1.5086402e+00	
   4.2515000e+01	   3.3768992e+00	   1.1388871e+01	   1.7188312e+00	
   4.2570000e+01	   3.0331400e+00	   1.1554444e+01	   1.4229263e+00	
   4.2625000e+01	   3.6229387e+00	   1.2084881e+01	   1.6172292e+00	
   4.2680000e+01	   3.7635653e+00	   1.1947616e+01	   2.1996860e+00	
   4.2735000e+01	   3.6363103e+00	   1.2140466e+01	   1.9813387e+00	
   4.2790000e+01	   3.6212051e+00	   1.2111320e+01	   1.9813387e+00	
   4.2845000e+01	   3.5183543e+00	   1.2272638e+01	   2.1855410e+00	
   4.2900000e+01	   3.6942456e+00	   1.2216317e+01	   2.2698421e+00	
   4.2955000e+01	   3.3434753e+00	   1.2033826e+01	   1.6446479e+00	
   4.3010000e+01	   3.3201435e+00	   1.2152485e+01	   1.9610390e+00	
   4.3065000e+01	   3.2036958e+00	   1.1985605e+01	   1.6017100e+00	
   4.3120000e+01	   3.2381182e+00	   1.1715653e+01	   1.7269274e+00	
   4.3175000e+01	   2.6088676e+00	   1.1401859e+01	   1.1751678e+00	
   4.3230000e+01	   3.0658859e+00	   1.1303563e+01	   1.3793110e+00	
   4.3285000e+01	   3.4408952e+00	   1.2221371e+01	   2.0406477e+00	
   4.3340000e+01	   3.5795955e+00	   1.2005888e+01	   2.0038274e+00	
   4.3395000e+01	   3.5013855e+00	   1.2312409e+01	   1.7090393e+00	
   4.3450000e+01	   3.5447973e+00	   1.1716711e+01	   2.1768264e+00	
   4.3505000e+01	   3.5962873e+00	   1.2736286e+01	   2.1777346e+00	
   4.3560000e+01	   3.5388762e+00	   1.2662975e+01	   2.2232172e+00	
   4.3615000e+01	   3.3477929e+00	   1.1770860e+01	   1.8995059e+00	
   4.3670000e+01	   3.2902734e+00	   1.1577863e+01	   1.6757822e+00	
   4.3725000e+01	   3.1999049e+00	   1.1620386e+01	   1.5755252e+00	
   4.3780000e+01	   3.2842594e+00	   1.1487150e+01	   1.4927263e+00	
   4.3835000e+01	   2.9396670e+00	   1.1546838e+01	   1.1414367e+00	
   4.3890000e+01	   3.2539067e+00	   1.1779237e+01	   1.6767436e+00	
   4.3945000e+01	   3.3732157e+00	   1.2501427e+01	   2.0465566e+00	
   4.4000000e+01	   3.4089772e+00	   1.2528596e+01	   2.0243750e+00	
   4.4055000e+01	   3.8396589e+00	   1.2325122e+01	   2.7226940e+00	
   4.4110000e+01	   3.4983518e+00	   1.2091893e+01	   1.8721519e+00	
   4.4165000e+01	   3.3301387e+00	   1.2110809e+01	   2.1191504e+00	
   4.4220000e+01	   3.5505061e+00	   1.1959864e+01	   2.1927919e+00	
   4.4275000e+01	   3.6634072e+00	   1.2254911e+01	   2.3087266e+00	
   4.4330000e+01	   3.2460400e+00	   1.1664295e+01	   1.6022848e+00	
   4.4385000e+01	   3.1061457e+00	   1.1776587e+01	   1.4818676e+00	
   4.4440000e+01	   3.1544629e+00	   1.1897456e+01	   1.7652114e+00	
   4.4495000e+01	   3.1293926e+00	   1.1856252e+01	   1.4746418e+00	
   4.4550000e+01	   3.2317626e+00	   1.2211278e+01	   1.7082744e+00	
   4.4605000e+01	   3.5860329e+00	   1.2195764e+01	   2.1539288e+00	
   4.4660000e+01	   3.8902933e+00	   1.2365431e+01	   2.5700252e+00	
   4.4715000e+01	   3.8182354e+00	   1.2644962e+01	   2.4238471e+00	
   4.4770000e+01	   3.4780745e+00	   1.2422470e+01	   1.9834731e+00	
   4.4825000e+01	   3.5625412e+00	   1.2527926e+01	   2.1444766e+00	
   4.4880000e+01	   3.8259446e+00	   1.3116458e+01	   2.0460804e+00	
   4.4935000e+01	   3.6433030e+00	   1.2357084e+01	   2.0891263e+00	
   4.4990000e+01	   3.5629195e+00	   1.2408941e+01	   1.8779649e+00	
   4.5045000e+01	   3.3776630e+00	   1.2033119e+01	   1.8967665e+00	
   4.5100000e+01	   3.3325726e+00	   1.2479895e+01	   1.7617498e+00	
   4.5155000e+01	   3.1679737e+00	   1.1938144e+01	   1.8871705e+00	
   4.5210000e+01	   3.4487888e+00	   1.2378304e+01	   2.0710935e+00	
   4.5265000e+01	   3.6228605e+00	   1.2857225e+01	   2.3772321e+00	
   4.5320000e+01	   3.6818029e+00	   1.2948219e+01	   2.3884031e+00	
   4.5375000e+01	   3.8096674e+00	   1.2444988e+01	   2.3474602e+00	
   4.5430000e+01	   3.8322571e+00	   1.2789353e+01	   2.4050169e+00	
   4.5485000e+01	   3.5259152e+00	   1.2332510e+01	   2.0965250e+00	
   4.5540000e+01	   3.6240033e+00	   1.2909292e+01	   2.3509342e+00	
   4.5595000e+01	   3.6279622e+00	   1.2639148e+01	   2.4898357e+00	
   4.5650000e+01	   3.7395794e+00	   1.2502646e+01	   2.1108984e+00	
   4.5705000e+01	   3.3076767e+00	   1.1820231e+01	   1.6603442e+00	
   4.5760000e+01	   3.2797704e+00	   1.1686533e+01	   1.6180343e+00	
   4.5815000e+01	   3.2219099e+00	   1.2105130e+01	   1.7155206e+00	
   4.5870000e+01	   3.4495401e+00	   1.2296066e+01	   1.7304752e+00	
   4.5925000e+01	   3.8626259e+00	   1.3073065e+01	   2.1914022e+00	
   4.5980000e+01	   3.6184265e+00	   1.2404333e+01	   2.3680842e+00	
   4.6035000e+01	   3.9225622e+00	   1.3261420e+01	   2.2887046e+00	
   4.6090000e+01	   1.2767418e+00	  -8.6798647e-02	   2.2141001e+00	
   4.6145000e+01	   6.4966526e-01	  -1.6558106e+00	   2.1345416e+00	
   4.6200000e+01	   6.5571687e-01	  -1.5725073e+00	   2.0318940e+00	
   4.6255000e+01	   3.7211041e+00	   1.2302428e+01	   2.2480774e+00	
   4.6310000e+01	   3.5930018e+00	   1.2613465e+01	   1.9673066e+00	
   4.6365000e+01	   3.3681547e+00	   1.2274198e+01	   2.0058478e+00	
   4.6420000e+01	   3.3902762e+00	   1.1929643e+01	   2.0046288e+00	
   4.6475000e+01	   3.2454345e+00	   1.1776417e+01	   2.0570785e+00	
   4.6530000e+01	   3.4947523e+00	   1.2519509e+01	   1.5896250e+00	
   4.6585000e+01	   3.8493553e+00	   1.2602121e+01	   2.4327426e+00	
   4.6640000e+01	   3.7820602e+00	   1.2996994e+01	   2.4945631e+00	
   4.6695000e+01	   3.8485192e+00	   1.2838973e+01	   2.6317540e+00	
   4.6750000e+01	   3.4599117e+00	   1.2424046e+01	   2.1510901e+00	
   4.6805000e+01	   3.7252380e+00	   1.2196954e+01	   2.5061023e+00	
   4.6860000e+01	   3.6580880e+00	   1.2823243e+01	   2.0745782e+00	
   4.6915000e+01	   3.5721894e+00	   1.2068899e+01	   2.3985889e+00	
   4.6970000e+01	   3.3311320e+00	   1.1790631e+01	   1.7841394e+00	
   4.7025000e+01	   3.1953912e+00	   1.2105076e+01	   1.8554675e+00	
   4.7080000e+01	   3.1275079e+00	   1.2102030e+01	   1.8072915e+00	
   4.7135000e+01	   3.2475322e+00	   1.1889567e+01	   1.5911944e+00	
   4.7190000e+01	   3.6673918e+00	   1.2635598e+01	   2.3706904e+00	
   4.7245000e+01	   3.7540770e+00	   1.2350829e+01	   2.2310151e+00	
   4.7300000e+01	   3.4761544e+00	   1.2522476e+01	   2.1145146e+00	
   4.7355000e+01	   3.4802674e+00	   1.2603664e+01	   2.2786569e+00	
   4.7410000e+01	   3.7202680e+00	   1.2546111e+01	   2.3353813e+00	
   4.7465000e+01	   3.7053349e+00	   1.2554460e+01	   2.1906266e+00	
   4.7520000e+01	   3.5639774e+00	   1.2091768e+01	   2.0824416e+00	
   4.7575000e+01	   3.5107983e+00	   1.2144167e+01	   1.9496564e+00	
   4.7630000e+01	   3.2150052e+00	   1.2008304e+01	   1.7953206e+00	
   4.7685000e+01	   3.4036844e+00	   1.1855890e+01	   1.9882309e+00	
   4.7740000e+01	   3.1960980e+00	   1.1721345e+01	   1.6138378e+00	
   4.7795000e+01	   3.5132839e+00	   1.2501885e+01	   1.8454049e+00	
   4.7850000e+01	   3.7899412e+00	   1.2744534e+01	   2.1664764e+00	
   4.7905000e+01	   3.9635848e+00	   1.2449481e+01	   2.9478324e+00	
   4.7960000e+01	   3.9215424e+00	   1.2403434e+01	   2.3034464e+00	
   4.8015000e+01	   3.7309565e+00	   1.2196411e+01	   2.4826747e+00	
   4.8070000e+01	   3.7380542e+00	   1.3010332e+01	   2.3074020e+00	
   4.8125000e+01	   1.4217533e+00	   1.9883549e-01	   2.4452724e+00	
   4.8180000e+01	   6.4250747e-01	  -1.2366501e+00	   2.0655275e+00	
   4.8235000e+01	   3.1366801e+00	   1.2140036e+01	   1.8716747e+00	
   4.8290000e+01	   3.2791889e+00	   1.2524798e+01	   1.9758390e+00	
   4.8345000e+01	   3.2315977e+00	   1.2042951e+01	   1.8576239e+00	
   4.8400000e+01	   3.5419250e+00	   1.2124270e+01	   2.1498521e+00	
   4.8455000e+01	   3.8254482e+00	   1.2606047e+01	   2.4568832e+00	
   4.8510000e+01	   3.9378479e+00	   1.2768632e+01	   2.7773605e+00	
   4.8565000e+01	   3.8844576e+00	   1.2488806e+01	   2.8265528e+00	
   4.8620000e+01	   3.8322672e+00	   1.2673414e+01	   2.6740726e+00	
   4.8675000e+01	   3.9565580e+00	   1.2567982e+01	   2.1399769e+00	
   4.8730000e+01	   3.9617661e+00	   1.2228812e+01	   2.2699138e+00	
   4.8785000e+01	   6.8775490e-01	  -1.4200137e+00	   1.9347892e+00	
   4.8840000e+01	   6.2005866e-01	  -1.6719177e+00	   2.1353242e+00	
   4.8895000e+01	   2.7387587e+00	   8.4084008e+00	   1.9881123e+00	
   4.8950000e+01	   3.5334624e+00	   1.2154054e+01	   1.5850795e+00	
   4.9005000e+01	   3.5045025e+00	   1.2261468e+01	   2.1195027e+00	
   4.9060000e+01	   3.9505071e+00	   1.2535297e+01	   2.2865727e+00	
   4.9115000e+01	   3.8581878e+00	   1.2099243e+01	   2.4266667e+00	
   4.9170000e+01	   3.8462756e+00	   1.2570870e+01	   2.5113590e+00	
   4.9225000e+01	   4.0490190e+00	   1.3118282e+01	   2.6249840e+00	
   4.9280000e+01	   4.1141434e+00	   1.2637222e+01	   2.9432802e+00	
   4.9335000e+01	   3.9355045e+00	   1.2523670e+01	   2.5676425e+00	
   4.9390000e+01	   4.0503318e+00	   1.2477840e+01	   2.1130381e+00	
   4.9445000e+01	   3.9875451e+00	   1.2657959e+01	   2.1998025e+00	
   4.9500000e+01	   3.8628705e+00	   1.2299120e+01	   2.3458275e+00	
   4.9555000e+01	   1.0947762e+00	  -1.4521669e+00	   2.1685306e+00	
   4.9610000e+01	   3.3790603e+00	   1.0799379e+01	   1.6180343e+00	
   4.9665000e+01	   3.4400477e+00	   1.1828478e+01	   1.8652937e+00	
   4.9720000e+01	   3.6080775e+00	   1.2107507e+01	   1.7890744e+00	
   4.9775000e+01	   3.8968673e+00	   1.2948294e+01	   2.0906192e+00	
   4.9830000e+01	   3.8538332e+00	   1.2725329e+01	   2.3592106e+00	
   4.9885000e+01	   3.9363787e+00	   1.2131540e+01	   2.1541301e+00	
   4.9940000e+01	   4.2148459e+00	   1.2919621e+01	   2.5993150e+00	
   4.9995000e+01	   4.2764939e+00	   1.2804233e+01	   2.5743333e+00	
   5.0050000e+01	   4.0578873e+00	   1.2985560e+01	   2.4683930e+00	
   5.0105000e+01	   4.0947075e+00	   1.2399939e+01	   2.4764227e+00	
   5.0160000e+01	   1.0417562e+00	  -1.2905820e+00	   2.2686696e+00	
   5.0215000e+01	   8.6307781e-01	  -1.8552544e+00	   1.9777404e+00	
   5.0270000e+01	   6.9819387e-01	  -2.1330183e+00	   1.8165742e+00	
   5.0325000e+01	   5.3683865e-01	  -1.9332278e+00	   1.6947864e+00	
   5.0380000e+01	   5.0410282e-01	  -1.9198100e+00	   1.4544435e+00	
   5.0435000e+01	   7.8349735e-01	  -1.6709453e+00	   2.0171323e+00	
   5.0490000e+01	   9.8121694e-01	  -1.6422069e+00	   2.1726893e+00	
   5.0545000e+01	   1.0534076e+00	  -1.4911208e+00	   2.0293688e+00	
   5.0600000e+01	   9.7637784e-01	  -1.3868294e+00	   2.4145777e+00	
   5.0655000e+01	   9.0405047e-01	  -1.7266722e+00	   2.0991682e+00	
   5.0710000e+01	   7.8967466e-01	  -1.6015249e+00	   2.0428642e+00	
   5.0765000e+01	   9.8118160e-01	  -1.9209994e+00	   1.9522081e+00	
   5.0820000e+01	   9.0751226e-01	  -1.5170402e+00	   2.2174098e+00	
   5.0875000e+01	   8.0690400e-01	  -1.3538729e+00	   1.9241011e+00	
   5.0930000e+01	   6.8821543e-01	  -1.8827435e+00	   1.4200841e+00	
   5.0985000e+01	   3.4032628e-01	  -1.8424981e+00	   1.4344443e+00	
   5.1040000e+01	   5.7583613e-01	  -2.0400653e+00	   1.6299960e+00	
   5.1095000e+01	   1.1205174e+00	  -1.3398755e+00	   2.0603688e+00	
   5.1150000e+01	   1.0813540e+00	  -1.3214100e+00	   2.1108984e+00	
   5.1205000e+01	   9.9236170e-01	  -1.7937365e+00	   2.2405100e+00	
   5.1260000e+01	   1.0538021e+00	  -1.2943229e+00	   2.2065288e+00	
   5.1315000e+01	   1.0829225e+00	  -1.5119396e+00	   2.2226832e+00	
   5.1370000e+01	   8.8028605e-01	  -2.1698088e+00	   2.0508153e+00	
   5.1425000e+01	   1.0747661e+00	  -1.7010334e+00	   2.1596196e+00	
   5.1480000e+01	   8.7503698e-01	  -1.8499280e+00	   1.7278100e+00	
   5.1535000e+01	   8.7048735e-01	  -1.4483594e+00	   1.8065070e+00	
   5.1590000e+01	   8.6136001e-01	  -1.6064800e+00	   1.6981313e+00	
   5.1645000e+01	   6.3648295e-01	  -1.8253171e+00	   1.1530876e+00	
   5.1700000e+01	   9.1120266e-01	  -1.7516447e+00	   1.4763221e+00	
   5.1755000e+01	   9.6871944e-01	  -1.0854724e+00	   2.1701492e+00	
   5.1810000e+01	   1.3221366e+00	  -1.2041120e+00	   2.5508484e+00	
   5.1865000e+01	   1.0961704e+00	  -1.1920011e+00	   1.8529997e+00	
   5.1920000e+01	   1.1142728e+00	  -1.5481980e+00	   2.1322503e+00	
   5.1975000e+01	   1.2398590e+00	  -1.1160109e+00	   2.0927106e+00	
   5.2030000e+01	   1.2736302e+00	  -1.2537132e+00	   2.4085750e+00	
   5.2085000e+01	   9.5905363e-01	  -1.6099065e+00	   2.3144662e+00	
   5.2140000e+01	   1.1234412e+00	  -1.0377331e+00	   1.6713731e+00	
   5.2195000e+01	   9.3761397e-01	  -1.2048771e+00	   2.0745767e+00	
   5.2250000e+01	   6.7323368e-01	  -1.8121956e+00	   1.3905112e+00	
   5.2305000e+01	   6.3464059e-01	  -1.2113088e+00	   1.6003215e+00	
   5.2360000e+01	   1.0481963e+00	  -1.7139814e+00	   1.7403498e+00	
   5.2415000e+01	   1.4764631e+00	  -9.1863897e-01	   2.2127879e+00	
   5.2470000e+01	   1.3522359e+00	  -8.5166848e-01	   2.7479670e+00	
   5.2525000e+01	   1.4138790e+00	  -9.8725320e-01	   2.0367535e+00	
   5.2580000e+01	   1.3071242e+00	  -1.0893123e+00	   2.1960284e+00	
   5.2635000e+01	   1.2872503e+00	  -1.4048540e+00	   2.3434867e+00	
   5.2690000e+01	   1.4015662e+00	  -8.6880612e-01	   2.4812740e+00	
   5.2745000e+01	   1.3440759e+00	  -8.5974975e-01	   2.1079561e+00	
   5.2800000e+01	   1.1352483e+00	  -1.3487084e+00	   1.9232439e+00	
   5.2855000e+01	   9.9762046e-01	  -1.5493439e+00	   1.4773204e+00	
   5.2910000e+01	   1.1570168e+00	  -1.3209349e+00	   1.7554807e+00	
   5.2965000e+01	   1.0987299e+00	  -1.3129383e+00	   1.8603264e+00	
   5.3020000e+01	   1.2177311e+00	  -1.8684076e+00	   2.2841063e+00	
   5.3075000e+01	   1.5968523e+00	  -1.8295715e+00	   2.1677752e+00	
   5.3130000e+01	   1.8853350e+00	  -1.7751191e+00	   2.7474456e+00	
   5.3185000e+01	   1.8716540e+00	  -1.7396668e+00	   2.8290722e+00	
   5.3240000e+01	   1.6681039e+00	  -1.5043153e+00	   2.3936840e+00	
   5.3295000e+01	   1.6247650e+00	  -1.7547276e+00	   2.3186728e+00	
   5.3350000e+01	   1.8340173e+00	  -1.9001986e+00	   2.5762765e+00	
   5.3405000e+01	   1.9078797e+00	  -1.6984790e+00	   2.3285645e+00	
   5.3460000e+01	   1.5551803e+00	  -1.7181691e+00	   1.7297017e+00	
   5.3515000e+01	   1.5424584e+00	  -1.9132599e+00	   1.7042196e+00	
   5.3570000e+01	   1.4935562e+00	  -1.6101272e+00	   1.6725006e+00	
   5.3625000e+01	   1.5657491e+00	  -1.5897638e+00	   1.8749565e+00	
   5.3680000e+01	   1.6199804e+00	  -1.6054661e+00	   2.4483039e+00	
   5.3735000e+01	   1.7756772e+00	  -1.5801480e+00	   2.4381287e+00	
   5.3790000e+01	   1.7954631e+00	  -1.5856700e+00	   2.3211142e+00	
   5.3845000e+01	   1.8022262e+00	  -1.6465813e+00	   2.4918778e+00	
   5.3900000e+01	   1.8858542e+00	  -1.7432534e+00	   2.5526651e+00	
   5.3955000e+01	   1.8377910e+00	  -1.7617879e+00	   2.6017388e+00	
   5.4010000e+01	   1.6352771e+00	  -1.6659599e+00	   2.5039473e+00	
   5.4065000e+01	   1.5917965e+00	  -1.7259826e+00	   2.3302040e+00	
   5.4120000e+01	   1.5456852e+00	  -1.6004951e+00	   2.0381966e+00	
   5.4175000e+01	   1.3413351e+00	  -1.6413224e+00	   2.0147474e+00	
   5.4230000e+01	   1.2943991e+00	  -2.0972941e+00	   2.2319154e+00	
   5.4285000e+01	   1.4642986e+00	  -1.7037655e+00	   2.0950082e+00	
   5.4340000e+01	   1.6457715e+00	  -1.1625989e+00	   2.4965426e+00	
   5.4395000e+01	   1.5483194e+00	  -1.3950670e+00	   2.3414958e+00	
   5.4450000e+01	   1.4412637e+00	  -1.0335911e+00	   2.4502512e+00	
   5.4505000e+01	   1.4621637e+00	  -1.0334295e+00	   2.5830551e+00	
   5.4560000e+01	   1.6619284e+00	  -9.1019667e-01	   2.7020555e+00	
   5.4615000e+01	   1.4760211e+00	  -7.9494922e-01	   2.2433433e+00	
   5.4670000e+01	   1.2893624e+00	  -1.2059301e+00	   2.2884638e+00	
   5.4725000e+01	   1.2805419e+00	  -1.2874268e+00	   2.0027990e+00	
   5.4780000e+01	   1.3437026e+00	  -1.4777801e+00	   2.2208362e+00	
   5.4835000e+01	   1.0763932e+00	  -1.0649375e+00	   1.7652114e+00	
   5.4890000e+01	   1.3731535e+00	  -1.0625287e+00	   2.0696161e+00	
   5.4945000e+01	   1.4302235e+00	  -8.2867763e-01	   2.2791098e+00	
   5.5000000e+01	   1.5554090e+00	  -8.1179892e-01	   2.9101236e+00	
   5.5055000e+01	   1.6785583e+00	  -1.0830581e+00	   2.4565573e+00	
   5.5110000e+01	   1.2789408e+00	  -1.0680181e+00	   2.4663070e+00	
   5.5165000e+01	   1.4874590e+00	  -1.1937759e+00	   2.2379797e+00	
   5.5220000e+01	   1.4768087e+00	  -9.1926060e-01	   2.4898357e+00	
   5.5275000e+01	   1.3777712e+00	  -9.1086154e-01	   2.5226427e+00	
   5.5330000e+01	   1.2114461e+00	  -1.2704807e+00	   1.9918365e+00	
   5.5385000e+01	   1.0563200e+00	  -1.1283477e+00	   1.9491929e+00	
   5.5440000e+01	   1.0201475e+00	  -1.2939669e+00	   1.6547685e+00	
   5.5495000e+01	   1.4767051e+00	  -1.2363688e+00	   2.2756275e+00	
   5.5550000e+01	   1.4872801e+00	  -1.3014576e+00	   2.8455109e+00	
   5.5605000e+01	   1.5542566e+00	  -1.2570473e+00	   2.5526651e+00	
   5.5660000e+01	   1.7502047e+00	  -1.5145369e+00	   2.4581236e+00	
   5.5715000e+01	   1.5626638e+00	  -9.3366790e-01	   2.5651809e+00	
   5.5770000e+01	   1.5030715e+00	  -1.8681258e+00	   2.5906774e+00	
   5.5825000e+01	   1.3981760e+00	  -1.1827677e+00	   2.6862617e+00	
   5.5880000e+01	   1.3840661e+00	  -1.3459089e+00	   2.2927232e+00	
   5.5935000e+01	   1.3019693e+00	  -1.9698418e+00	   1.8631258e+00	
   5.5990000e+01	   1.0653052e+00	  -1.8983354e+00	   1.9175491e+00	
   5.6045000e+01	   1.1217040e+00	  -1.7086853e+00	   1.8425879e+00	
   5.6100000e+01	   1.3693440e+00	  -1.3495990e+00	   2.1175634e+00	
   5.6155000e+01	   1.6428737e+00	  -1.1622645e+00	   2.4257671e+00	
   5.6210000e+01	   1.6580932e+00	  -1.3054686e+00	   2.3952461e+00	
   5.6265000e+01	   1.7006098e+00	  -1.5913806e+00	   2.7477319e+00	
   5.6320000e+01	   1.7013990e+00	  -1.6690684e+00	   3.0134030e+00	
   5.6375000e+01	   1.7007446e+00	  -1.2343424e+00	   2.7453013e+00	
   5.6430000e+01	   1.5984497e+00	  -1.5376895e+00	   2.2801106e+00	
   5.6485000e+01	   1.5060089e+00	  -1.4770889e+00	   2.3578054e+00	
   5.6540000e+01	   1.5317262e+00	  -1.2828173e+00	   2.6216355e+00	
   5.6595000e+01	   1.5399377e+00	  -1.6228049e+00	   2.2446502e+00	
   5.6650000e+01	   1.4212218e+00	  -1.8632797e+00	   2.1041846e+00	
   5.6705000e+01	   1.1785281e+00	  -1.7131799e+00	   2.2035604e+00	
   5.6760000e+01	   1.5592742e+00	  -1.5885657e+00	   2.6882940e+00	
   5.6815000e+01	   2.0849067e+00	  -1.2819030e+00	   3.0663021e+00	
   5.6870000e+01	   1.9088023e+00	  -1.3064737e+00	   2.7777689e+00	
   5.6925000e+01	   1.9190948e+00	  -1.5229708e+00	   2.6615389e+00	
   5.6980000e+01	   1.7473126e+00	  -1.4680516e+00	   2.8475754e+00	
   5.7035000e+01	   1.9202672e+00	  -1.4073239e+00	   2.7217418e+00	
   5.7090000e+01	   1.8777314e+00	  -1.7190068e+00	   2.7593208e+00	
   5.7145000e+01	   1.6091973e+00	  -1.4451534e+00	   2.4639517e+00	
   5.7200000e+01	   1.6485662e+00	  -1.6337928e+00	   2.0658743e+00	
   5.7255000e+01	   1.6572222e+00	  -1.9684946e+00	   2.4538943e+00	
   5.7310000e+01	   1.5503868e+00	  -1.6480017e+00	   2.0714657e+00	
   5.7365000e+01	   1.4156100e+00	  -1.9340405e+00	   1.9092020e+00	
   5.7420000e+01	   1.6215468e+00	  -1.9012117e+00	   2.1958106e+00	
   5.7475000e+01	   1.9279914e+00	  -1.5619625e+00	   2.5329453e+00	
   5.7530000e+01	   1.9995784e+00	  -1.5384945e+00	   2.9990341e+00	
   5.7585000e+01	   2.0415959e+00	  -1.3269754e+00	   2.9410201e+00	
   5.7640000e+01	   1.9175366e+00	  -1.4959866e+00	   2.8287333e+00	
   5.7695000e+01	   1.9850293e+00	  -1.6435989e+00	   2.9272956e+00	
   5.7750000e+01	   1.8813739e+00	  -1.3767514e+00	   2.8711561e+00	
   5.7805000e+01	   1.7370686e+00	  -1.5579371e+00	   2.3578054e+00	
   5.7860000e+01	   1.6172192e+00	  -1.7420344e+00	   2.1175551e+00	
   5.7915000e+01	   1.6631969e+00	  -1.3587055e+00	   2.6717988e+00	
   5.7970000e+01	   1.3531657e+00	  -9.1728894e-01	   2.6028967e+00	
   5.8025000e+01	   1.3050029e+00	  -1.2777866e+00	   2.2073644e+00	
   5.8080000e+01	   1.5277322e+00	  -8.3723352e-01	   2.0582373e+00	
   5.8135000e+01	   1.6224531e+00	  -5.5627766e-01	   2.8216922e+00	
   5.8190000e+01	   1.7708414e+00	  -9.8225347e-01	   2.4577693e+00	
   5.8245000e+01	   1.8849640e+00	  -1.3062531e+00	   2.6402217e+00	
   5.8300000e+01	   1.6684025e+00	  -1.4427145e+00	   2.5089344e+00	
   5.8355000e+01	   1.6381463e+00	  -1.2055568e+00	   2.6787319e+00	
   5.8410000e+01	   1.7901061e+00	  -7.7777923e-01	   2.6140307e+00	
   5.8465000e+01	   1.5063172e+00	  -1.2380364e+00	   2.4826212e+00	
   5.8520000e+01	   1.2840639e+00	  -1.6465669e+00	   2.1498521e+00	
   5.8575000e+01	   1.3189614e+00	  -1.6368444e+00	   2.1333961e+00	
   5.8630000e+01	   1.2576618e+00	  -2.0671964e+00	   1.9882309e+00	
   5.8685000e+01	   1.1447326e+00	  -1.6531255e+00	   2.1219960e+00	
   5.8740000e+01	   1.4393944e+00	  -1.6274031e+00	   2.5664354e+00	
   5.8795000e+01	   1.6427575e+00	  -1.2428253e+00	   2.6903698e+00	
   5.8850000e+01	   1.8166493e+00	  -8.9953953e-01	   2.9404685e+00	
   5.8905000e+01	   1.6342252e+00	  -1.2434082e+00	   2.6133463e+00	
   5.8960000e+01	   1.4802018e+00	  -1.4935679e+00	   2.6211781e+00	
   5.9015000e+01	   1.3683578e+00	  -1.4813171e+00	   2.2405100e+00	
   5.9070000e+01	   1.5100141e+00	  -1.2051760e+00	   2.4791869e+00	
   5.9125000e+01	   1.4890012e+00	  -1.1931169e+00	   2.4505898e+00	
   5.9180000e+01	   1.2208934e+00	  -1.6570052e+00	   2.5894866e+00	
   5.9235000e+01	   1.1281724e+00	  -1.5948826e+00	   1.8235748e+00	
   5.9290000e+01	   8.7738201e-01	  -1.2336591e+00	   1.7986479e+00	
   5.9345000e+01	   1.3674690e+00	  -6.8424986e-01	   2.1024557e+00	
   5.9400000e+01	   1.6395411e+00	  -1.1918262e+00	   2.6329218e+00	
   5.9455000e+01	   1.5044580e+00	  -1.0675487e+00	   2.3973451e+00	
   5.9510000e+01	   1.6248258e+00	  -1.3570153e+00	   2.5034028e+00	
   5.9565000e+01	   1.5397862e+00	  -8.8806460e-01	   2.6466214e+00	
   5.9620000e+01	   1.2813718e+00	  -1.1842980e+00	   2.4397144e+00	
   5.9675000e+01	   1.2995727e+00	  -1.7019321e+00	   2.3397587e+00	
   5.9730000e+01	   1.3160408e+00	  -1.2118477e+00	   2.0745767e+00	
   5.9785000e+01	   1.2115568e+00	  -1.2684148e+00	   2.5164234e+00	
   5.9840000e+01	   1.0994222e+00	  -1.4230759e+00	   1.6646759e+00	
   5.9895000e+01	   9.4779011e-01	  -1.6125479e+00	   1.6704288e+00	
   5.9950000e+01	   1.1968409e+00	  -9.1999258e-01	   1.7319798e+00	
   6.0005000e+01	   1.3887276e+00	  -1.2315240e+00	   2.3856523e+00	
   6.0060000e+01	   1.5102211e+00	  -1.1830644e+00	   2.5254542e+00	
   6.0115000e+01	   1.6695672e+00	  -1.5367501e+00	   2.6009515e+00	
   6.0170000e+01	   1.6368280e+00	  -1.1543126e+00	   2.9478324e+00	
   6.0225000e+01	   1.6077074e+00	  -1.0939417e+00	   2.8151983e+00	
   6.0280000e+01	   1.6296229e+00	  -7.9390970e-01	   2.5329453e+00	
   6.0335000e+01	   1.4050185e+00	  -1.1877200e+00	   2.1860871e+00	
   6.0390000e+01	   1.2806024e+00	  -1.2710128e+00	   2.2514925e+00	
   6.0445000e+01	   1.4194716e+00	  -1.3941792e+00	   2.1881671e+00	
   6.0500000e+01	   1.3412686e+00	  -1.7909995e+00	   2.0781402e+00	
   6.0555000e+01	   1.0985266e+00	  -1.8746831e+00	   1.8226029e+00	
   6.0610000e+01	   1.5463250e+00	  -1.3134508e+00	   2.1630926e+00	
   6.0665000e+01	   1.9318124e+00	  -1.1526944e+00	   2.7412602e+00	
   6.0720000e+01	   1.9336534e+00	  -1.4397188e+00	   2.9734321e+00	
   6.0775000e+01	   1.9192831e+00	  -1.3598401e+00	   2.6967329e+00	
   6.0830000e+01	   1.9175622e+00	  -1.5979156e+00	   2.4931701e+00	
   6.0885000e+01	   1.9384245e+00	  -1.2191703e+00	   2.5602377e+00	
   6.0940000e+01	   1.9107482e+00	  -1.1891415e+00	   2.7457690e+00	
   6.0995000e+01	   1.8196361e+00	  -1.9759931e+00	   2.4723387e+00	
   6.1050000e+01	   1.8231684e+00	  -1.4012808e+00	   2.5387156e+00	
   6.1105000e+01	   1.6716748e+00	  -1.3849240e+00	   1.8433219e+00	
   6.1160000e+01	   1.7336808e+00	  -1.3661876e+00	   2.1158066e+00	
   6.1215000e+01	   1.6205689e+00	  -1.6456566e+00	   2.0919132e+00	
   6.1270000e+01	   1.5859331e+00	  -1.7861484e+00	   1.6431654e+00	
   6.1325000e+01	   1.9497209e+00	  -1.7685616e+00	   2.2957532e+00	
   6.1380000e+01	   1.9270333e+00	  -1.4811144e+00	   2.8219987e+00	
   6.1435000e+01	   2.0356245e+00	  -1.4808700e+00	   2.7217418e+00	
   6.1490000e+01	   2.1951810e+00	  -1.4516296e+00	   2.8104099e+00	
   6.1545000e+01	   2.1856861e+00	  -1.3736150e+00	   2.9990341e+00	
   6.1600000e+01	   2.1966237e+00	  -1.0712273e+00	   2.8222167e+00	
   6.1655000e+01	   1.8448517e+00	  -2.0347843e+00	   2.2507090e+00	
   6.1710000e+01	   1.7836755e+00	  -1.7409611e+00	   2.0048637e+00	
   6.1765000e+01	   1.7693725e+00	  -2.0323371e+00	   2.5964499e+00	
   6.1820000e+01	   1.5611676e+00	  -1.6918615e+00	   2.1843034e+00	
   6.1875000e+01	   1.6396401e+00	  -1.7963264e+00	   1.9658668e+00	
   6.1930000e+01	   1.5010007e+00	  -1.9802432e+00	   1.9406621e+00	
   6.1985000e+01	   1.8873681e+00	  -1.4500434e+00	   2.5848269e+00	
   6.2040000e+01	   1.8546319e+00	  -1.5368430e+00	   2.3571308e+00	
   6.2095000e+01	   1.9097532e+00	  -1.0591315e+00	   2.5830551e+00	
   6.2150000e+01	   1.7805192e+00	  -1.3486544e+00	   2.8082968e+00	
   6.2205000e+01	   1.7806208e+00	  -1.3784604e+00	   2.7482959e+00	
   6.2260000e+01	   1.8523736e+00	  -1.3631938e+00	   2.7781670e+00	
   6.2315000e+01	   1.9332057e+00	  -1.0793776e+00	   2.8959606e+00	
   6.2370000e+01	   1.5578338e+00	  -1.3582308e+00	   2.0884134e+00	
   6.2425000e+01	   1.5598286e+00	  -1.8484028e+00	   2.2013886e+00	
   6.2480000e+01	   1.3504486e+00	  -1.3474881e+00	   1.8686597e+00	
   6.2535000e+01	   1.2344321e+00	  -1.2282958e+00	   2.1108294e+00	
   6.2590000e+01	   1.1539872e+00	  -1.5265213e+00	   1.6494764e+00	
   6.2645000e+01	   1.6119429e+00	  -1.6203010e+00	   2.1815378e+00	
   6.2700000e+01	   1.6587497e+00	  -9.5770330e-01	   2.4339691e+00	
   6.2755000e+01	   1.7144161e+00	  -1.1167662e+00	   2.7086992e+00	
   6.2810000e+01	   1.5473472e+00	  -9.2303506e-01	   2.4018109e+00	
   6.2865000e+01	   1.5089962e+00	  -1.1612949e+00	   2.4969852e+00	
   6.2920000e+01	   1.4546291e+00	  -1.0415025e+00	   2.5154911e+00	
   6.2975000e+01	   1.5142303e+00	  -1.2313634e+00	   2.6101356e+00	
   6.3030000e+01	   1.5115714e+00	  -1.0282311e+00	   2.2164928e+00	
   6.3085000e+01	   1.4232511e+00	  -1.0522428e+00	   2.0355072e+00	
   6.3140000e+01	   1.1602655e+00	  -1.3162798e+00	   1.9554274e+00	
   6.3195000e+01	   1.0294782e+00	  -1.0701758e+00	   1.6040632e+00	
   6.3250000e+01	   1.5036124e+00	  -8.6316293e-01	   1.5667468e+00	
   6.3305000e+01	   1.2925224e+00	  -8.0920511e-01	   2.0760129e+00	
   6.3360000e+01	   1.4817922e+00	  -7.1966153e-01	   2.4973164e+00	
   6.3415000e+01	   1.6269026e+00	  -1.2592468e+00	   2.4645432e+00	
   6.3470000e+01	   1.6203072e+00	  -7.5474245e-01	   2.5592803e+00	
   6.3525000e+01	   1.4254394e+00	  -1.0660497e+00	   2.1044769e+00	
   6.3580000e+01	   1.4471890e+00	  -8.3952876e-01	   2.4589768e+00	
   6.3635000e+01	   1.5250972e+00	  -8.1758250e-01	   2.2300562e+00	
   6.3690000e+01	   1.2078283e+00	  -1.5113644e+00	   1.9915411e+00	
   6.3745000e+01	   1.2111185e+00	  -1.7081049e+00	   1.9803544e+00	
   6.3800000e+01	   1.0201791e+00	  -2.1491582e+00	   1.6959084e+00	
   6.3855000e+01	   1.2487069e+00	  -1.9505744e+00	   1.4968180e+00	
   6.3910000e+01	   1.3463634e+00	  -2.1512583e+00	   1.5228086e+00	
   6.3965000e+01	   1.4706499e+00	  -1.6054362e+00	   2.0192528e+00	
   6.4020000e+01	   1.6613849e+00	  -2.0649485e+00	   1.9536229e+00	
   6.4075000e+01	   1.7897829e+00	  -1.5570027e+00	   2.4639517e+00	
   6.4130000e+01	   1.7767918e+00	  -1.2818269e+00	   2.5659994e+00	
   6.4185000e+01	   1.7453498e+00	  -1.3305473e+00	   2.2174098e+00	
   6.4240000e+01	   1.5261458e+00	  -1.9574669e+00	   1.7107341e+00	
   6.4295000e+01	   1.5721626e+00	  -1.5761189e+00	   1.8956217e+00	
   6.4350000e+01	   1.5390883e+00	  -1.2530515e+00	   2.3754446e+00	
   6.4405000e+01	   1.3008335e+00	  -2.1122880e+00	   1.3080138e+00	
   6.4460000e+01	   1.4695257e+00	  -2.2006951e+00	   1.7702779e+00	
   6.4515000e+01	   1.2620384e+00	  -2.1774370e+00	   1.8270423e+00	
   6.4570000e+01	   1.1356263e+00	  -1.9822834e+00	   1.5065682e+00	
   6.4625000e+01	   1.4648556e+00	  -1.9783711e+00	   1.7969290e+00	
   6.4680000e+01	   1.7002086e+00	  -1.9968034e+00	   2.1344946e+00	
   6.4735000e+01	   1.6351814e+00	  -1.9329624e+00	   1.9032058e+00	
   6.4790000e+01	   1.6284545e+00	  -1.7494441e+00	   2.2117468e+00	
   6.4845000e+01	   1.5384417e+00	  -1.9480217e+00	   2.1444188e+00	
   6.4900000e+01	   1.6602593e+00	  -1.7588553e+00	   2.1669927e+00	
   6.4955000e+01	   1.6149256e+00	  -1.7445982e+00	   1.4929888e+00	
   6.5010000e+01	   1.4293837e+00	  -1.6223147e+00	   1.9194319e+00	
   6.5065000e+01	   1.4871862e+00	  -1.6594171e+00	   1.6326210e+00	
   6.5120000e+01	   1.4631888e+00	  -1.8122101e+00	   1.5051996e+00	
   6.5175000e+01	   1.0678081e+00	  -2.4177200e+00	   1.3768163e+00	
   6.5230000e+01	   1.1120494e+00	  -1.9581267e+00	   1.2707694e+00	
   6.5285000e+01	   1.4063477e+00	  -1.9641432e+00	   1.2123374e+00	
   6.5340000e+01	   1.5657497e+00	  -1.7049087e+00	   2.0075209e+00	
   6.5395000e+01	   1.6249413e+00	  -1.7247768e+00	   1.7653990e+00	
   6.5450000e+01	   1.6514450e+00	  -1.3903212e+00	   2.5709530e+00	
   6.5505000e+01	   1.5235152e+00	  -1.2251403e+00	   2.0915350e+00	
   6.5560000e+01	   1.2934276e+00	  -1.4519528e+00	   1.6101938e+00	
   6.5615000e+01	   1.2883312e+00	  -9.3747552e-01	   1.3391452e+00	
   6.5670000e+01	   1.3433250e+00	  -1.1380253e+00	   1.5180307e+00	
   6.5725000e+01	   1.3701887e+00	  -1.0373285e+00	   1.6756786e+00	
   6.5780000e+01	   1.1898544e+00	  -1.0732140e+00	   1.4030579e+00	
   6.5835000e+01	   1.0114881e+00	  -1.7410173e+00	   1.2803576e+00	
   6.5890000e+01	   9.8320757e-01	  -1.5219245e+00	   1.5080809e+00	
   6.5945000e+01	   8.3465612e-01	  -2.0714834e+00	   9.8194212e-01	
   6.6000000e+01	   1.2001533e+00	  -1.2639923e+00	   1.4243769e+00	
   6.6055000e+01	   1.3655243e+00	  -1.2395179e+00	   1.4413894e+00	
   6.6110000e+01	   1.2656688e+00	  -9.3064634e-01	   1.6055539e+00	
   6.6165000e+01	   1.4345996e+00	  -8.4221096e-01	   1.7630072e+00	
   6.6220000e+01	   1.5389860e+00	  -1.1208907e+00	   1.8792904e+00	
   6.6275000e+01	   1.2541832e+00	  -1.2982512e+00	   1.4929888e+00	
   6.6330000e+01	   1.1511043e+00	  -1.0890642e+00	   1.5538231e+00	
   6.6385000e+01	   1.0244357e+00	  -1.3247265e+00	   1.7813014e+00	
   6.6440000e+01	   9.5523383e-01	  -1.3026679e+00	   1.2421864e+00	
   6.6495000e+01	   9.8845640e-01	  -1.5998245e+00	   1.0381024e+00	
   6.6550000e+01	   7.3908710e-01	  -1.8200867e+00	   1.1172305e+00	
   6.6605000e+01	   8.5300168e-01	  -1.7366678e+00	   1.3301992e+00	
   6.6660000e+01	   7.8342779e-01	  -1.7747954e+00	   6.8603343e-01	
   6.6715000e+01	   1.2690215e+00	  -8.6021548e-01	   1.5558000e+00	
   6.6770000e+01	   1.1442382e+00	  -1.4334331e+00	   1.5461293e+00	
   6.6825000e+01	   1.3223986e+00	  -1.2289084e+00	   1.7213916e+00	
   6.6880000e+01	   1.2536113e+00	  -8.9253486e-01	   1.7759008e+00	
   6.6935000e+01	   1.2608686e+00	  -1.4428094e+00	   1.6834370e+00	
   6.6990000e+01	   1.2304118e+00	  -1.1030029e+00	   1.6025403e+00	
   6.7045000e+01	   1.0813696e+00	  -1.3181604e+00	   1.4139743e+00	
   6.7100000e+01	   1.1599373e+00	  -1.1715801e+00	   1.3320279e+00	
   6.7155000e+01	   6.3922293e-01	  -1.4983741e+00	   9.7609568e-01	
   6.7210000e+01	   7.2956683e-01	  -1.4504598e+00	   8.9020880e-01	
   6.7265000e+01	   5.4131618e-01	  -1.4342921e+00	   8.9323919e-01	
   6.7320000e+01	   6.1763199e-01	  -1.7304924e+00	   1.0322674e+00	
   6.7375000e+01	   7.2081880e-01	  -1.6055389e+00	   9.2429853e-01	
   6.7430000e+01	   9.9624737e-01	  -1.3095546e+00	   1.3739455e+00	
   6.7485000e+01	   1.1369198e+00	  -1.1070251e+00	   1.6725006e+00	
   6.7540000e+01	   1.2141270e+00	  -1.2656076e+00	   1.5851681e+00	
   6.7595000e+01	   1.0883163e+00	  -1.6196796e+00	   1.4661443e+00	
   6.7650000e+01	   1.0653955e+00	  -1.7033627e+00	   1.3831073e+00	
   6.7705000e+01	   8.5520883e-01	  -1.7326151e+00	   1.5166258e+00	
   6.7760000e+01	   1.1805905e+00	  -1.6806830e+00	   1.3457964e+00	
   6.7815000e+01	   1.1115380e+00	  -1.7652475e+00	   1.4950273e+00	
   6.7870000e+01	   8.5747782e-01	  -2.2729591e+00	   9.3202697e-01	
   6.7925000e+01	   7.4732299e-01	  -2.3520211e+00	   8.9228585e-01	
   6.7980000e+01	   6.5041289e-01	  -2.8200294e+00	   7.2669992e-01	
   6.8035000e+01	   6.7670675e-01	  -2.3822620e+00	   7.1245379e-01	
   6.8090000e+01	   1.1093630e+00	  -2.3808294e+00	   8.0174768e-01	
   6.8145000e+01	   1.0661217e+00	  -2.3025013e+00	   1.3057891e+00	
   6.8200000e+01	   1.2762131e+00	  -2.1484161e+00	   1.6680596e+00	
   6.8255000e+01	   1.3411771e+00	  -2.3001214e+00	   1.3499674e+00	
   6.8310000e+01	   1.2642703e+00	  -1.9210658e+00	   1.4569079e+00	
   6.8365000e+01	   1.0994753e+00	  -2.3420400e+00	   1.2096310e+00	
   6.8420000e+01	   1.2845905e+00	  -1.8774316e+00	   1.5523127e+00	
   6.8475000e+01	   1.1894230e+00	  -1.7077636e+00	   1.5412112e+00	
   6.8530000e+01	   1.0197344e+00	  -1.7852193e+00	   1.4299198e+00	
   6.8585000e+01	   1.1296676e+00	  -1.7516660e+00	   1.0439142e+00	
   6.8640000e+01	   8.0534529e-01	  -2.3062069e+00	   1.1083306e+00	
   6.8695000e+01	   7.9274892e-01	  -2.0972647e+00	   7.8530609e-01	
   6.8750000e+01	   5.9584580e-01	  -2.5521448e+00	   1.0279196e+00	
   6.8805000e+01	   1.0034681e+00	  -2.2624195e+00	   1.3756279e+00	
   6.8860000e+01	   1.3349402e+00	  -2.2431465e+00	   1.6189302e+00	
   6.8915000e+01	   1.3820462e+00	  -2.0568356e+00	   1.8030976e+00	
   6.8970000e+01	   1.4529098e+00	  -2.3298684e+00	   1.8152594e+00	
   6.9025000e+01	   1.2457308e+00	  -1.8922251e+00	   1.6055371e+00	
   6.9080000e+01	   1.1997920e+00	  -1.7204016e+00	   1.5180307e+00	
   6.9135000e+01	   1.1585796e+00	  -1.6816195e+00	   1.7478220e+00	
   6.9190000e+01	   1.0940150e+00	  -1.7120572e+00	   1.5768809e+00	
   6.9245000e+01	   8.9376746e-01	  -1.9971166e+00	   9.0600549e-01	
   6.9300000e+01	   7.5903386e-01	  -1.8039437e+00	   1.1189327e+00	
   6.9355000e+01	   9.5187089e-01	  -1.2538333e+00	   1.3815009e+00	
   6.9410000e+01	   6.0399595e-01	  -2.0392212e+00	   8.1178265e-01	
   6.9465000e+01	   4.4864274e-01	  -1.8870472e+00	   9.2608214e-01	
   6.9520000e+01	   9.6216094e-01	  -1.6033906e+00	   1.2122846e+00	
   6.9575000e+01	   1.2325345e+00	  -1.2015175e+00	   1.9255657e+00	
   6.9630000e+01	   1.0104552e+00	  -1.0118983e+00	   1.2615006e+00	
   6.9685000e+01	   1.1722342e+00	  -9.7603804e-01	   1.2981804e+00	
   6.9740000e+01	   1.0022681e+00	  -1.4466905e+00	   1.2774354e+00	
   6.9795000e+01	   1.0090039e+00	  -1.4424286e+00	   1.5583472e+00	
   6.9850000e+01	   9.3588168e-01	  -1.3700525e+00	   1.5471439e+00	
   6.9905000e+01	   8.4982970e-01	  -1.4561247e+00	   1.2427354e+00	
   6.9960000e+01	   6.5800451e-01	  -1.7726924e+00	   1.4122182e+00	
   7.0015000e+01	   8.5167366e-01	  -1.7384950e+00	   1.3132692e+00	
   7.0070000e+01	   6.4162038e-01	  -1.6894738e+00	   7.2027822e-01	
   7.0125000e+01	   6.2507150e-01	  -1.9015121e+00	   1.0843867e+00	
   7.0180000e+01	   6.8821277e-01	  -1.9242852e+00	   9.3107132e-01	
   7.0235000e+01	   1.1527805e+00	  -1.6059581e+00	   9.8800663e-01	
   7.0290000e+01	   1.0729584e+00	  -1.9082482e+00	   1.6634800e+00	
   7.0345000e+01	   1.1122566e+00	  -1.6512620e+00	   1.5444590e+00	
   7.0400000e+01	   1.0081637e+00	  -1.7376871e+00	   1.3486931e+00	
   7.0455000e+01	   1.2199731e+00	  -1.3572521e+00	   1.4157391e+00	
   7.0510000e+01	   1.0870512e+00	  -1.1603885e+00	   1.4904185e+00	
   7.0565000e+01	   9.7042104e-01	  -1.3273822e+00	   1.2598196e+00	
   7.0620000e+01	   9.9056651e-01	  -1.8039877e+00	   8.8807828e-01	
   7.0675000e+01	   6.0655058e-01	  -1.8050133e+00	   1.0365837e+00	
   7.0730000e+01	   7.4842943e-01	  -1.4223842e+00	   1.0446346e+00	
   7.0785000e+01	   5.0723659e-01	  -1.6836987e+00	   7.8547284e-01	
   7.0840000e+01	   5.2927760e-01	  -2.0319268e+00	   5.6440391e-01	
   7.0895000e+01	   8.5770946e-01	  -1.7042494e+00	   6.6970155e-01	
   7.0950000e+01	   1.0387340e+00	  -1.7914528e+00	   1.5187976e+00	
   7.1005000e+01	   1.3821315e+00	  -1.4741481e+00	   1.3492779e+00	
   7.1060000e+01	   1.1218205e+00	  -1.8551169e+00	   1.3457101e+00	
   7.1115000e+01	   1.1749031e+00	  -1.6873380e+00	   1.6003869e+00	
   7.1170000e+01	   1.3611645e+00	  -1.5434285e+00	   1.5856050e+00	
   7.1225000e+01	   1.0013985e+00	  -1.5383943e+00	   1.3599052e+00	
   7.1280000e+01	   8.9871294e-01	  -1.5255336e+00	   1.0193742e+00	
   7.1335000e+01	   5.0608977e-01	  -1.8044648e+00	   1.1878079e+00	
   7.1390000e+01	   6.3349444e-01	  -1.6482809e+00	   8.8483566e-01	
   7.1445000e+01	   8.0450714e-01	  -1.9886751e+00	   9.7637596e-01	
   7.1500000e+01	   5.7270076e-01	  -1.9018206e+00	   5.8242139e-01	
   7.1555000e+01	   3.1064954e-01	  -1.7671425e+00	   5.8111427e-01	
   7.1610000e+01	   1.0142387e+00	  -1.5988633e+00	   1.0276934e+00	
   7.1665000e+01	   1.2099437e+00	  -1.2202609e+00	   1.6386020e+00	
   7.1720000e+01	   1.2213197e+00	  -1.6574984e+00	   1.6484892e+00	
   7.1775000e+01	   7.5876208e-01	  -1.6717921e+00	   1.5227579e+00	
   7.1830000e+01	   1.1963895e+00	  -1.4981874e+00	   1.2716971e+00	
   7.1885000e+01	   1.2194868e+00	  -1.4190028e+00	   1.5705593e+00	
   7.1940000e+01	   1.1549718e+00	  -1.5236206e+00	   1.4461688e+00	
   7.1995000e+01	   1.0651270e+00	  -1.7699974e+00	   1.0855226e+00	
   7.2050000e+01	   9.0127579e-01	  -1.8813487e+00	   8.7480069e-01	
   7.2105000e+01	   9.9544578e-01	  -1.6978818e+00	   6.5190721e-01	
   7.2160000e+01	   7.3725652e-01	  -2.0681382e+00	   8.7587631e-01	
   7.2215000e+01	   5.8071609e-01	  -2.2755978e+00	   5.3093870e-01	
   7.2270000e+01	   5.9581938e-01	  -1.8551116e+00	   6.5929797e-01	
   7.2325000e+01	   1.0827031e+00	  -1.8439145e+00	   1.4311807e+00	
   7.2380000e+01	   1.3067030e+00	  -1.9381849e+00	   1.6807268e+00	
   7.2435000e+01	   1.3293509e+00	  -2.0337599e+00	   1.4531394e+00	
   7.2490000e+01	   1.3892425e+00	  -1.7978616e+00	   1.3380325e+00	
   7.2545000e+01	   1.1459714e+00	  -1.2508657e+00	   1.5817106e+00	
   7.2600000e+01	   1.2228423e+00	  -1.2277971e+00	   1.6327039e+00	
   7.2655000e+01	   9.8687055e-01	  -1.1641986e+00	   1.3753919e+00	
   7.2710000e+01	   9.9616987e-01	  -1.3032617e+00	   1.4789675e+00	
   7.2765000e+01	   1.0749072e+00	  -1.0322784e+00	   1.2624081e+00	
   7.2820000e+01	   9.0793570e-01	  -1.2216859e+00	   9.6460186e-01	
   7.2875000e+01	   8.1957006e-01	  -1.2963554e+00	   8.7213026e-01	
   7.2930000e+01	   6.5461921e-01	  -1.4991930e+00	   1.2888031e+00	
   7.2985000e+01	   8.0763903e-01	  -1.2426860e+00	   9.2981909e-01	
   7.3040000e+01	   1.1361522e+00	  -1.3196494e+00	   1.5567166e+00	
   7.3095000e+01	   1.2185422e+00	  -1.2141659e+00	   1.2981852e+00	
   7.3150000e+01	   1.1012329e+00	  -1.2146741e+00	   1.8806341e+00	
   7.3205000e+01	   1.2476775e+00	  -1.2368983e+00	   1.6052317e+00	
   7.3260000e+01	   1.2061281e+00	  -1.0836695e+00	   1.6313151e+00	
   7.3315000e+01	   1.1300428e+00	  -1.5033520e+00	   1.4572083e+00	
   7.3370000e+01	   1.0438667e+00	  -1.1650330e+00	   1.3219138e+00	
   7.3425000e+01	   1.0164617e+00	  -1.6188756e+00	   1.0580863e+00	
   7.3480000e+01	   1.1596203e+00	  -9.8454201e-01	   1.5314657e+00	
   7.3535000e+01	   8.2215462e-01	  -1.1801309e+00	   7.3514981e-01	
   7.3590000e+01	   1.0072505e+00	  -1.6151568e+00	   8.8889979e-01	
   7.3645000e+01	   7.0751410e-01	  -1.4515133e+00	   7.7836100e-01	
   7.3700000e+01	   8.4119919e-01	  -1.5922003e+00	   1.3496044e+00	
   7.3755000e+01	   1.1193790e+00	  -1.0867162e+00	   1.3100432e+00	
   7.3810000e+01	   1.2237881e+00	  -1.3195136e+00	   1.5367004e+00	
   7.3865000e+01	   1.1026502e+00	  -9.9442713e-01	   1.6994670e+00	
   7.3920000e+01	   1.2440928e+00	  -1.4425776e+00	   1.4399912e+00	
   7.3975000e+01	   1.1894778e+00	  -8.6124161e-01	   1.1145626e+00	
   7.4030000e+01	   1.0580864e+00	  -1.0755721e+00	   1.3844323e+00	
   7.4085000e+01	   9.6977599e-01	  -1.3514676e+00	   1.3397878e+00	
   7.4140000e+01	   1.0392651e+00	  -9.2709339e-01	   1.2716244e+00	
   7.4195000e+01	   1.0567175e+00	  -1.3826104e+00	   1.0711045e+00	
   7.4250000e+01	   6.6816393e-01	  -1.4586995e+00	   1.1491859e+00	
   7.4305000e+01	   7.0051918e-01	  -1.6931985e+00	   8.2699939e-01	
   7.4360000e+01	   6.1763199e-01	  -1.7021633e+00	   7.4018274e-01	
   7.4415000e+01	   6.5577928e-01	  -1.4233264e+00	   7.8078074e-01	
   7.4470000e+01	   1.1010190e+00	  -1.1001225e+00	   1.4791591e+00	
   7.4525000e+01	   1.0923321e+00	  -1.3261096e+00	   1.6394877e+00	
   7.4580000e+01	   1.3292734e+00	  -1.2463904e+00	   1.7007138e+00	
   7.4635000e+01	   1.2541416e+00	  -9.5940690e-01	   1.7428571e+00	
   7.4690000e+01	   1.3090512e+00	  -1.1157599e+00	   1.6322087e+00	
   7.4745000e+01	   1.0659039e+00	  -1.3355769e+00	   1.1194981e+00	
   7.4800000e+01	   1.0976962e+00	  -1.2788260e+00	   1.0424725e+00	
   7.4855000e+01	   1.2181269e+00	  -1.5920787e+00	   1.3927862e+00	
   7.4910000e+01	   9.1854553e-01	  -1.5539002e+00	   7.3741828e-01	
   7.4965000e+01	   6.8692953e-01	  -2.1137064e+00	   8.3061086e-01	
   7.5020000e+01	   7.0236971e-01	  -2.0003453e+00	   5.2280803e-01	
   7.5075000e+01	   8.4385837e-01	  -1.7866437e+00	   6.2453511e-01	
   7.5130000e+01	   5.7717171e-01	  -1.8474547e+00	   7.3968682e-01	
   7.5185000e+01	   8.6223617e-01	  -1.5400822e+00	   7.6020379e-01	
   7.5240000e+01	   1.2210826e+00	  -1.2919375e+00	   1.5591557e+00	
   7.5295000e+01	   1.4651982e+00	  -1.2967572e+00	   2.2372608e+00	
   7.5350000e+01	   1.1967650e+00	  -1.5037606e+00	   1.4853530e+00	
   7.5405000e+01	   1.2784266e+00	  -1.4330241e+00	   1.3662758e+00	
   7.5460000e+01	   1.1990859e+00	  -1.5941012e+00	   1.1696218e+00	
   7.5515000e+01	   1.1523613e+00	  -1.4535446e+00	   1.4619904e+00	
   7.5570000e+01	   1.0466028e+00	  -1.2955876e+00	   7.0667694e-01	
   7.5625000e+01	   1.0207585e+00	  -1.7624477e+00	   1.2887557e+00	
   7.5680000e+01	   7.3467062e-01	  -2.0106545e+00	   6.7147943e-01	
   7.5735000e+01	   8.1359110e-01	  -1.9528328e+00	   7.4081672e-01	
   7.5790000e+01	   6.7792103e-01	  -1.7211106e+00	   4.8750486e-01	
   7.5845000e+01	   6.0998455e-01	  -2.4512600e+00	   7.1731063e-01	
   7.5900000e+01	   5.8957126e-01	  -2.3064002e+00	   4.6264593e-01	
   7.5955000e+01	   1.0067330e+00	  -1.5995425e+00	   1.1094547e+00	
   7.6010000e+01	   1.3605909e+00	  -1.4575749e+00	   1.8342035e+00	
   7.6065000e+01	   1.3171271e+00	  -1.4409031e+00	   1.7382641e+00	
   7.6120000e+01	   1.1369198e+00	  -1.3950400e+00	   1.4095530e+00	
   7.6175000e+01	   1.0303501e+00	  -7.8811303e-01	   1.3374431e+00	
   7.6230000e+01	   1.1557528e+00	  -9.8575765e-01	   1.5639754e+00	
   7.6285000e+01	   8.2929409e-01	  -1.1052851e+00	   1.1472899e+00	
   7.6340000e+01	   8.8689441e-01	  -8.3483495e-01	   1.2069301e+00	
   7.6395000e+01	   8.9627390e-01	  -1.2409430e+00	   8.7808642e-01	
   7.6450000e+01	   7.1388467e-01	  -1.4927436e+00	   7.2557988e-01	
   7.6505000e+01	   8.0838366e-01	  -1.5279874e+00	   8.4315868e-01	
   7.6560000e+01	   5.8082101e-01	  -1.5683738e+00	   9.6755288e-01	
   7.6615000e+01	   4.2016498e-01	  -1.5998382e+00	   8.0530790e-01	
   7.6670000e+01	   5.3851031e-01	  -1.5719955e+00	   6.0466291e-01	
   7.6725000e+01	   8.8734333e-01	  -1.2108786e+00	   1.1331073e+00	
   7.6780000e+01	   9.6661255e-01	  -1.0613703e+00	   1.2498211e+00	
   7.6835000e+01	   1.0233788e+00	  -9.6909585e-01	   1.3270524e+00	
   7.6890000e+01	   1.0900315e+00	  -7.7644621e-01	   1.5833093e+00	
   7.6945000e+01	   8.5449197e-01	  -1.3260814e+00	   1.2523474e+00	
   7.7000000e+01	   8.9530664e-01	  -1.3421871e+00	   9.7097964e-01	
   7.7055000e+01	   8.6832820e-01	  -1.2426352e+00	   1.3995428e+00	
   7.7110000e+01	   6.8937338e-01	  -1.3843401e+00	   9.5515998e-01	
   7.7165000e+01	   7.7267528e-01	  -1.2193466e+00	   7.8197528e-01	
   7.7220000e+01	   6.9235353e-01	  -2.0305781e+00	   7.3120232e-01	
   7.7275000e+01	   3.0255906e-01	  -1.7652061e+00	   1.0097684e+00	
   7.7330000e+01	   5.6329369e-01	  -1.3635262e+00	   8.3260425e-01	
   7.7385000e+01	   3.3608019e-01	  -1.4223033e+00	   8.7715460e-01	
   7.7440000e+01	   5.1494455e-01	  -1.4041713e+00	   4.6835554e-01	
   7.7495000e+01	   7.9163473e-01	  -1.1941986e+00	   9.9528060e-01	
   7.7550000e+01	   7.5026690e-01	  -1.3717181e+00	   1.1604197e+00	
   7.7605000e+01	   1.1146688e+00	  -9.9694166e-01	   1.6731082e+00	
   7.7660000e+01	   8.5715912e-01	  -1.2173246e+00	   1.4236158e+00	
   7.7715000e+01	   6.3837533e-01	  -1.3743744e+00	   1.1179766e+00	
   7.7770000e+01	   7.2860999e-01	  -1.4504984e+00	   9.0001363e-01	
   7.7825000e+01	   6.8815682e-01	  -1.1945730e+00	   1.3082212e+00	
   7.7880000e+01	   5.1359746e-01	  -1.3318903e+00	   7.7596104e-01	
   7.7935000e+01	   5.4013732e-01	  -1.7155001e+00	   7.3603983e-01	
   7.7990000e+01	   3.5456169e-01	  -1.8235536e+00	   7.6654908e-01	
   7.8045000e+01	   2.1520249e-01	  -1.3101345e+00	   6.5055852e-01	
   7.8100000e+01	   1.3367416e-01	  -1.6659314e+00	   3.6329952e-01	
   7.8155000e+01	   3.0395020e-01	  -1.6256153e+00	   7.1292925e-01	
   7.8210000e+01	   6.9089365e-01	  -9.6519959e-01	   1.1207976e+00	
   7.8265000e+01	   7.7349050e-01	  -1.5485484e+00	   1.4953210e+00	
   7.8320000e+01	   9.7055867e-01	  -9.7459169e-01	   1.4409467e+00	
   7.8375000e+01	   8.1341153e-01	  -1.5828037e+00	   1.3309225e+00	
   7.8430000e+01	   6.1187869e-01	  -1.5964531e+00	   1.0514283e+00	
   7.8485000e+01	   6.7447620e-01	  -1.2657760e+00	   1.3419750e+00	
   7.8540000e+01	   7.5234828e-01	  -1.2807128e+00	   1.1907482e+00	
   7.8595000e+01	   4.6603457e-01	  -1.3678827e+00	   1.0225767e+00	
   7.8650000e+01	   4.3652306e-01	  -1.9269272e+00	   6.8557739e-01	
   7.8705000e+01	   3.9003157e-01	  -1.7459594e+00	   4.5203718e-01	
   7.8760000e+01	   4.7764082e-01	  -1.4350847e+00	   5.7022282e-01	
   7.8815000e+01	   4.1348422e-01	  -1.7241823e+00	   9.9545648e-01	
   7.8870000e+01	   3.9278377e-01	  -1.6249672e+00	   9.3761258e-01	
   7.8925000e+01	   7.2478976e-01	  -1.3857523e+00	   1.2031177e+00	
   7.8980000e+01	   8.8246021e-01	  -1.2876708e+00	   1.6143704e+00	
   7.9035000e+01	   1.0036749e+00	  -1.3481243e+00	   1.4041815e+00	
   7.9090000e+01	   8.8610514e-01	  -1.5594307e+00	   1.1953660e+00	
   7.9145000e+01	   9.3133400e-01	  -1.3543195e+00	   1.4759515e+00	
   7.9200000e+01	   8.9732240e-01	  -1.2207559e+00	   1.3002378e+00	
   7.9255000e+01	   9.8421627e-01	  -1.0686460e+00	   1.3290850e+00	
   7.9310000e+01	   5.8252932e-01	  -1.4983898e+00	   6.3710714e-01	
   7.9365000e+01	   6.2143389e-01	  -2.1580917e+00	   1.0067254e+00	
   7.9420000e+01	   8.1195853e-01	  -1.9690774e+00	   1.3121268e+00	
   7.9475000e+01	   7.5848232e-01	  -1.8450424e+00	   1.0769418e+00	
   7.9530000e+01	   3.8274008e-01	  -2.4781371e+00	   8.2808095e-01	
   7.9585000e+01	   4.0093076e-01	  -2.6651381e+00	   6.0320849e-01	
   7.9640000e+01	   8.4458919e-01	  -2.1982041e+00	   1.0903629e+00	
   7.9695000e+01	   1.1199863e+00	  -1.7993836e+00	   1.3431455e+00	
   7.9750000e+01	   1.2932113e+00	  -2.0996928e+00	   2.1645220e+00	
   7.9805000e+01	   1.4133253e+00	  -1.4015862e+00	   1.7193239e+00	
   7.9860000e+01	   1.0271780e+00	  -1.7983346e+00	   1.6678593e+00	
   7.9915000e+01	   1.1466578e+00	  -1.7177690e+00	   1.2287468e+00	
   7.9970000e+01	   1.0609149e+00	  -1.7826882e+00	   1.3659263e+00	
   8.0025000e+01	   1.1345680e+00	  -1.9547387e+00	   9.3279316e-01	
   8.0080000e+01	   8.8256232e-01	  -2.5279532e+00	   1.0748762e+00	
   8.0135000e+01	   8.4631708e-01	  -2.1631208e+00	   1.0632739e+00	
   8.0190000e+01	   7.5635604e-01	  -2.0485982e+00	   6.9967455e-01	
   8.0245000e+01	   7.5294786e-01	  -2.6311263e+00	   5.7008388e-01	
   8.0300000e+01	   5.1480691e-01	  -2.5238889e+00	   6.7239750e-01	
   8.0355000e+01	   1.1086484e+00	  -1.7341963e+00	   1.0158207e+00	
   8.0410000e+01	   1.0935067e+00	  -1.9827755e+00	   1.4711868e+00	
   8.0465000e+01	   1.0309580e+00	  -1.8254606e+00	   1.4168015e+00	
   8.0520000e+01	   1.2094893e+00	  -1.6303459e+00	   1.5131381e+00	
   8.0575000e+01	   1.0830890e+00	  -1.0314804e+00	   1.2358633e+00	
   8.0630000e+01	   1.2006543e+00	  -6.3332041e-01	   1.4095530e+00	
   8.0685000e+01	   1.0292984e+00	  -1.1633031e+00	   1.4834114e+00	
   8.0740000e+01	   1.0465853e+00	  -1.1050569e+00	   1.2031177e+00	
   8.0795000e+01	   8.6260784e-01	  -1.3122977e+00	   9.5294238e-01	
   8.0850000e+01	   8.3249709e-01	  -1.1652608e+00	   1.1052376e+00	
   8.0905000e+01	   7.1986981e-01	  -1.4844177e+00	   1.4099005e+00	
   8.0960000e+01	   5.7352988e-01	  -1.2244310e+00	   8.8650635e-01	
   8.1015000e+01	   5.1117206e-01	  -1.0889521e+00	   8.6622018e-01	
   8.1070000e+01	   4.2349637e-01	  -1.2773697e+00	   7.9406860e-01	
   8.1125000e+01	   1.0572492e+00	  -1.2077528e+00	   1.4304355e+00	
   8.1180000e+01	   7.5140866e-01	  -1.3978039e+00	   1.5865341e+00	
   8.1235000e+01	   1.0650994e+00	  -1.3800189e+00	   1.6666189e+00	
   8.1290000e+01	   1.0420745e+00	  -9.9643895e-01	   1.7437061e+00	
   8.1345000e+01	   9.8850822e-01	  -8.4592204e-01	   1.5285153e+00	
   8.1400000e+01	   8.4987383e-01	  -1.1445561e+00	   1.2054984e+00	
   8.1455000e+01	   8.8063667e-01	  -1.3498719e+00	   1.2287468e+00	
   8.1510000e+01	   1.0879031e+00	  -1.2314721e+00	   1.4972770e+00	
   8.1565000e+01	   8.6741162e-01	  -1.1022415e+00	   1.4794526e+00	
   8.1620000e+01	   6.1081221e-01	  -1.3227599e+00	   1.0701672e+00	
   8.1675000e+01	   5.4998222e-01	  -1.6104413e+00	   7.1545808e-01	
   8.1730000e+01	   4.2039875e-01	  -1.6766009e+00	   1.1500668e+00	
   8.1785000e+01	   6.7235147e-01	  -1.4116338e+00	   1.4140271e+00	
   8.1840000e+01	   9.4685972e-01	  -1.1759780e+00	   1.2655898e+00	
   8.1895000e+01	   1.0235730e+00	  -1.1874149e+00	   1.5639147e+00	
   8.1950000e+01	   1.0122281e+00	  -1.1988131e+00	   1.6180635e+00	
   8.2005000e+01	   1.1199524e+00	  -1.1276064e+00	   1.6686673e+00	
   8.2060000e+01	   8.6726689e-01	  -1.2465202e+00	   1.7908808e+00	
   8.2115000e+01	   9.1354325e-01	  -8.9667258e-01	   1.3080788e+00	
   8.2170000e+01	   6.1658947e-01	  -1.5391717e+00	   1.4222002e+00	
   8.2225000e+01	   6.6162804e-01	  -1.0846409e+00	   1.1587539e+00	
   8.2280000e+01	   4.4958274e-01	  -1.3672980e+00	   1.2192296e+00	
   8.2335000e+01	   4.2102241e-01	  -1.2214627e+00	   1.0186116e+00	
   8.2390000e+01	   5.2008957e-01	  -1.5857573e+00	   8.6151229e-01	
   8.2445000e+01	   5.1285914e-01	  -1.2127418e+00	   9.1766521e-01	
   8.2500000e+01	   5.0977063e-01	  -1.2375578e+00	   1.2004910e+00	
   8.2555000e+01	   8.9848983e-01	  -1.4255848e+00	   1.4077725e+00	
   8.2610000e+01	   7.1366944e-01	  -1.3960646e+00	   1.3998686e+00	
   8.2665000e+01	   1.0258272e+00	  -1.0334543e+00	   1.9531594e+00	
   8.2720000e+01	   9.1536089e-01	  -1.3381363e+00	   1.6835948e+00	
   8.2775000e+01	   9.8125655e-01	  -1.3130344e+00	   1.3890873e+00	
   8.2830000e+01	   8.2804177e-01	  -1.1069103e+00	   1.3481533e+00	
   8.2885000e+01	   8.7478962e-01	  -1.2848760e+00	   1.4505001e+00	
   8.2940000e+01	   6.6545095e-01	  -1.4367690e+00	   1.4236158e+00	
   8.2995000e+01	   5.7838253e-01	  -1.3945930e+00	   8.9191906e-01	
   8.3050000e+01	   4.9903276e-01	  -1.3364677e+00	   6.6906506e-01	
   8.3105000e+01	   5.4776372e-01	  -1.4600317e+00	   1.1001303e+00	
   8.3160000e+01	   5.8134052e-01	  -1.4284794e+00	   1.1267638e+00	
   8.3215000e+01	   5.5208229e-01	  -1.7273492e+00	   8.0099350e-01	
   8.3270000e+01	   9.7641620e-01	  -1.2007453e+00	   1.6892916e+00	
   8.3325000e+01	   1.0178810e+00	  -1.1307379e+00	   1.5647244e+00	
   8.3380000e+01	   1.1011387e+00	  -7.3148165e-01	   1.6950359e+00	
   8.3435000e+01	   1.1363822e+00	  -9.4191227e-01	   1.9290075e+00	
   8.3490000e+01	   1.0428755e+00	  -6.8772433e-01	   1.4572083e+00	
   8.3545000e+01	   9.4946728e-01	  -7.3924867e-01	   1.5190461e+00	
   8.3600000e+01	   9.4180986e-01	  -1.3005234e+00	   1.3837230e+00	
   8.3655000e+01	   8.0904810e-01	  -1.2825852e+00	   1.3791802e+00	
   8.3710000e+01	   7.0060297e-01	  -1.8211977e+00	   1.0644893e+00	
   8.3765000e+01	   7.0532237e-01	  -1.6500709e+00	   9.0888970e-01	
   8.3820000e+01	   7.4942298e-01	  -1.4593223e+00	   1.0941157e+00	
   8.3875000e+01	   7.4650435e-01	  -1.6630870e+00	   1.0959767e+00	
   8.3930000e+01	   8.0776356e-01	  -1.8335982e+00	   1.1664883e+00	
   8.3985000e+01	   1.1251706e+00	  -1.2830180e+00	   1.4016207e+00	
   8.4040000e+01	   9.7635300e-01	  -1.0199384e+00	   1.6867591e+00	
   8.4095000e+01	   1.2501756e+00	  -1.2426317e+00	   2.0205733e+00	
   8.4150000e+01	   1.2044539e+00	  -1.1982734e+00	   1.9785230e+00	
   8.4205000e+01	   1.1828630e+00	  -1.4083740e+00	   1.5303551e+00	
   8.4260000e+01	   1.1603162e+00	  -1.3483661e+00	   1.2830684e+00	
   8.4315000e+01	   1.0503084e+00	  -1.4231757e+00	   1.6723250e+00	
   8.4370000e+01	   1.2125949e+00	  -1.6108605e+00	   1.2738027e+00	
   8.4425000e+01	   9.5168270e-01	  -1.7967592e+00	   1.1219107e+00	
   8.4480000e+01	   7.9054317e-01	  -1.6757795e+00	   1.4460495e+00	
   8.4535000e+01	   6.9359224e-01	  -1.4029937e+00	   9.6515131e-01	
   8.4590000e+01	   8.1704996e-01	  -1.4196445e+00	   8.6805817e-01	
   8.4645000e+01	   6.5249323e-01	  -1.5965436e+00	   7.6936625e-01	
   8.4700000e+01	   8.8707650e-01	  -1.0402320e+00	   1.5964649e+00	
   8.4755000e+01	   1.0897228e+00	  -4.9540726e-01	   1.6486995e+00	
   8.4810000e+01	   1.1303780e+00	  -1.2353119e+00	   1.7143116e+00	
   8.4865000e+01	   9.8717480e-01	  -1.3017584e+00	   1.4942893e+00	
   8.4920000e+01	   1.0547146e+00	  -1.0984886e+00	   1.5651109e+00	
   8.4975000e+01	   1.2767989e+00	  -1.2004280e+00	   1.5296380e+00	
   8.5030000e+01	   1.1855029e+00	  -1.0971801e+00	   1.7287483e+00	
   8.5085000e+01	   6.7489487e-01	  -9.3597677e-01	   1.1871753e+00	
   8.5140000e+01	   8.2642005e-01	  -9.0087862e-01	   1.5464916e+00	
   8.5195000e+01	   8.4344663e-01	  -1.1225415e+00	   1.1965872e+00	
   8.5250000e+01	   7.8044701e-01	  -1.4479205e+00	   1.0464788e+00	
   8.5305000e+01	   6.9017269e-01	  -1.3674485e+00	   9.3866931e-01	
   8.5360000e+01	   7.0007407e-01	  -1.2532966e+00	   9.9390234e-01	
   8.5415000e+01	   1.0446395e+00	  -1.0393295e+00	   1.5009205e+00	
   8.5470000e+01	   1.1450542e+00	  -1.0007704e+00	   1.6661260e+00	
   8.5525000e+01	   1.0389303e+00	  -7.9984518e-01	   1.7608228e+00	
   8.5580000e+01	   8.9562130e-01	  -1.0532554e+00	   1.6785844e+00	
   8.5635000e+01	   9.0862811e-01	  -6.3739978e-01	   1.4597734e+00	
   8.5690000e+01	   1.0609204e+00	  -5.5824848e-01	   2.0323324e+00	
   8.5745000e+01	   1.0140805e+00	  -1.4276944e+00	   1.3741276e+00	
   8.5800000e+01	   8.5873288e-01	  -1.3950159e+00	   1.0780515e+00	
   8.5855000e+01	   5.7769133e-01	  -1.1982253e+00	   9.9310899e-01	
   8.5910000e+01	   8.6405972e-01	  -8.9053243e-01	   1.3253011e+00	
   8.5965000e+01	   5.2353198e-01	  -1.2958532e+00	   8.8459571e-01	
   8.6020000e+01	   4.0323349e-01	  -1.8224521e+00	   8.7274481e-01	
   8.6075000e+01	   6.3093754e-01	  -1.2394376e+00	   1.1992004e+00	
   8.6130000e+01	   1.0995616e+00	  -7.7895979e-01	   1.8794441e+00	
   8.6185000e+01	   1.0078183e+00	  -7.7654211e-01	   1.5667468e+00	
   8.6240000e+01	   9.8988671e-01	  -1.1293811e+00	   1.6583324e+00	
   8.6295000e+01	   7.6328459e-01	  -1.3875328e+00	   1.4318220e+00	
   8.6350000e+01	   8.5661265e-01	  -1.1007546e+00	   1.6303870e+00	
   8.6405000e+01	   1.1439918e+00	  -1.0526404e+00	   1.4050549e+00	
   8.6460000e+01	   8.8803841e-01	  -1.0169088e+00	   1.4471666e+00	
   8.6515000e+01	   7.1325701e-01	  -1.3244546e+00	   1.3844323e+00	
   8.6570000e+01	   7.3035237e-01	  -1.5532933e+00	   1.4321407e+00	
   8.6625000e+01	   7.3941713e-01	  -1.3175428e+00	   1.1305810e+00	
   8.6680000e+01	   5.0388831e-01	  -1.5520818e+00	   1.0293516e+00	
   8.6735000e+01	   3.7225162e-01	  -1.5888133e+00	   1.0068400e+00	
   8.6790000e+01	   8.6562044e-01	  -1.0992812e+00	   1.2987295e+00	
   8.6845000e+01	   1.2748047e+00	  -7.7022478e-01	   1.7812998e+00	
   8.6900000e+01	   1.2017944e+00	  -8.7241138e-01	   1.7748817e+00	
   8.6955000e+01	   1.2934815e+00	  -9.9373807e-01	   2.1468576e+00	
   8.7010000e+01	   1.1172769e+00	  -1.1570283e+00	   1.5781033e+00	
   8.7065000e+01	   1.0418252e+00	  -1.1546455e+00	   1.8553991e+00	
   8.7120000e+01	   1.0629482e+00	  -8.0942529e-01	   1.7556439e+00	
   8.7175000e+01	   9.7131315e-01	  -1.1709839e+00	   1.6885172e+00	
   8.7230000e+01	   8.2372186e-01	  -1.3616563e+00	   1.4947886e+00	
   8.7285000e+01	   7.8519549e-01	  -1.2566530e+00	   1.3292217e+00	
   8.7340000e+01	   9.1622187e-01	  -1.4370585e+00	   1.3662282e+00	
   8.7395000e+01	   7.0405411e-01	  -1.6671547e+00	   1.1485972e+00	
   8.7450000e+01	   5.6301764e-01	  -1.7645838e+00	   1.3138447e+00	
   8.7505000e+01	   1.1329032e+00	  -1.1132014e+00	   1.5288528e+00	
   8.7560000e+01	   1.2457686e+00	  -1.1445544e+00	   1.9445896e+00	
   8.7615000e+01	   1.3657833e+00	  -1.0286768e+00	   2.0341661e+00	
   8.7670000e+01	   1.2778603e+00	  -1.1227849e+00	   2.0913965e+00	
   8.7725000e+01	   1.3005348e+00	  -1.2388121e+00	   1.8776576e+00	
   8.7780000e+01	   1.3500774e+00	  -1.1861418e+00	   2.1584691e+00	
   8.7835000e+01	   1.1770357e+00	  -1.1764500e+00	   1.8452573e+00	
   8.7890000e+01	   1.0480140e+00	  -9.7568325e-01	   1.7526682e+00	
   8.7945000e+01	   1.0313223e+00	  -1.5927792e+00	   1.5974962e+00	
   8.8000000e+01	   1.1819107e+00	  -1.0703429e+00	   1.6763002e+00	
   8.8055000e+01	   9.9333255e-01	  -1.3138496e+00	   1.1205048e+00	
   8.8110000e+01	   7.2316029e-01	  -1.6747390e+00	   1.2572967e+00	
   8.8165000e+01	   6.5186690e-01	  -1.7135827e+00	   1.2948464e+00	
   8.8220000e+01	   8.1596407e-01	  -1.2129461e+00	   1.5352946e+00	
   8.8275000e+01	   1.1586886e+00	  -8.1804834e-01	   1.7595480e+00	
   8.8330000e+01	   1.2093334e+00	  -7.4343871e-01	   2.0029438e+00	
   8.8385000e+01	   1.3379126e+00	  -9.9521785e-01	   2.0554143e+00	
   8.8440000e+01	   1.1565736e+00	  -8.3418377e-01	   2.2934707e+00	
   8.8495000e+01	   1.5081782e+00	  -9.2355227e-01	   2.2148627e+00	
   8.8550000e+01	   1.4037780e+00	  -1.0847433e+00	   1.9241631e+00	
   8.8605000e+01	   1.1118353e+00	  -1.0135233e+00	   1.9836067e+00	
   8.8660000e+01	   1.1319790e+00	  -1.2704324e+00	   1.9528302e+00	
   8.8715000e+01	   9.8939241e-01	  -1.2087172e+00	   1.3962051e+00	
   8.8770000e+01	   9.9082063e-01	  -1.2889093e+00	   1.3193190e+00	
   8.8825000e+01	   8.7432684e-01	  -1.3071311e+00	   1.6032472e+00	
   8.8880000e+01	   7.1388979e-01	  -1.1461978e+00	   1.1218820e+00	
   8.8935000e+01	   7.9071892e-01	  -1.1710135e+00	   1.3945984e+00	
   8.8990000e+01	   9.5201636e-01	  -1.0020146e+00	   1.6323337e+00	
   8.9045000e+01	   1.1637030e+00	  -8.5784275e-01	   2.0867904e+00	
   8.9100000e+01	   1.0376969e+00	  -1.0222504e+00	   1.9071772e+00	
   8.9155000e+01	   1.2624247e+00	  -1.1005850e+00	   2.1279613e+00	
   8.9210000e+01	   1.2846414e+00	  -9.6689163e-01	   1.9930918e+00	
   8.9265000e+01	   1.0533290e+00	  -1.4432082e+00	   1.8188866e+00	
   8.9320000e+01	   9.4286245e-01	  -1.3241098e+00	   1.7875402e+00	
   8.9375000e+01	   9.7656622e-01	  -1.3730421e+00	   1.8144191e+00	
   8.9430000e+01	   7.7251706e-01	  -1.1986827e+00	   1.8197120e+00	
   8.9485000e+01	   7.9503456e-01	  -1.2080595e+00	   1.8091663e+00	
   8.9540000e+01	   7.8089395e-01	  -1.0940789e+00	   1.5130153e+00	
   8.9595000e+01	   5.6771208e-01	  -1.3281581e+00	   1.1535970e+00	
   8.9650000e+01	   7.2636022e-01	  -1.3674964e+00	   1.7176492e+00	
   8.9705000e+01	   1.1643947e+00	  -1.1523100e+00	   1.5478103e+00	
   8.9760000e+01	   9.5170677e-01	  -1.2052789e+00	   2.0016472e+00	
   8.9815000e+01	   1.0181317e+00	  -1.0519402e+00	   2.2443549e+00	
   8.9870000e+01	   1.2257902e+00	  -6.7096704e-01	   2.1443167e+00	
   8.9925000e+01	   1.0103625e+00	  -9.7677067e-01	   1.9445896e+00	
   8.9980000e+01	   1.1484824e+00	  -1.1329970e+00	   2.0610735e+00	
   9.0035000e+01	   9.3635408e-01	  -1.3745946e+00	   1.6803634e+00	
   9.0090000e+01	   7.3361763e-01	  -1.0645256e+00	   1.6313151e+00	
   9.0145000e+01	   8.0839875e-01	  -1.4115417e+00	   1.6526003e+00	
   9.0200000e+01	   4.8462984e-01	  -1.9561673e+00	   1.0964011e+00	
   9.0255000e+01	   3.1713578e-01	  -1.4467701e+00	   7.0353457e-01	
   9.0310000e+01	   4.5290833e-01	  -1.6549050e+00	   9.6610349e-01	
   9.0365000e+01	   4.5161475e-01	  -1.6323952e+00	   1.2216321e+00	
   9.0420000e+01	   7.2621626e-01	  -1.2322814e+00	   1.8997129e+00	
   9.0475000e+01	   1.0121140e+00	  -1.0696696e+00	   1.8664662e+00	
   9.0530000e+01	   1.0841311e+00	  -1.3663424e+00	   2.4049192e+00	
   9.0585000e+01	   1.1766514e+00	  -9.1289427e-01	   2.1641279e+00	
   9.0640000e+01	   9.1360721e-01	  -1.0012930e+00	   1.6570744e+00	
   9.0695000e+01	   9.8633905e-01	  -1.0811188e+00	   1.7261753e+00	
   9.0750000e+01	   9.8084208e-01	  -1.6937820e+00	   1.6913286e+00	
   9.0805000e+01	   1.0202288e+00	  -1.2703055e+00	   2.0167513e+00	
   9.0860000e+01	   8.8651516e-01	  -1.7769958e+00	   1.5259158e+00	
   9.0915000e+01	   7.8279665e-01	  -2.0351824e+00	   1.6982704e+00	
   9.0970000e+01	   5.9129074e-01	  -2.2186520e+00	   9.4628268e-01	
   9.1025000e+01	   6.2847227e-01	  -2.0065137e+00	   9.6441802e-01	
   9.1080000e+01	   4.9627417e-01	  -1.9875978e+00	   1.2487010e+00	
   9.1135000e+01	   8.8915679e-01	  -2.0396656e+00	   1.2277741e+00	
   9.1190000e+01	   8.8901695e-01	  -1.4716508e+00	   1.7381681e+00	
   9.1245000e+01	   1.0419864e+00	  -1.4480248e+00	   2.1182484e+00	
   9.1300000e+01	   1.3289447e+00	  -1.6010993e+00	   1.8013864e+00	
   9.1355000e+01	   1.0590758e+00	  -1.6577231e+00	   2.1359729e+00	
   9.1410000e+01	   9.8536231e-01	  -1.5056160e+00	   1.8968991e+00	
   9.1465000e+01	   1.0779671e+00	  -1.2577912e+00	   1.6483010e+00	
   9.1520000e+01	   1.0104102e+00	  -1.0034941e+00	   1.4830903e+00	
   9.1575000e+01	   9.2061366e-01	  -1.5206615e+00	   1.3193190e+00	
   9.1630000e+01	   6.6011341e-01	  -1.7384261e+00	   1.6086692e+00	
   9.1685000e+01	   8.6661525e-01	  -2.2857362e+00	   9.0769283e-01	
   9.1740000e+01	   6.4838997e-01	  -1.6417612e+00	   1.2391103e+00	
   9.1795000e+01	   6.7699387e-01	  -1.5998570e+00	   1.2508286e+00	
   9.1850000e+01	   4.5261930e-01	  -2.3535597e+00	   9.9280475e-01	
   9.1905000e+01	   8.8159135e-01	  -2.2464850e+00	   1.2306141e+00	
   9.1960000e+01	   1.0028837e+00	  -1.7931510e+00	   1.7493516e+00	
   9.2015000e+01	   1.1046509e+00	  -1.3232763e+00	   1.6549055e+00	
   9.2070000e+01	   1.1174092e+00	  -1.2638991e+00	   1.9922707e+00	
   9.2125000e+01	   7.5462059e-01	  -1.4939347e+00	   1.6051264e+00	
   9.2180000e+01	   1.0449125e+00	  -8.2152530e-01	   2.3303573e+00	
   9.2235000e+01	   8.0705131e-01	  -9.2912321e-01	   1.4744606e+00	
   9.2290000e+01	   8.2783019e-01	  -1.2098159e+00	   1.3499426e+00	
   9.2345000e+01	   7.5684651e-01	  -1.2584942e+00	   1.6086692e+00	
   9.2400000e+01	   6.7448685e-01	  -1.3056270e+00	   1.2464376e+00	
   9.2455000e+01	   6.7491380e-01	  -1.3161132e+00	   1.2718802e+00	
   9.2510000e+01	   6.3284965e-01	  -1.3301471e+00	   9.0550046e-01	
   9.2565000e+01	   3.3425729e-01	  -1.3952614e+00	   1.3817215e+00	
   9.2620000e+01	   6.8177645e-01	  -1.4099143e+00	   1.3411424e+00	
   9.2675000e+01	   1.0302029e+00	  -9.4919593e-01	   1.8298902e+00	
   9.2730000e+01	   9.6784778e-01	  -8.0412685e-01	   1.8847431e+00	
   9.2785000e+01	   8.5964824e-01	  -1.2058659e+00	   1.9150905e+00	
   9.2840000e+01	   7.5027390e-01	  -9.8480196e-01	   1.6048691e+00	
   9.2895000e+01	   8.9875342e-01	  -1.1231274e+00	   1.9817713e+00	
   9.2950000e+01	   9.7063521e-01	  -8.3193426e-01	   2.1532759e+00	
   9.3005000e+01	   6.0568234e-01	  -1.2436030e+00	   1.1542593e+00	
   9.3060000e+01	   5.4322906e-01	  -1.1892461e+00	   1.2572967e+00	
   9.3115000e+01	   7.7246537e-01	  -1.2401561e+00	   1.7006201e+00	
   9.3170000e+01	   5.2413391e-01	  -1.3920742e+00	   1.1076632e+00	
   9.3225000e+01	   3.6422975e-01	  -1.3668052e+00	   9.1911000e-01	
   9.3280000e+01	   5.1423116e-01	  -1.3917468e+00	   1.2669098e+00	
   9.3335000e+01	   6.2840503e-01	  -1.1842018e+00	   1.3741276e+00	
   9.3390000e+01	   8.1219615e-01	  -1.1120671e+00	   1.6888528e+00	
   9.3445000e+01	   9.7708371e-01	  -1.4839124e+00	   1.8059674e+00	
   9.3500000e+01	   8.8045746e-01	  -1.2941738e+00	   1.7372423e+00	
   9.3555000e+01	   8.4715534e-01	  -1.3185065e+00	   1.7279685e+00	
   9.3610000e+01	   7.8158742e-01	  -1.1488640e+00	   1.6093578e+00	
   9.3665000e+01	   8.3905932e-01	  -1.1878413e+00	   1.3851681e+00	
   9.3720000e+01	   6.9260936e-01	  -1.8888930e+00	   1.2040247e+00	
   9.3775000e+01	   4.9438097e-01	  -1.3147556e+00	   1.1240699e+00	
   9.3830000e+01	   6.5792865e-01	  -1.3936267e+00	   9.2042926e-01	
   9.3885000e+01	   4.9324864e-01	  -1.3893447e+00	   1.2508286e+00	
   9.3940000e+01	   3.2319803e-01	  -1.5369119e+00	   9.4934201e-01	
   9.3995000e+01	   6.6837467e-01	  -1.3768627e+00	   1.2658269e+00	
   9.4050000e+01	   1.0198018e+00	  -1.0171388e+00	   1.5823132e+00	
   9.4105000e+01	   9.7793875e-01	  -1.0742194e+00	   1.6027560e+00	
   9.4160000e+01	   8.9765989e-01	  -1.1366376e+00	   1.5633218e+00	
   9.4215000e+01	   9.9492142e-01	  -1.1220767e+00	   1.8233392e+00	
   9.4270000e+01	   1.0505083e+00	  -8.7508204e-01	   1.8740644e+00	
   9.4325000e+01	   9.5717274e-01	  -1.0894432e+00	   1.9086920e+00	
   9.4380000e+01	   7.4406773e-01	  -1.0775146e+00	   1.3289754e+00	
   9.4435000e+01	   7.4872431e-01	  -1.3392715e+00	   1.2696025e+00	
   9.4490000e+01	   6.9399793e-01	  -1.2148285e+00	   1.3189806e+00	
   9.4545000e+01	   7.5872983e-01	  -1.4161022e+00	   1.0639023e+00	
   9.4600000e+01	   7.1984836e-01	  -1.8407583e+00	   1.1435709e+00	
   9.4655000e+01	   4.4860036e-01	  -1.8976427e+00	   8.7111651e-01	
   9.4710000e+01	   8.9705693e-01	  -1.2786364e+00	   1.2745029e+00	
   9.4765000e+01	   1.0853447e+00	  -1.4575044e+00	   1.4906250e+00	
   9.4820000e+01	   1.2017722e+00	  -1.2471254e+00	   1.8039498e+00	
   9.4875000e+01	   1.0375054e+00	  -1.0531823e+00	   1.7565834e+00	
   9.4930000e+01	   1.2044671e+00	  -8.7853081e-01	   1.8928287e+00	
   9.4985000e+01	   1.2457546e+00	  -1.0351476e+00	   1.4134382e+00	
   9.5040000e+01	   9.6172471e-01	  -1.1868123e+00	   1.4654895e+00	
   9.5095000e+01	   8.3234051e-01	  -1.2194559e+00	   1.1411953e+00	
   9.5150000e+01	   8.6613434e-01	  -1.2716130e+00	   8.0175001e-01	
   9.5205000e+01	   7.8759503e-01	  -1.0739776e+00	   1.0224973e+00	
   9.5260000e+01	   1.0208869e+00	  -7.8367098e-01	   1.3953375e+00	
   9.5315000e+01	   4.6705380e-01	  -1.0640287e+00	   5.0110809e-01	
   9.5370000e+01	   5.1716700e-01	  -1.4993565e+00	   7.3332163e-01	
   9.5425000e+01	   1.1759219e+00	  -1.2594064e+00	   1.5622766e+00	
   9.5480000e+01	   1.1800275e+00	  -1.0618959e+00	   1.7889122e+00	
   9.5535000e+01	   1.2406796e+00	  -7.1124875e-01	   1.2552820e+00	
