	
0   5   7
   0.0000000e+00	   6.9439426e+00	   9.5983329e-01	
   5.5000000e-02	   6.8572509e+00	   8.9826553e-01	
   1.1000000e-01	   6.3870044e+00	   7.5989661e-01	
   1.6500000e-01	   6.4371235e+00	   8.3096215e-01	
   2.2000000e-01	   6.4680318e+00	   7.6946835e-01	
   2.7500000e-01	   6.3765528e+00	   7.5522341e-01	
   3.3000000e-01	   6.1520402e+00	   4.6991642e-01	
   3.8500000e-01	   6.2488382e+00	   7.7625624e-01	
   4.4000000e-01	   6.7051703e+00	   9.5110065e-01	
   4.9500000e-01	   6.8379687e+00	   9.5438431e-01	
   5.5000000e-01	   6.7189114e+00	   1.0246702e+00	
   6.0500000e-01	   6.8752450e+00	   1.0820858e+00	
   6.6000000e-01	   6.7512310e+00	   9.0493537e-01	
   7.1500000e-01	   6.8802097e+00	   1.0926768e+00	
   7.7000000e-01	   6.7202989e+00	   8.7753359e-01	
   8.2500000e-01	   6.2383403e+00	   6.5892585e-01	
   8.8000000e-01	   6.3706394e+00	   5.6228672e-01	
   9.3500000e-01	   6.1774081e+00	   8.2875664e-01	
   9.9000000e-01	   6.3092199e+00	   6.3669648e-01	
   1.0450000e+00	   6.4701176e+00	   8.2074477e-01	
   1.1000000e+00	   6.6854380e+00	   8.9169853e-01	
   1.1550000e+00	   6.7588544e+00	   9.4278991e-01	
   1.2100000e+00	   6.9944458e+00	   9.1667466e-01	
   1.2650000e+00	   6.5712763e+00	   8.1085464e-01	
   1.3200000e+00	   6.4331157e+00	   7.6033885e-01	
   1.3750000e+00	   6.4931777e+00	   8.3599234e-01	
   1.4300000e+00	   6.4039870e+00	   8.0923100e-01	
   1.4850000e+00	   6.0914240e+00	   6.4801699e-01	
   1.5400000e+00	   5.8019231e+00	   4.1087119e-01	
   1.5950000e+00	   6.0043337e+00	   4.4478150e-01	
   1.6500000e+00	   6.8165107e+00	   8.2781800e-01	
   1.7050000e+00	   6.7098065e+00	   8.0221566e-01	
   1.7600000e+00	   6.6828705e+00	   8.8097855e-01	
   1.8150000e+00	   6.6166510e+00	   7.5853637e-01	
   1.8700000e+00	   6.8269515e+00	   9.9866647e-01	
   1.9250000e+00	   6.4810989e+00	   7.1137986e-01	
   1.9800000e+00	   6.4729120e+00	   7.1047168e-01	
   2.0350000e+00	   6.0529966e+00	   6.3834461e-01	
   2.0900000e+00	   6.3326841e+00	   6.2085726e-01	
   2.1450000e+00	   6.1882744e+00	   5.1766589e-01	
   2.2000000e+00	   5.8605392e+00	   5.1058286e-01	
   2.2550000e+00	   6.5246274e+00	   6.7766698e-01	
   2.3100000e+00	   6.4597296e+00	   7.0602980e-01	
   2.3650000e+00	   6.7623174e+00	   8.6659377e-01	
   2.4200000e+00	   6.5221751e+00	   6.3976935e-01	
   2.4750000e+00	   6.5521028e+00	   7.6122314e-01	
   2.5300000e+00	   6.6296560e+00	   7.1692537e-01	
   2.5850000e+00	   6.6815606e+00	   9.1751892e-01	
   2.6400000e+00	   6.1785170e+00	   5.8725732e-01	
   2.6950000e+00	   6.0961542e+00	   3.8273418e-01	
   2.7500000e+00	   6.2689622e+00	   5.8028103e-01	
   2.8050000e+00	   6.0285136e+00	   4.9339225e-01	
   2.8600000e+00	   6.4211578e+00	   5.9212035e-01	
   2.9150000e+00	   6.7661328e+00	   6.1703018e-01	
   2.9700000e+00	   6.7413148e+00	   9.6723553e-01	
   3.0250000e+00	   6.8237467e+00	   8.1250307e-01	
   3.0800000e+00	   6.3536685e+00	   6.4958195e-01	
   3.1350000e+00	   6.4511820e+00	   5.9068721e-01	
   3.1900000e+00	   6.5838057e+00	   7.0245561e-01	
   3.2450000e+00	   6.3911737e+00	   7.2490300e-01	
   3.3000000e+00	   6.2514741e+00	   5.7091944e-01	
   3.3550000e+00	   6.1459254e+00	   4.3678672e-01	
   3.4100000e+00	   5.5150402e+00	   2.9003726e-01	
   3.4650000e+00	   5.8687342e+00	   2.3492375e-01	
   3.5200000e+00	   6.3978635e+00	   5.5704482e-01	
   3.5750000e+00	   6.4389340e+00	   6.7722517e-01	
   3.6300000e+00	   6.5097025e+00	   7.5857063e-01	
   3.6850000e+00	   6.4082520e+00	   7.4235429e-01	
   3.7400000e+00	   6.6537839e+00	   6.6126018e-01	
   3.7950000e+00	   6.2943062e+00	   6.4377132e-01	
   3.8500000e+00	   6.3628995e+00	   5.6342737e-01	
   3.9050000e+00	   6.1777706e+00	   6.4248454e-01	
   3.9600000e+00	   6.0969833e+00	   4.2198543e-01	
   4.0150000e+00	   5.9032705e+00	   4.5100409e-01	
   4.0700000e+00	   5.7990620e+00	   3.2065997e-01	
   4.1250000e+00	   6.0821403e+00	   3.8793550e-01	
   4.1800000e+00	   6.5227152e+00	   7.8304200e-01	
   4.2350000e+00	   6.3149432e+00	   6.8499827e-01	
   4.2900000e+00	   6.5070679e+00	   5.5142763e-01	
   4.3450000e+00	   6.2239051e+00	   6.6962367e-01	
   4.4000000e+00	   6.2866935e+00	   5.3626463e-01	
   4.4550000e+00	   6.1645290e+00	   5.2043714e-01	
   4.5100000e+00	   6.0481172e+00	   4.5231105e-01	
   4.5650000e+00	   5.9011515e+00	   3.6707593e-01	
   4.6200000e+00	   5.9988235e+00	   5.8236459e-01	
   4.6750000e+00	   5.5987929e+00	   2.5656458e-01	
   4.7300000e+00	   5.9574847e+00	   3.6230313e-01	
   4.7850000e+00	   6.0055734e+00	   4.8446257e-01	
   4.8400000e+00	   6.4509098e+00	   7.0281496e-01	
   4.8950000e+00	   6.2231724e+00	   6.4357528e-01	
   4.9500000e+00	   6.1199818e+00	   6.7212224e-01	
   5.0050000e+00	   6.0154102e+00	   4.0891351e-01	
   5.0600000e+00	   6.0280775e+00	   5.6779365e-01	
   5.1150000e+00	   5.9139178e+00	   3.8151261e-01	
   5.1700000e+00	   5.8705396e+00	   5.2557543e-01	
   5.2250000e+00	   5.3273811e+00	   1.6500816e-01	
   5.2800000e+00	   5.6974584e+00	   1.3655269e-01	
   5.3350000e+00	   6.0055826e+00	   5.3148952e-01	
   5.3900000e+00	   6.1258068e+00	   5.6216486e-01	
   5.4450000e+00	   5.9673820e+00	   5.0498447e-01	
   5.5000000e+00	   6.1701659e+00	   7.5241509e-01	
   5.5550000e+00	   6.2323904e+00	   7.5798567e-01	
   5.6100000e+00	   6.1943245e+00	   5.8462432e-01	
   5.6650000e+00	   6.0330381e+00	   6.6182691e-01	
   5.7200000e+00	   5.8087148e+00	   5.0683711e-01	
   5.7750000e+00	   5.5164648e+00	   2.6083769e-01	
   5.8300000e+00	   5.6045654e+00	   2.0967436e-01	
   5.8850000e+00	   5.3813842e+00	   3.3406156e-01	
   5.9400000e+00	   5.7129227e+00	   3.3445036e-01	
   5.9950000e+00	   5.7453410e+00	   4.0575751e-01	
   6.0500000e+00	   6.2406627e+00	   7.5720515e-01	
   6.1050000e+00	   6.0337397e+00	   7.9673312e-01	
   6.1600000e+00	   5.8180369e+00	   5.4093524e-01	
   6.2150000e+00	   6.0230749e+00	   5.8875468e-01	
   6.2700000e+00	   6.0455682e+00	   6.6919709e-01	
   6.3250000e+00	   5.8175642e+00	   7.2204297e-01	
   6.3800000e+00	   5.7003237e+00	   4.6006660e-01	
   6.4350000e+00	   5.8117426e+00	   4.4376974e-01	
   6.4900000e+00	   5.4987087e+00	   6.2667250e-01	
   6.5450000e+00	   5.6479131e+00	   3.4128818e-01	
   6.6000000e+00	   5.5451743e+00	   4.5487037e-01	
   6.6550000e+00	   6.0360305e+00	   6.4838978e-01	
   6.7100000e+00	   6.2218695e+00	   7.1118824e-01	
   6.7650000e+00	   6.1071689e+00	   7.3541544e-01	
   6.8200000e+00	   5.8722253e+00	   5.4094725e-01	
   6.8750000e+00	   5.8841192e+00	   6.7713551e-01	
   6.9300000e+00	   6.0164513e+00	   7.1378437e-01	
   6.9850000e+00	   5.8916755e+00	   7.5430603e-01	
   7.0400000e+00	   5.5902787e+00	   3.9766183e-01	
   7.0950000e+00	   5.5465922e+00	   4.8145891e-01	
   7.1500000e+00	   5.4790953e+00	   5.0046241e-01	
   7.2050000e+00	   5.4384717e+00	   4.4589587e-01	
   7.2600000e+00	   5.7198569e+00	   4.9097527e-01	
   7.3150000e+00	   5.9388014e+00	   5.5572304e-01	
   7.3700000e+00	   5.8314284e+00	   7.2767579e-01	
   7.4250000e+00	   5.8170820e+00	   6.6648628e-01	
   7.4800000e+00	   6.0594759e+00	   7.8882160e-01	
   7.5350000e+00	   5.6846449e+00	   5.0394713e-01	
   7.5900000e+00	   5.7349700e+00	   4.9332290e-01	
   7.6450000e+00	   5.9098411e+00	   7.0218561e-01	
   7.7000000e+00	   5.7090521e+00	   6.3997083e-01	
   7.7550000e+00	   5.5355653e+00	   4.8041523e-01	
   7.8100000e+00	   5.0287284e+00	   2.5182712e-01	
   7.8650000e+00	   5.5745612e+00	   5.2128849e-01	
   7.9200000e+00	   5.8902565e+00	   6.4729559e-01	
   7.9750000e+00	   5.8544288e+00	   5.4606472e-01	
   8.0300000e+00	   6.0143144e+00	   7.0999266e-01	
   8.0850000e+00	   5.6078480e+00	   7.4246338e-01	
   8.1400000e+00	   5.8733460e+00	   7.7894983e-01	
   8.1950000e+00	   5.4141533e+00	   4.7309394e-01	
   8.2500000e+00	   5.4461723e+00	   5.3212048e-01	
   8.3050000e+00	   5.1974528e+00	   4.8256697e-01	
   8.3600000e+00	   5.1352100e+00	   4.5802166e-01	
   8.4150000e+00	   5.4231916e+00	   3.1677850e-01	
   8.4700000e+00	   5.3346023e+00	   5.1560410e-01	
   8.5250000e+00	   5.8987442e+00	   7.4496057e-01	
   8.5800000e+00	   5.9260852e+00	   7.6910987e-01	
   8.6350000e+00	   6.1615552e+00	   8.3966202e-01	
   8.6900000e+00	   5.6905537e+00	   7.0721662e-01	
   8.7450000e+00	   5.8578415e+00	   6.9251478e-01	
   8.8000000e+00	   5.6648964e+00	   7.9974696e-01	
   8.8550000e+00	   5.8890932e+00	   7.5359254e-01	
   8.9100000e+00	   5.3776428e+00	   3.4659702e-01	
   8.9650000e+00	   5.4112866e+00	   4.7303185e-01	
   9.0200000e+00	   5.2967598e+00	   5.1195541e-01	
   9.0750000e+00	   5.6357121e+00	   5.2525931e-01	
   9.1300000e+00	   5.6934265e+00	   7.3875172e-01	
   9.1850000e+00	   5.6992079e+00	   6.2554474e-01	
   9.2400000e+00	   6.2274162e+00	   1.0465517e+00	
   9.2950000e+00	   6.1406836e+00	   7.8312701e-01	
   9.3500000e+00	   6.0291093e+00	   6.9647986e-01	
   9.4050000e+00	   5.5833513e+00	   6.5974243e-01	
   9.4600000e+00	   5.9422022e+00	   7.8666156e-01	
   9.5150000e+00	   5.6216621e+00	   7.6413046e-01	
   9.5700000e+00	   5.7494906e+00	   5.6232988e-01	
   9.6250000e+00	   5.6545913e+00	   4.8684177e-01	
   9.6800000e+00	   5.2283759e+00	   3.7313733e-01	
   9.7350000e+00	   5.8565016e+00	   8.8598429e-01	
   9.7900000e+00	   6.2004201e+00	   8.3064206e-01	
   9.8450000e+00	   5.9391510e+00	   8.7715478e-01	
   9.9000000e+00	   5.9705111e+00	   8.2890025e-01	
   9.9550000e+00	   6.0997954e+00	   1.0421065e+00	
   1.0010000e+01	   5.8136989e+00	   8.8987116e-01	
   1.0065000e+01	   5.8142281e+00	   6.2402495e-01	
   1.0120000e+01	   5.9584562e+00	   9.1205506e-01	
   1.0175000e+01	   5.6895864e+00	   5.7273508e-01	
   1.0230000e+01	   5.6144387e+00	   5.5573771e-01	
   1.0285000e+01	   5.4894697e+00	   6.0635619e-01	
   1.0340000e+01	   5.5188283e+00	   5.4284446e-01	
   1.0395000e+01	   6.1606966e+00	   9.9966473e-01	
   1.0450000e+01	   6.1489015e+00	   9.3791839e-01	
   1.0505000e+01	   6.1573714e+00	   1.0550782e+00	
   1.0560000e+01	   6.3757353e+00	   8.6844480e-01	
   1.0615000e+01	   6.2386010e+00	   1.1035803e+00	
   1.0670000e+01	   6.3842397e+00	   1.0604919e+00	
   1.0725000e+01	   6.0426989e+00	   9.6976748e-01	
   1.0780000e+01	   5.6929012e+00	   8.1387189e-01	
   1.0835000e+01	   5.8986342e+00	   9.1578557e-01	
   1.0890000e+01	   5.9207258e+00	   7.4562919e-01	
   1.0945000e+01	   5.5403287e+00	   3.7422267e-01	
   1.1000000e+01	   5.7154674e+00	   5.9504954e-01	
   1.1055000e+01	   6.3328469e+00	   1.0275060e+00	
   1.1110000e+01	   6.2179273e+00	   9.7163632e-01	
   1.1165000e+01	   6.2881445e+00	   9.3451559e-01	
   1.1220000e+01	   6.2858719e+00	   9.3214153e-01	
   1.1275000e+01	   5.8576470e+00	   6.6168978e-01	
   1.1330000e+01	   5.9152663e+00	   8.5406010e-01	
   1.1385000e+01	   6.0843996e+00	   1.0084278e+00	
   1.1440000e+01	   5.8954516e+00	   7.4602213e-01	
   1.1495000e+01	   5.7924304e+00	   6.3457324e-01	
   1.1550000e+01	   5.5837038e+00	   8.1434333e-01	
   1.1605000e+01	   5.8868157e+00	   8.3673710e-01	
   1.1660000e+01	   6.1555182e+00	   9.7834987e-01	
   1.1715000e+01	   6.1515692e+00	   8.4751935e-01	
   1.1770000e+01	   6.3372457e+00	   1.0163242e+00	
   1.1825000e+01	   6.3602737e+00	   1.0815225e+00	
   1.1880000e+01	   6.2288289e+00	   8.7104761e-01	
   1.1935000e+01	   6.0168403e+00	   6.9878687e-01	
   1.1990000e+01	   6.1896712e+00	   9.8086096e-01	
   1.2045000e+01	   5.8179376e+00	   8.1871099e-01	
   1.2100000e+01	   5.5145801e+00	   6.2156887e-01	
   1.2155000e+01	   5.8829523e+00	   5.6660749e-01	
   1.2210000e+01	   5.6107828e+00	   7.3513992e-01	
   1.2265000e+01	   6.1262507e+00	   8.4235383e-01	
   1.2320000e+01	   6.2817575e+00	   1.0601362e+00	
   1.2375000e+01	   6.0459022e+00	   8.2855057e-01	
   1.2430000e+01	   6.0034769e+00	   7.8032061e-01	
   1.2485000e+01	   6.1948699e+00	   9.0026724e-01	
   1.2540000e+01	   6.2156623e+00	   9.0055647e-01	
   1.2595000e+01	   6.1362712e+00	   8.9611328e-01	
   1.2650000e+01	   5.8090078e+00	   8.0676435e-01	
   1.2705000e+01	   6.0564554e+00	   7.8921704e-01	
   1.2760000e+01	   5.7750776e+00	   7.5424807e-01	
   1.2815000e+01	   5.4595875e+00	   5.5005399e-01	
   1.2870000e+01	   5.6157426e+00	   5.0704458e-01	
   1.2925000e+01	   5.7916243e+00	   8.0263200e-01	
   1.2980000e+01	   6.1900928e+00	   9.7448096e-01	
   1.3035000e+01	   6.2980133e+00	   9.7636559e-01	
   1.3090000e+01	   6.0710663e+00	   9.9908454e-01	
   1.3145000e+01	   6.1033830e+00	   9.2457090e-01	
   1.3200000e+01	   6.2321870e+00	   1.0887768e+00	
   1.3255000e+01	   6.2794636e+00	   9.0046849e-01	
   1.3310000e+01	   5.8355577e+00	   7.7358730e-01	
   1.3365000e+01	   5.7326248e+00	   7.6794325e-01	
   1.3420000e+01	   5.8839113e+00	   8.1401601e-01	
   1.3475000e+01	   5.7039389e+00	   6.1618679e-01	
   1.3530000e+01	   5.1935706e+00	   4.8273516e-01	
   1.3585000e+01	   5.7761909e+00	   6.9050239e-01	
   1.3640000e+01	   6.0338545e+00	   8.1504256e-01	
   1.3695000e+01	   6.1589872e+00	   9.1061969e-01	
   1.3750000e+01	   6.3061141e+00	   1.0206926e+00	
   1.3805000e+01	   6.0641329e+00	   7.5015709e-01	
   1.3860000e+01	   5.8141156e+00	   6.9974051e-01	
   1.3915000e+01	   6.0147461e+00	   9.4694896e-01	
   1.3970000e+01	   5.8701045e+00	   7.5104517e-01	
   1.4025000e+01	   5.7486288e+00	   5.4929599e-01	
   1.4080000e+01	   5.3146099e+00	   4.4707898e-01	
   1.4135000e+01	   5.6837911e+00	   5.9749214e-01	
   1.4190000e+01	   5.3832328e+00	   4.1121402e-01	
   1.4245000e+01	   5.4078448e+00	   3.3472584e-01	
   1.4300000e+01	   5.6035263e+00	   6.4850688e-01	
   1.4355000e+01	   6.0441717e+00	   9.4543569e-01	
   1.4410000e+01	   6.0224129e+00	   9.1546358e-01	
   1.4465000e+01	   5.9619635e+00	   7.1867492e-01	
   1.4520000e+01	   5.8412926e+00	   8.2036155e-01	
   1.4575000e+01	   5.8978347e+00	   7.0319052e-01	
   1.4630000e+01	   5.7878602e+00	   6.8309210e-01	
   1.4685000e+01	   5.6674678e+00	   5.1249880e-01	
   1.4740000e+01	   5.1492342e+00	   4.0953131e-01	
   1.4795000e+01	   5.1100297e+00	   3.4231018e-01	
   1.4850000e+01	   5.2394571e+00	   2.6503147e-01	
   1.4905000e+01	   5.4503184e+00	   3.9194192e-01	
   1.4960000e+01	   5.8642737e+00	   5.5737448e-01	
   1.5015000e+01	   5.7907428e+00	   6.3592157e-01	
   1.5070000e+01	   5.8992133e+00	   6.8092390e-01	
   1.5125000e+01	   5.6939526e+00	   7.1598683e-01	
   1.5180000e+01	   5.4710556e+00	   3.9903231e-01	
   1.5235000e+01	   5.3453926e+00	   3.9441401e-01	
   1.5290000e+01	   5.7215475e+00	   6.3316295e-01	
   1.5345000e+01	   5.4786363e+00	   4.6866077e-01	
   1.5400000e+01	   5.1092315e+00	   1.3695862e-01	
   1.5455000e+01	   4.8091254e+00	   2.7459732e-01	
   1.5510000e+01	   5.3071526e+00	   3.1778341e-01	
   1.5565000e+01	   5.2653253e+00	   4.3136221e-01	
   1.5620000e+01	   5.7067897e+00	   4.3534072e-01	
   1.5675000e+01	   5.7268029e+00	   4.8278218e-01	
   1.5730000e+01	   5.7165355e+00	   4.8679286e-01	
   1.5785000e+01	   5.7454536e+00	   5.5609003e-01	
   1.5840000e+01	   5.6276749e+00	   4.6066805e-01	
   1.5895000e+01	   5.2613704e+00	   2.6586184e-01	
   1.5950000e+01	   5.4955419e+00	   3.3191022e-01	
   1.6005000e+01	   5.5062607e+00	   3.6531452e-01	
   1.6060000e+01	   5.0211631e+00	   2.2320738e-01	
   1.6115000e+01	   4.9026381e+00	  -3.6764807e-02	
   1.6170000e+01	   5.0771661e+00	   8.3798994e-02	
   1.6225000e+01	   5.4323117e+00	   3.9989353e-01	
   1.6280000e+01	   5.3449636e+00	   3.3081637e-01	
   1.6335000e+01	   5.6615816e+00	   2.9192990e-01	
   1.6390000e+01	   5.3998756e+00	   4.1655863e-01	
   1.6445000e+01	   5.5047010e+00	   5.2130000e-01	
   1.6500000e+01	   5.4443971e+00	   4.0629369e-01	
   1.6555000e+01	   5.6006261e+00	   2.7092458e-01	
   1.6610000e+01	   5.1450534e+00	   1.2121224e-01	
   1.6665000e+01	   5.2768734e+00	   1.8523548e-01	
   1.6720000e+01	   5.3228069e+00	   1.9182263e-01	
   1.6775000e+01	   5.0210737e+00	   1.6892507e-02	
   1.6830000e+01	   4.7917089e+00	  -1.2081140e-01	
   1.6885000e+01	   5.7018602e+00	   4.7776299e-01	
   1.6940000e+01	   5.5499458e+00	   3.8128511e-01	
   1.6995000e+01	   5.7880535e+00	   4.2948477e-01	
   1.7050000e+01	   5.4031518e+00	   3.1500766e-01	
   1.7105000e+01	   5.6120120e+00	   2.9108661e-01	
   1.7160000e+01	   5.5329721e+00	   2.9966017e-01	
   1.7215000e+01	   5.3100690e+00	   8.4656414e-02	
   1.7270000e+01	   5.0166310e+00	   6.1906664e-02	
   1.7325000e+01	   5.1720931e+00	   1.6508208e-01	
   1.7380000e+01	   5.1162782e+00	   1.1491458e-01	
   1.7435000e+01	   4.9926055e+00	  -1.2231405e-02	
   1.7490000e+01	   5.5292375e+00	   2.4078118e-01	
   1.7545000e+01	   5.5687066e+00	   1.9605566e-01	
   1.7600000e+01	   5.4741234e+00	   4.0313485e-01	
   1.7655000e+01	   5.6710128e+00	   3.2260581e-01	
   1.7710000e+01	   5.3255594e+00	   4.3088420e-01	
   1.7765000e+01	   5.3746195e+00	   2.4804369e-02	
   1.7820000e+01	   5.4009742e+00	   2.6209613e-01	
   1.7875000e+01	   5.4945462e+00	   2.6839252e-01	
   1.7930000e+01	   4.8541966e+00	  -9.0264864e-02	
   1.7985000e+01	   4.7470380e+00	  -6.4949002e-02	
   1.8040000e+01	   4.9101153e+00	   2.8278877e-02	
   1.8095000e+01	   5.3274477e+00	  -3.7989463e-03	
   1.8150000e+01	   5.4705762e+00	   2.4462298e-01	
   1.8205000e+01	   5.5564207e+00	   2.1621500e-01	
   1.8260000e+01	   5.6314531e+00	   4.4535081e-01	
   1.8315000e+01	   5.5478615e+00	   4.3827360e-01	
   1.8370000e+01	   5.5539167e+00	   2.0235668e-01	
   1.8425000e+01	   5.4322030e+00	   3.2094838e-01	
   1.8480000e+01	   5.3036861e+00	   1.8072307e-01	
   1.8535000e+01	   5.3068524e+00	   1.8579800e-01	
   1.8590000e+01	   5.2459865e+00	   6.5450895e-02	
   1.8645000e+01	   5.0024166e+00	   4.8995362e-02	
   1.8700000e+01	   4.7923581e+00	  -1.0504435e-01	
   1.8755000e+01	   5.8044997e+00	   4.4343850e-01	
   1.8810000e+01	   5.4418062e+00	   4.3422712e-01	
   1.8865000e+01	   5.4105688e+00	   1.7949071e-01	
   1.8920000e+01	   5.3657731e+00	   1.6413091e-01	
   1.8975000e+01	   5.5959445e+00	   3.7957912e-01	
   1.9030000e+01	   5.6304869e+00	   4.9455912e-01	
   1.9085000e+01	   5.3596932e+00	   3.4716617e-01	
   1.9140000e+01	   5.3163280e+00	   9.7142733e-02	
   1.9195000e+01	   5.0277820e+00	   1.4982010e-01	
   1.9250000e+01	   5.0382509e+00	   1.8218458e-01	
   1.9305000e+01	   5.2501341e+00	   2.7824514e-01	
   1.9360000e+01	   5.4807255e+00	   3.6094961e-01	
   1.9415000e+01	   5.8145579e+00	   5.1009716e-01	
   1.9470000e+01	   5.9992820e+00	   5.9307159e-01	
   1.9525000e+01	   5.7438787e+00	   4.7217221e-01	
   1.9580000e+01	   5.5842664e+00	   4.4218346e-01	
   1.9635000e+01	   5.4950285e+00	   4.2142752e-01	
   1.9690000e+01	   5.6148376e+00	   3.4527800e-01	
   1.9745000e+01	   5.4714980e+00	   3.7419266e-01	
   1.9800000e+01	   5.0843286e+00	   5.6319082e-02	
   1.9855000e+01	   5.1759664e+00	   2.3310969e-01	
   1.9910000e+01	   5.0174708e+00	  -3.1238364e-04	
   1.9965000e+01	   5.5421745e+00	   3.2600148e-01	
   2.0020000e+01	   5.9334350e+00	   5.1725873e-01	
   2.0075000e+01	   5.7647342e+00	   4.4397465e-01	
   2.0130000e+01	   5.9589108e+00	   6.5801571e-01	
   2.0185000e+01	   5.7673112e+00	   5.4590888e-01	
   2.0240000e+01	   5.6302890e+00	   5.7166348e-01	
   2.0295000e+01	   5.4815236e+00	   4.0682458e-01	
   2.0350000e+01	   5.5961174e+00	   4.8304668e-01	
   2.0405000e+01	   5.7061115e+00	   3.8307015e-01	
   2.0460000e+01	   5.2589920e+00	   2.8238513e-01	
   2.0515000e+01	   5.1015307e+00	   1.1642619e-01	
   2.0570000e+01	   5.2754009e+00	   1.9919436e-01	
   2.0625000e+01	   5.8341283e+00	   6.2738507e-01	
   2.0680000e+01	   5.6454618e+00	   4.7161269e-01	
   2.0735000e+01	   5.8887213e+00	   5.1054773e-01	
   2.0790000e+01	   6.0677183e+00	   5.6281129e-01	
   2.0845000e+01	   6.0315095e+00	   6.4553938e-01	
   2.0900000e+01	   5.7757551e+00	   5.3650400e-01	
   2.0955000e+01	   5.5270759e+00	   3.8145291e-01	
   2.1010000e+01	   5.5739034e+00	   5.2255618e-01	
   2.1065000e+01	   5.5135912e+00	   3.8294236e-01	
   2.1120000e+01	   5.3967651e+00	   3.4633859e-01	
   2.1175000e+01	   5.3884737e+00	   2.1735299e-01	
   2.1230000e+01	   5.0996706e+00	   1.2013262e-01	
   2.1285000e+01	   5.4383645e+00	   4.4039853e-01	
   2.1340000e+01	   5.8788031e+00	   6.6158029e-01	
   2.1395000e+01	   6.0262355e+00	   6.1123338e-01	
   2.1450000e+01	   5.5846418e+00	   4.7437361e-01	
   2.1505000e+01	   5.8328984e+00	   6.5505307e-01	
   2.1560000e+01	   5.6515677e+00	   5.9344313e-01	
   2.1615000e+01	   5.6688632e+00	   5.7668621e-01	
   2.1670000e+01	   5.4674170e+00	   3.6665004e-01	
   2.1725000e+01	   5.3834022e+00	   3.8619288e-01	
   2.1780000e+01	   5.6185666e+00	   6.6782215e-01	
   2.1835000e+01	   5.1227464e+00	   1.6323551e-01	
   2.1890000e+01	   5.1829205e+00	   1.7947974e-01	
   2.1945000e+01	   5.2623073e+00	   1.9797450e-01	
   2.2000000e+01	   5.7887453e+00	   7.3245529e-01	
   2.2055000e+01	   5.6634713e+00	   4.1096690e-01	
   2.2110000e+01	   5.8714676e+00	   4.8709070e-01	
   2.2165000e+01	   5.4710992e+00	   4.5308879e-01	
   2.2220000e+01	   5.6411889e+00	   5.3215993e-01	
   2.2275000e+01	   5.8717536e+00	   5.5295594e-01	
   2.2330000e+01	   5.3357036e+00	   2.3664496e-01	
   2.2385000e+01	   5.4106771e+00	   2.8378746e-01	
   2.2440000e+01	   5.0674543e+00	   3.0146435e-01	
   2.2495000e+01	   5.1759560e+00	   1.0338479e-01	
   2.2550000e+01	   5.0919558e+00	   9.1524261e-02	
   2.2605000e+01	   5.3584221e+00	   1.6882665e-01	
   2.2660000e+01	   5.8235806e+00	   5.6791886e-01	
   2.2715000e+01	   5.9814841e+00	   6.1615422e-01	
   2.2770000e+01	   5.3811126e+00	   4.0705052e-01	
   2.2825000e+01	   5.2808203e+00	   2.6392803e-01	
   2.2880000e+01	   5.6166052e+00	   5.1272212e-01	
   2.2935000e+01	   5.3661254e+00	   4.2268939e-01	
   2.2990000e+01	   5.3324347e+00	   2.2326558e-01	
   2.3045000e+01	   5.0792515e+00	   2.6154663e-01	
   2.3100000e+01	   5.0221362e+00	   9.6693169e-02	
   2.3155000e+01	   5.0184638e+00	   1.7403197e-01	
   2.3210000e+01	   4.9826015e+00	   3.0185196e-01	
   2.3265000e+01	   5.2709003e+00	   2.5436529e-01	
   2.3320000e+01	   5.4403126e+00	   3.7973813e-01	
   2.3375000e+01	   5.5473459e+00	   4.4912293e-01	
   2.3430000e+01	   5.6233112e+00	   5.0551262e-01	
   2.3485000e+01	   5.1941914e+00	   2.7256513e-01	
   2.3540000e+01	   5.1754573e+00	   1.0720011e-01	
   2.3595000e+01	   5.1836575e+00	   2.7321267e-01	
   2.3650000e+01	   5.1112996e+00	   1.7399871e-02	
   2.3705000e+01	   4.9426759e+00	   5.8815562e-02	
   2.3760000e+01	   4.8305513e+00	  -3.8081008e-02	
   2.3815000e+01	   4.8559023e+00	   5.0180680e-03	
   2.3870000e+01	   5.3475927e+00	   2.6768708e-01	
   2.3925000e+01	   5.5510390e+00	   3.7193810e-01	
   2.3980000e+01	   5.3387859e+00	   4.1430553e-01	
   2.4035000e+01	   5.5376610e+00	   3.5716913e-01	
   2.4090000e+01	   5.4929755e+00	   2.7001007e-01	
   2.4145000e+01	   5.5280666e+00	   4.8783557e-01	
   2.4200000e+01	   5.0081236e+00	   4.1681717e-02	
   2.4255000e+01	   5.0041511e+00	   1.6924744e-01	
   2.4310000e+01	   5.2496755e+00	   2.3094004e-01	
   2.4365000e+01	   4.7613552e+00	   1.4248837e-01	
   2.4420000e+01	   4.7450445e+00	  -1.1235669e-01	
   2.4475000e+01	   5.0878192e+00	   1.8581942e-01	
   2.4530000e+01	   5.4551616e+00	   3.9717078e-01	
   2.4585000e+01	   5.4450887e+00	   3.4011244e-01	
   2.4640000e+01	   5.4885407e+00	   3.8199321e-01	
   2.4695000e+01	   5.3013689e+00	   3.8607514e-01	
   2.4750000e+01	   5.2587363e+00	   3.2265849e-01	
   2.4805000e+01	   5.3512797e+00	   3.5241233e-01	
   2.4860000e+01	   5.2466006e+00	   1.4630983e-01	
   2.4915000e+01	   5.0353298e+00	   2.1688498e-01	
   2.4970000e+01	   5.0607451e+00	   9.0776847e-02	
   2.5025000e+01	   5.0426537e+00	   1.2488004e-01	
   2.5080000e+01	   4.6688816e+00	  -4.8869961e-02	
   2.5135000e+01	   5.2874601e+00	   1.8330600e-01	
   2.5190000e+01	   5.4373609e+00	   3.5103202e-01	
   2.5245000e+01	   5.3134463e+00	   4.5321860e-01	
   2.5300000e+01	   5.3300922e+00	   3.6843884e-01	
   2.5355000e+01	   5.2579367e+00	   3.7100454e-01	
   2.5410000e+01	   5.4834198e+00	   4.3818758e-01	
   2.5465000e+01	   5.3745863e+00	   3.5475999e-01	
   2.5520000e+01	   5.1569347e+00	   3.5913268e-01	
   2.5575000e+01	   5.0542286e+00	   1.8110661e-01	
   2.5630000e+01	   4.8968854e+00	   1.1953441e-01	
   2.5685000e+01	   4.8086400e+00	   6.6082019e-02	
   2.5740000e+01	   5.4364013e+00	   4.2858184e-01	
   2.5795000e+01	   5.3153669e+00	   2.4558864e-01	
   2.5850000e+01	   5.2801135e+00	   2.9364602e-01	
   2.5905000e+01	   5.3774398e+00	   4.5077713e-01	
   2.5960000e+01	   5.6571110e+00	   5.4171385e-01	
   2.6015000e+01	   5.6755471e+00	   5.9843901e-01	
   2.6070000e+01	   5.3129343e+00	   3.1346797e-01	
   2.6125000e+01	   5.4116169e+00	   5.2232474e-01	
   2.6180000e+01	   5.1191471e+00	   2.8574541e-01	
   2.6235000e+01	   5.2448187e+00	   1.4370377e-01	
   2.6290000e+01	   4.7227278e+00	   1.0806006e-01	
   2.6345000e+01	   4.8708472e+00	   7.4792495e-03	
   2.6400000e+01	   5.1667507e+00	   2.3618030e-01	
   2.6455000e+01	   5.4684379e+00	   3.7160949e-01	
   2.6510000e+01	   5.4793450e+00	   3.5384756e-01	
   2.6565000e+01	   5.6126359e+00	   4.6087798e-01	
   2.6620000e+01	   5.1970614e+00	   3.4518990e-01	
   2.6675000e+01	   5.5514917e+00	   3.9283020e-01	
   2.6730000e+01	   5.2693744e+00	   3.2431991e-01	
   2.6785000e+01	   5.1529603e+00	   2.2826344e-01	
   2.6840000e+01	   5.0945135e+00	   2.7243020e-01	
   2.6895000e+01	   5.3274477e+00	   3.9929234e-01	
   2.6950000e+01	   4.6776597e+00	  -1.4113587e-01	
   2.7005000e+01	   5.0882989e+00	   1.1143083e-01	
   2.7060000e+01	   5.5301181e+00	   3.0358557e-01	
   2.7115000e+01	   5.5291545e+00	   4.8932430e-01	
   2.7170000e+01	   5.4533933e+00	   3.5517319e-01	
   2.7225000e+01	   5.4034610e+00	   3.1990870e-01	
   2.7280000e+01	   5.2261761e+00	   3.9911013e-01	
   2.7335000e+01	   5.3182865e+00	   4.5204310e-01	
   2.7390000e+01	   5.3883834e+00	   4.0001032e-01	
   2.7445000e+01	   4.8999489e+00	   2.1574932e-01	
   2.7500000e+01	   5.0182018e+00	   2.2019794e-01	
   2.7555000e+01	   5.0558500e+00	   2.1189527e-01	
   2.7610000e+01	   4.7612664e+00	   1.3388846e-01	
   2.7665000e+01	   5.0955976e+00	   2.7488014e-01	
   2.7720000e+01	   5.6573085e+00	   5.1221160e-01	
   2.7775000e+01	   5.7282774e+00	   7.1309459e-01	
   2.7830000e+01	   5.4561164e+00	   4.7338740e-01	
   2.7885000e+01	   5.3905484e+00	   5.1871193e-01	
   2.7940000e+01	   5.3587452e+00	   3.2630889e-01	
   2.7995000e+01	   5.4823487e+00	   5.3222556e-01	
   2.8050000e+01	   5.2292555e+00	   3.6785537e-01	
   2.8105000e+01	   5.1288395e+00	   1.8816716e-01	
   2.8160000e+01	   4.9227822e+00	   1.5377238e-01	
   2.8215000e+01	   4.5905988e+00	   5.3182742e-02	
   2.8270000e+01	   5.1021191e+00	   1.7593838e-01	
   2.8325000e+01	   5.7140401e+00	   4.0529384e-01	
   2.8380000e+01	   5.4481142e+00	   4.8992742e-01	
   2.8435000e+01	   5.7685351e+00	   6.7049301e-01	
   2.8490000e+01	   5.6258423e+00	   6.2597258e-01	
   2.8545000e+01	   5.4877431e+00	   6.0348057e-01	
   2.8600000e+01	   5.1314826e+00	   2.9063732e-01	
   2.8655000e+01	   5.3426677e+00	   4.3227041e-01	
   2.8710000e+01	   5.1563228e+00	   4.5130938e-01	
   2.8765000e+01	   5.2160084e+00	   1.9057826e-01	
   2.8820000e+01	   4.9285932e+00	   1.5670071e-01	
   2.8875000e+01	   4.8749065e+00	   2.5252668e-01	
   2.8930000e+01	   5.1030996e+00	   4.0174638e-01	
   2.8985000e+01	   5.3411692e+00	   2.7450097e-01	
   2.9040000e+01	   5.6093109e+00	   6.0387133e-01	
   2.9095000e+01	   5.6807954e+00	   5.8522265e-01	
   2.9150000e+01	   5.5505502e+00	   5.0197040e-01	
   2.9205000e+01	   5.5807006e+00	   5.6759345e-01	
   2.9260000e+01	   5.3160443e+00	   4.6981045e-01	
   2.9315000e+01	   5.2266435e+00	   3.1747522e-01	
   2.9370000e+01	   5.2724189e+00	   4.1200725e-01	
   2.9425000e+01	   5.2826841e+00	   3.8373409e-01	
   2.9480000e+01	   4.9213589e+00	   2.4249800e-01	
   2.9535000e+01	   4.6305534e+00	   1.4270396e-01	
   2.9590000e+01	   4.7463724e+00	   1.9348697e-01	
   2.9645000e+01	   5.3416935e+00	   5.4823293e-01	
   2.9700000e+01	   5.3687768e+00	   5.5169110e-01	
   2.9755000e+01	   5.1468940e+00	   3.5163760e-01	
   2.9810000e+01	   5.4241026e+00	   4.6316470e-01	
   2.9865000e+01	   5.7535641e+00	   6.6586644e-01	
   2.9920000e+01	   5.2984211e+00	   5.9049600e-01	
   2.9975000e+01	   5.0720069e+00	   3.6331178e-01	
   3.0030000e+01	   5.4577005e+00	   5.0168785e-01	
   3.0085000e+01	   5.0686722e+00	   3.9244096e-01	
   3.0140000e+01	   4.9240325e+00	   3.2495724e-01	
   3.0195000e+01	   4.6031429e+00	   9.2823670e-02	
   3.0250000e+01	   4.5679581e+00	   9.2880633e-02	
   3.0305000e+01	   5.0201241e+00	   3.0813413e-01	
   3.0360000e+01	   5.3206746e+00	   5.3048774e-01	
   3.0415000e+01	   5.2357606e+00	   4.6815426e-01	
   3.0470000e+01	   5.0780492e+00	   6.0393886e-01	
   3.0525000e+01	   5.4005886e+00	   6.0860703e-01	
   3.0580000e+01	   5.0794397e+00	   4.2621531e-01	
   3.0635000e+01	   5.1593887e+00	   3.0589378e-01	
   3.0690000e+01	   4.7149858e+00	   2.4555973e-01	
   3.0745000e+01	   4.8566445e+00	   3.4370520e-01	
   3.0800000e+01	   4.9255930e+00	   2.0208593e-01	
   3.0855000e+01	   4.4351016e+00	   1.4964519e-01	
   3.0910000e+01	   4.5275623e+00	   4.8735815e-02	
   3.0965000e+01	   4.6857094e+00	   2.5339759e-01	
   3.1020000e+01	   4.9443977e+00	   5.1432259e-01	
   3.1075000e+01	   5.3236456e+00	   4.1258319e-01	
   3.1130000e+01	   5.1061091e+00	   4.3176381e-01	
   3.1185000e+01	   5.0562792e+00	   4.4740731e-01	
   3.1240000e+01	   5.0191626e+00	   4.4667690e-01	
   3.1295000e+01	   4.7449722e+00	   4.1580658e-01	
   3.1350000e+01	   4.5965752e+00	   4.2402175e-02	
   3.1405000e+01	   4.8115440e+00	   2.3671428e-01	
   3.1460000e+01	   4.8399865e+00	   2.9403784e-01	
   3.1515000e+01	   4.5436754e+00	   1.6569843e-01	
   3.1570000e+01	   4.5791652e+00	   4.2615599e-02	
   3.1625000e+01	   4.6929617e+00	  -3.3934427e-02	
   3.1680000e+01	   5.0579001e+00	   6.1392694e-01	
   3.1735000e+01	   5.1101684e+00	   3.9706309e-01	
   3.1790000e+01	   5.0831036e+00	   3.7055748e-01	
   3.1845000e+01	   5.1547653e+00	   4.0239491e-01	
   3.1900000e+01	   5.2099163e+00	   5.6179612e-01	
   3.1955000e+01	   5.2862256e+00	   4.6175301e-01	
   3.2010000e+01	   5.1037460e+00	   5.6915207e-01	
   3.2065000e+01	   4.7174953e+00	   2.3917049e-01	
   3.2120000e+01	   4.8637274e+00	   4.1653752e-01	
   3.2175000e+01	   4.6655029e+00	   3.4921036e-01	
   3.2230000e+01	   4.1725491e+00	   5.4372525e-02	
   3.2285000e+01	   4.5946353e+00	   2.8211146e-01	
   3.2340000e+01	   5.0940726e+00	   4.7112332e-01	
   3.2395000e+01	   5.3608222e+00	   7.0297915e-01	
   3.2450000e+01	   5.1295109e+00	   5.0840040e-01	
   3.2505000e+01	   5.2979773e+00	   3.6371428e-01	
   3.2560000e+01	   5.0709636e+00	   5.3319210e-01	
   3.2615000e+01	   4.8697688e+00	   5.5092258e-01	
   3.2670000e+01	   4.8884784e+00	   4.3302321e-01	
   3.2725000e+01	   4.6943343e+00	   2.2039526e-01	
   3.2780000e+01	   4.7873669e+00	   3.4385265e-01	
   3.2835000e+01	   4.7039672e+00	   2.1302290e-01	
   3.2890000e+01	   4.4811048e+00	   4.6294815e-02	
   3.2945000e+01	   4.6130191e+00	   1.5751737e-01	
   3.3000000e+01	   5.1267781e+00	   4.2464414e-01	
   3.3055000e+01	   5.2461645e+00	   6.3027496e-01	
   3.3110000e+01	   5.1311294e+00	   4.7826905e-01	
   3.3165000e+01	   5.2181077e+00	   4.0922365e-01	
   3.3220000e+01	   5.1542051e+00	   3.1962266e-01	
   3.3275000e+01	   5.1856947e+00	   6.1383872e-01	
   3.3330000e+01	   5.0664175e+00	   4.7199132e-01	
   3.3385000e+01	   5.1765981e+00	   3.8537185e-01	
   3.3440000e+01	   4.7915467e+00	   1.8942288e-01	
   3.3495000e+01	   4.8052746e+00	   1.9259952e-01	
   3.3550000e+01	   4.9120172e+00	   3.3876140e-01	
   3.3605000e+01	   5.1893891e+00	   4.6051302e-01	
   3.3660000e+01	   5.0968955e+00	   2.5339915e-01	
   3.3715000e+01	   5.2182427e+00	   6.4051774e-01	
   3.3770000e+01	   5.2629791e+00	   5.9257383e-01	
   3.3825000e+01	   5.1642391e+00	   3.9546705e-01	
   3.3880000e+01	   5.3078453e+00	   4.3858518e-01	
   3.3935000e+01	   5.2397701e+00	   4.7627660e-01	
   3.3990000e+01	   5.1140177e+00	   5.1837345e-01	
   3.4045000e+01	   5.0272713e+00	   3.2330005e-01	
   3.4100000e+01	   4.8798312e+00	   1.7477938e-01	
   3.4155000e+01	   5.1135934e+00	   2.8337492e-01	
   3.4210000e+01	   5.4641132e+00	   7.4418645e-01	
   3.4265000e+01	   5.5435734e+00	   5.8136375e-01	
   3.4320000e+01	   5.6869652e+00	   6.8655842e-01	
   3.4375000e+01	   5.1873091e+00	   6.5730175e-01	
   3.4430000e+01	   5.4759096e+00	   6.8548557e-01	
   3.4485000e+01	   5.3808959e+00	   4.9488534e-01	
   3.4540000e+01	   5.2984195e+00	   4.6202394e-01	
   3.4595000e+01	   5.3765280e+00	   4.0900447e-01	
   3.4650000e+01	   5.0554714e+00	   6.2107292e-01	
   3.4705000e+01	   5.2985993e+00	   4.8246270e-01	
   3.4760000e+01	   5.2435535e+00	   3.9699126e-01	
   3.4815000e+01	   5.4327219e+00	   5.9374952e-01	
   3.4870000e+01	   5.5649165e+00	   6.7974113e-01	
   3.4925000e+01	   5.9294725e+00	   8.4783635e-01	
   3.4980000e+01	   5.7984157e+00	   5.5219564e-01	
   3.5035000e+01	   5.5316146e+00	   4.7539853e-01	
   3.5090000e+01	   5.5209893e+00	   6.6086398e-01	
   3.5145000e+01	   5.6308677e+00	   7.6327064e-01	
   3.5200000e+01	   5.3694882e+00	   5.7931029e-01	
   3.5255000e+01	   5.3710233e+00	   3.3561149e-01	
   3.5310000e+01	   5.0805335e+00	   2.2642200e-01	
   3.5365000e+01	   5.0042401e+00	   5.1407967e-01	
   3.5420000e+01	   5.6603654e+00	   6.0630193e-01	
   3.5475000e+01	   5.5546390e+00	   6.8976330e-01	
   3.5530000e+01	   5.6861688e+00	   5.8105538e-01	
   3.5585000e+01	   5.8552095e+00	   7.1802356e-01	
   3.5640000e+01	   6.0059130e+00	   6.1020640e-01	
   3.5695000e+01	   5.9652894e+00	   6.6378850e-01	
   3.5750000e+01	   5.6004485e+00	   6.2899132e-01	
   3.5805000e+01	   5.7335601e+00	   6.7551784e-01	
   3.5860000e+01	   5.6736226e+00	   5.4381895e-01	
   3.5915000e+01	   5.4370939e+00	   5.2660889e-01	
   3.5970000e+01	   5.3635997e+00	   2.6286540e-01	
   3.6025000e+01	   5.5868168e+00	   5.6155609e-01	
   3.6080000e+01	   6.3920621e+00	   8.0985134e-01	
   3.6135000e+01	   6.0255890e+00	   7.2602013e-01	
   3.6190000e+01	   6.2253815e+00	   6.9182002e-01	
   3.6245000e+01	   5.9979111e+00	   7.7154306e-01	
   3.6300000e+01	   6.2031348e+00	   1.0000553e+00	
   3.6355000e+01	   5.9751792e+00	   6.2450243e-01	
   3.6410000e+01	   6.1288312e+00	   7.5956462e-01	
   3.6465000e+01	   5.9677939e+00	   7.4423031e-01	
   3.6520000e+01	   6.0490086e+00	   6.9081190e-01	
   3.6575000e+01	   5.7374393e+00	   4.5498294e-01	
   3.6630000e+01	   5.5128026e+00	   3.8237046e-01	
   3.6685000e+01	   5.8876616e+00	   7.2376655e-01	
   3.6740000e+01	   6.0450949e+00	   8.3305268e-01	
   3.6795000e+01	   6.3192711e+00	   6.1264508e-01	
   3.6850000e+01	   6.2086768e+00	   8.4581252e-01	
   3.6905000e+01	   6.2346180e+00	   7.2738132e-01	
   3.6960000e+01	   6.4058016e+00	   9.4203014e-01	
   3.7015000e+01	   6.2351606e+00	   8.2242199e-01	
   3.7070000e+01	   6.2693790e+00	   7.5501898e-01	
   3.7125000e+01	   5.7835334e+00	   6.5635786e-01	
   3.7180000e+01	   5.7344895e+00	   6.1989487e-01	
   3.7235000e+01	   6.0927967e+00	   7.8399452e-01	
   3.7290000e+01	   5.7020965e+00	   4.6187095e-01	
   3.7345000e+01	   5.5820506e+00	   4.1686951e-01	
   3.7400000e+01	   6.1862445e+00	   7.9525171e-01	
   3.7455000e+01	   6.2724085e+00	   8.2694441e-01	
   3.7510000e+01	   6.3732226e+00	   1.0277916e+00	
   3.7565000e+01	   6.2352678e+00	   8.9539626e-01	
   3.7620000e+01	   6.0703392e+00	   8.2773250e-01	
   3.7675000e+01	   6.2848418e+00	   9.5162329e-01	
   3.7730000e+01	   6.0846496e+00	   7.5415354e-01	
   3.7785000e+01	   5.6487770e+00	   4.5881157e-01	
   3.7840000e+01	   5.8615772e+00	   6.0853472e-01	
   3.7895000e+01	   6.0182863e+00	   6.9823397e-01	
   3.7950000e+01	   5.4457129e+00	   4.6631936e-01	
   3.8005000e+01	   5.3036069e+00	   2.2491728e-01	
   3.8060000e+01	   5.8609849e+00	   8.2702637e-01	
   3.8115000e+01	   6.3577276e+00	   8.7584499e-01	
   3.8170000e+01	   6.2419909e+00	   7.2360340e-01	
   3.8225000e+01	   5.9814087e+00	   6.3896705e-01	
   3.8280000e+01	   6.3027872e+00	   9.2530740e-01	
   3.8335000e+01	   6.2216352e+00	   8.8908405e-01	
   3.8390000e+01	   5.9644884e+00	   6.5524394e-01	
   3.8445000e+01	   5.7271982e+00	   5.4283980e-01	
   3.8500000e+01	   5.8361524e+00	   4.7386592e-01	
   3.8555000e+01	   5.5508554e+00	   5.8353626e-01	
   3.8610000e+01	   5.5679914e+00	   5.6076665e-01	
   3.8665000e+01	   5.7453883e+00	   5.2755513e-01	
   3.8720000e+01	   6.3193442e+00	   8.0758757e-01	
   3.8775000e+01	   6.0417125e+00	   6.5295933e-01	
   3.8830000e+01	   6.1326798e+00	   7.4161266e-01	
   3.8885000e+01	   5.8316670e+00	   5.7380118e-01	
   3.8940000e+01	   5.7552913e+00	   6.0182598e-01	
   3.8995000e+01	   5.9072903e+00	   7.1108901e-01	
   3.9050000e+01	   5.8474013e+00	   7.6381676e-01	
   3.9105000e+01	   5.4103126e+00	   4.6796835e-01	
   3.9160000e+01	   5.3894770e+00	   3.9819036e-01	
   3.9215000e+01	   5.6130049e+00	   4.3802529e-01	
   3.9270000e+01	   5.4875868e+00	   4.6680160e-01	
   3.9325000e+01	   5.6257329e+00	   6.6288105e-01	
   3.9380000e+01	   6.2110202e+00	   7.6807722e-01	
   3.9435000e+01	   6.1248832e+00	   8.3139914e-01	
   3.9490000e+01	   6.1884905e+00	   9.3770635e-01	
   3.9545000e+01	   6.0723749e+00	   8.5208614e-01	
   3.9600000e+01	   5.8169761e+00	   5.7768661e-01	
   3.9655000e+01	   5.8343480e+00	   7.1130154e-01	
   3.9710000e+01	   5.8098463e+00	   7.4804822e-01	
   3.9765000e+01	   5.8294006e+00	   7.0603247e-01	
   3.9820000e+01	   5.5658314e+00	   5.3359350e-01	
   3.9875000e+01	   5.1390055e+00	   4.1316812e-01	
   3.9930000e+01	   5.2606541e+00	   4.0681069e-01	
   3.9985000e+01	   5.8682927e+00	   6.7363440e-01	
   4.0040000e+01	   5.7102081e+00	   7.9967859e-01	
   4.0095000e+01	   5.7637012e+00	   7.1107457e-01	
   4.0150000e+01	   5.8637887e+00	   8.4690148e-01	
   4.0205000e+01	   6.1686975e+00	   8.4163248e-01	
   4.0260000e+01	   6.0643408e+00	   8.0555523e-01	
   4.0315000e+01	   6.0019165e+00	   6.2853210e-01	
   4.0370000e+01	   5.5871452e+00	   6.6328636e-01	
   4.0425000e+01	   5.6596689e+00	   7.5389413e-01	
   4.0480000e+01	   5.4283628e+00	   4.6560227e-01	
   4.0535000e+01	   5.4629877e+00	   4.7801401e-01	
   4.0590000e+01	   5.3801148e+00	   4.7925216e-01	
   4.0645000e+01	   5.5163439e+00	   5.2640366e-01	
   4.0700000e+01	   5.7778979e+00	   9.7678910e-01	
   4.0755000e+01	   5.6845560e+00	   6.6735054e-01	
   4.0810000e+01	   6.0273835e+00	   8.9614816e-01	
   4.0865000e+01	   5.9590015e+00	   1.0342417e+00	
   4.0920000e+01	   5.7246198e+00	   6.7745912e-01	
   4.0975000e+01	   5.8390586e+00	   7.7666717e-01	
   4.1030000e+01	   5.6788654e+00	   8.0135086e-01	
   4.1085000e+01	   5.5305283e+00	   6.3720601e-01	
   4.1140000e+01	   5.4644692e+00	   6.5350505e-01	
   4.1195000e+01	   5.2381592e+00	   4.9237887e-01	
   4.1250000e+01	   5.1638414e+00	   4.1514852e-01	
   4.1305000e+01	   5.2764422e+00	   5.1578734e-01	
   4.1360000e+01	   5.8631384e+00	   7.1103950e-01	
   4.1415000e+01	   6.0479950e+00	   9.2130107e-01	
   4.1470000e+01	   5.7632208e+00	   8.7186238e-01	
   4.1525000e+01	   5.7665291e+00	   7.9188493e-01	
   4.1580000e+01	   5.8403050e+00	   8.9643450e-01	
   4.1635000e+01	   5.5873968e+00	   8.0921570e-01	
   4.1690000e+01	   5.4109026e+00	   7.4654020e-01	
   4.1745000e+01	   5.6468680e+00	   8.1329217e-01	
   4.1800000e+01	   5.6206475e+00	   8.1736287e-01	
   4.1855000e+01	   5.3552792e+00	   6.2448901e-01	
   4.1910000e+01	   5.1814680e+00	   2.6185197e-01	
   4.1965000e+01	   5.0235429e+00	   4.2776458e-01	
   4.2020000e+01	   5.6294631e+00	   6.9553297e-01	
   4.2075000e+01	   5.4802297e+00	   6.5888009e-01	
   4.2130000e+01	   5.4422207e+00	   6.8296995e-01	
   4.2185000e+01	   5.7005889e+00	   7.9356349e-01	
   4.2240000e+01	   5.3751523e+00	   6.0122416e-01	
   4.2295000e+01	   5.5590783e+00	   6.6469530e-01	
   4.2350000e+01	   5.3508561e+00	   6.4236931e-01	
   4.2405000e+01	   5.2666851e+00	   5.7062783e-01	
   4.2460000e+01	   5.0726948e+00	   5.3130346e-01	
   4.2515000e+01	   5.2108165e+00	   5.0519038e-01	
   4.2570000e+01	   5.0428288e+00	   4.1954638e-01	
   4.2625000e+01	   5.0497534e+00	   3.4649660e-01	
   4.2680000e+01	   5.3297978e+00	   7.9233789e-01	
   4.2735000e+01	   5.8191715e+00	   8.3704457e-01	
   4.2790000e+01	   5.6003799e+00	   6.5849898e-01	
   4.2845000e+01	   5.4104820e+00	   6.9720165e-01	
   4.2900000e+01	   5.5591329e+00	   7.5592109e-01	
   4.2955000e+01	   5.3526163e+00	   7.6209137e-01	
   4.3010000e+01	   5.3268396e+00	   6.2078945e-01	
   4.3065000e+01	   4.9240698e+00	   4.7607622e-01	
   4.3120000e+01	   4.8186320e+00	   4.9110778e-01	
   4.3175000e+01	   4.9521438e+00	   4.5820485e-01	
   4.3230000e+01	   4.9175603e+00	   3.2493532e-01	
   4.3285000e+01	   5.1793445e+00	   5.4056509e-01	
   4.3340000e+01	   5.4441133e+00	   7.6282048e-01	
   4.3395000e+01	   5.6556804e+00	   8.0677069e-01	
   4.3450000e+01	   5.5455583e+00	   9.1298766e-01	
   4.3505000e+01	   5.4406464e+00	   5.3312761e-01	
   4.3560000e+01	   5.2963354e+00	   7.6033401e-01	
   4.3615000e+01	   5.4025521e+00	   9.0210743e-01	
   4.3670000e+01	   5.2289160e+00	   6.3415716e-01	
   4.3725000e+01	   4.8086383e+00	   4.8789210e-01	
   4.3780000e+01	   4.9539972e+00	   5.6105837e-01	
   4.3835000e+01	   4.9004987e+00	   3.5380645e-01	
   4.3890000e+01	   4.8339910e+00	   3.0384468e-01	
   4.3945000e+01	   5.3805214e+00	   6.2357467e-01	
   4.4000000e+01	   5.4487807e+00	   7.8370193e-01	
   4.4055000e+01	   5.4514229e+00	   1.0162966e+00	
   4.4110000e+01	   5.6870084e+00	   9.8879119e-01	
   4.4165000e+01	   5.5093216e+00	   7.9791255e-01	
   4.4220000e+01	   5.2552126e+00	   7.5336017e-01	
   4.4275000e+01	   5.1502322e+00	   6.5569461e-01	
   4.4330000e+01	   5.1883980e+00	   8.1308882e-01	
   4.4385000e+01	   5.1173971e+00	   6.3536623e-01	
   4.4440000e+01	   5.0735667e+00	   5.3160112e-01	
   4.4495000e+01	   4.6952239e+00	   5.1008800e-01	
   4.4550000e+01	   5.0663132e+00	   6.9507308e-01	
   4.4605000e+01	   5.5224260e+00	   8.0539928e-01	
   4.4660000e+01	   5.5808976e+00	   8.2014939e-01	
   4.4715000e+01	   5.5260303e+00	   9.9623289e-01	
   4.4770000e+01	   5.7013281e+00	   9.0008256e-01	
   4.4825000e+01	   5.6266091e+00	   8.3959805e-01	
   4.4880000e+01	   5.4558920e+00	   9.0036658e-01	
   4.4935000e+01	   5.5498615e+00	   9.7427028e-01	
   4.4990000e+01	   5.4471432e+00	   7.7759708e-01	
   4.5045000e+01	   5.1270750e+00	   5.5902804e-01	
   4.5100000e+01	   5.1587830e+00	   6.3400261e-01	
   4.5155000e+01	   4.9769966e+00	   6.3837040e-01	
   4.5210000e+01	   5.2771735e+00	   6.4341291e-01	
   4.5265000e+01	   5.3435940e+00	   7.8927366e-01	
   4.5320000e+01	   5.5271882e+00	   9.7936893e-01	
   4.5375000e+01	   5.8336073e+00	   1.0334612e+00	
   4.5430000e+01	   5.6532855e+00	   9.9887613e-01	
   4.5485000e+01	   5.8236628e+00	   1.0857280e+00	
   4.5540000e+01	   5.7311454e+00	   9.6316092e-01	
   4.5595000e+01	   5.4641736e+00	   8.3985399e-01	
   4.5650000e+01	   5.3047909e+00	   9.2157286e-01	
   4.5705000e+01	   5.5535791e+00	   8.2241961e-01	
   4.5760000e+01	   5.0727921e+00	   5.9365364e-01	
   4.5815000e+01	   4.8550321e+00	   6.2730116e-01	
   4.5870000e+01	   5.3648877e+00	   6.5771889e-01	
   4.5925000e+01	   5.7507633e+00	   7.5930491e-01	
   4.5980000e+01	   5.7527548e+00	   9.7261231e-01	
   4.6035000e+01	   5.6463934e+00	   8.2903986e-01	
   4.6090000e+01	   4.3342041e+00	   9.3209323e-01	
   4.6145000e+01	   8.8192478e-01	   8.8389548e-01	
   4.6200000e+01	   9.9689673e-01	   8.7008159e-01	
   4.6255000e+01	   5.9604483e+00	   8.9819932e-01	
   4.6310000e+01	   5.4487472e+00	   1.0065807e+00	
   4.6365000e+01	   5.4476083e+00	   8.3794252e-01	
   4.6420000e+01	   5.2874754e+00	   6.5504888e-01	
   4.6475000e+01	   5.0592011e+00	   5.3188602e-01	
   4.6530000e+01	   4.8624135e+00	   6.1026662e-01	
   4.6585000e+01	   5.5248560e+00	   7.9357874e-01	
   4.6640000e+01	   5.6766730e+00	   7.5893169e-01	
   4.6695000e+01	   5.4556194e+00	   8.6390380e-01	
   4.6750000e+01	   5.6063381e+00	   7.9609089e-01	
   4.6805000e+01	   5.8848909e+00	   1.0623110e+00	
   4.6860000e+01	   5.7988265e+00	   7.7443884e-01	
   4.6915000e+01	   5.5591438e+00	   8.9336143e-01	
   4.6970000e+01	   5.5074394e+00	   7.7152564e-01	
   4.7025000e+01	   5.4345066e+00	   6.4396803e-01	
   4.7080000e+01	   5.2999431e+00	   7.0777293e-01	
   4.7135000e+01	   5.2365298e+00	   5.7174974e-01	
   4.7190000e+01	   5.4007354e+00	   8.7081217e-01	
   4.7245000e+01	   5.8650899e+00	   1.0071186e+00	
   4.7300000e+01	   5.8408228e+00	   1.0530885e+00	
   4.7355000e+01	   5.6273453e+00	   7.3306038e-01	
   4.7410000e+01	   5.4401156e+00	   7.8000460e-01	
   4.7465000e+01	   6.0777385e+00	   1.0390236e+00	
   4.7520000e+01	   5.9287522e+00	   1.0585317e+00	
   4.7575000e+01	   5.3650417e+00	   7.2156277e-01	
   4.7630000e+01	   5.3773662e+00	   7.4571083e-01	
   4.7685000e+01	   5.4616969e+00	   8.2509527e-01	
   4.7740000e+01	   5.0230675e+00	   6.9652932e-01	
   4.7795000e+01	   5.3449834e+00	   6.1550437e-01	
   4.7850000e+01	   5.7129616e+00	   8.1591559e-01	
   4.7905000e+01	   5.8508979e+00	   1.0569205e+00	
   4.7960000e+01	   5.9436749e+00	   1.0685744e+00	
   4.8015000e+01	   5.6904375e+00	   9.6030466e-01	
   4.8070000e+01	   5.9350531e+00	   9.6318756e-01	
   4.8125000e+01	   5.7099784e+00	   8.5874615e-01	
   4.8180000e+01	   1.0339936e+00	   8.5441642e-01	
   4.8235000e+01	   4.5388383e+00	   8.2496979e-01	
   4.8290000e+01	   5.3571692e+00	   6.8818414e-01	
   4.8345000e+01	   5.1456682e+00	   6.7619392e-01	
   4.8400000e+01	   5.3485307e+00	   8.1241271e-01	
   4.8455000e+01	   5.9629722e+00	   1.0475762e+00	
   4.8510000e+01	   5.8977481e+00	   9.8450761e-01	
   4.8565000e+01	   5.8603865e+00	   1.1565427e+00	
   4.8620000e+01	   5.9903798e+00	   1.2207627e+00	
   4.8675000e+01	   5.8520587e+00	   1.0488950e+00	
   4.8730000e+01	   6.0039849e+00	   1.0271183e+00	
   4.8785000e+01	   1.1186564e+00	   7.4283539e-01	
   4.8840000e+01	   9.8890745e-01	   9.7404364e-01	
   4.8895000e+01	   8.6426200e-01	   7.6822451e-01	
   4.8950000e+01	   5.3165150e+00	   7.9284390e-01	
   4.9005000e+01	   5.0134205e+00	   6.8886321e-01	
   4.9060000e+01	   5.5005614e+00	   6.8813479e-01	
   4.9115000e+01	   5.5919785e+00	   9.6564362e-01	
   4.9170000e+01	   5.8414398e+00	   1.0358651e+00	
   4.9225000e+01	   5.8704684e+00	   1.0725748e+00	
   4.9280000e+01	   5.8840135e+00	   9.7594587e-01	
   4.9335000e+01	   6.0835239e+00	   1.3342345e+00	
   4.9390000e+01	   5.8989937e+00	   1.1458275e+00	
   4.9445000e+01	   5.8767601e+00	   1.0298541e+00	
   4.9500000e+01	   6.0307836e+00	   1.0865698e+00	
   4.9555000e+01	   1.2858726e+00	   1.0069256e+00	
   4.9610000e+01	   3.2666427e+00	   9.3184303e-01	
   4.9665000e+01	   5.5648099e+00	   8.1294667e-01	
   4.9720000e+01	   5.3116415e+00	   5.7225137e-01	
   4.9775000e+01	   5.7827063e+00	   8.4895257e-01	
   4.9830000e+01	   6.2628554e+00	   1.1083269e+00	
   4.9885000e+01	   5.8890483e+00	   1.0080667e+00	
   4.9940000e+01	   5.8457111e+00	   9.5694808e-01	
   4.9995000e+01	   5.9361324e+00	   1.1768167e+00	
   5.0050000e+01	   5.8598449e+00	   1.1006504e+00	
   5.0105000e+01	   5.7679628e+00	   7.9434092e-01	
   5.0160000e+01	   1.2989363e+00	   9.0106697e-01	
   5.0215000e+01	   1.1630904e+00	   9.1963021e-01	
   5.0270000e+01	   1.1939578e+00	   8.7664535e-01	
   5.0325000e+01	   5.6189400e-01	   7.5667491e-01	
   5.0380000e+01	   5.1564295e-01	   4.6998000e-01	
   5.0435000e+01	   9.9365002e-01	   6.1979914e-01	
   5.0490000e+01	   1.4011143e+00	   9.6115598e-01	
   5.0545000e+01	   1.2174226e+00	   7.9287607e-01	
   5.0600000e+01	   1.0863309e+00	   8.8731904e-01	
   5.0655000e+01	   1.4761118e+00	   9.0215562e-01	
   5.0710000e+01	   1.4248725e+00	   1.1918988e+00	
   5.0765000e+01	   9.6357662e-01	   7.7838905e-01	
   5.0820000e+01	   1.2804746e+00	   8.2392297e-01	
   5.0875000e+01	   7.0283937e-01	   7.6495260e-01	
   5.0930000e+01	   9.2885767e-01	   7.1440939e-01	
   5.0985000e+01	   8.6520360e-01	   6.1851960e-01	
   5.1040000e+01	   5.4373653e-01	   5.2796390e-01	
   5.1095000e+01	   9.1614008e-01	   9.0305470e-01	
   5.1150000e+01	   1.4026183e+00	   9.2628552e-01	
   5.1205000e+01	   1.4652709e+00	   1.0818516e+00	
   5.1260000e+01	   1.2351640e+00	   8.3537422e-01	
   5.1315000e+01	   1.0754762e+00	   7.2297298e-01	
   5.1370000e+01	   1.2684674e+00	   8.7837001e-01	
   5.1425000e+01	   1.1017010e+00	   9.4737619e-01	
   5.1480000e+01	   1.2053301e+00	   7.2590395e-01	
   5.1535000e+01	   7.3056663e-01	   6.8318542e-01	
   5.1590000e+01	   1.2804450e+00	   6.9079047e-01	
   5.1645000e+01	   8.5610648e-01	   6.6521707e-01	
   5.1700000e+01	   8.1848925e-01	   6.7079796e-01	
   5.1755000e+01	   1.2451697e+00	   8.5118627e-01	
   5.1810000e+01	   1.6533228e+00	   1.2107228e+00	
   5.1865000e+01	   1.6409533e+00	   1.2087148e+00	
   5.1920000e+01	   1.1635051e+00	   9.1010916e-01	
   5.1975000e+01	   1.4929191e+00	   9.8087860e-01	
   5.2030000e+01	   1.4855183e+00	   1.0780998e+00	
   5.2085000e+01	   1.6056923e+00	   1.1268333e+00	
   5.2140000e+01	   8.5523841e-01	   8.5986144e-01	
   5.2195000e+01	   1.2075888e+00	   8.3224886e-01	
   5.2250000e+01	   1.1008666e+00	   7.6941109e-01	
   5.2305000e+01	   1.0376553e+00	   7.6944885e-01	
   5.2360000e+01	   9.8208762e-01	   6.2774627e-01	
   5.2415000e+01	   1.4471267e+00	   9.9879818e-01	
   5.2470000e+01	   1.7631107e+00	   1.1985684e+00	
   5.2525000e+01	   1.7491667e+00	   1.1936155e+00	
   5.2580000e+01	   1.6997480e+00	   1.1191980e+00	
   5.2635000e+01	   1.6325555e+00	   1.0023757e+00	
   5.2690000e+01	   1.3461824e+00	   9.1904982e-01	
   5.2745000e+01	   1.4599034e+00	   1.0427818e+00	
   5.2800000e+01	   1.4189612e+00	   1.0370764e+00	
   5.2855000e+01	   1.2303976e+00	   8.1615510e-01	
   5.2910000e+01	   1.0682243e+00	   6.8117253e-01	
   5.2965000e+01	   1.0575579e+00	   7.4817840e-01	
   5.3020000e+01	   1.4327952e+00	   8.9322950e-01	
   5.3075000e+01	   1.8084784e+00	   1.1017844e+00	
   5.3130000e+01	   2.0999106e+00	   1.0505617e+00	
   5.3185000e+01	   1.9817511e+00	   1.1730771e+00	
   5.3240000e+01	   2.2152346e+00	   1.2769303e+00	
   5.3295000e+01	   2.0764765e+00	   9.8318208e-01	
   5.3350000e+01	   1.7838414e+00	   1.1502818e+00	
   5.3405000e+01	   2.0069978e+00	   1.0498621e+00	
   5.3460000e+01	   1.7892112e+00	   1.0403747e+00	
   5.3515000e+01	   1.6827756e+00	   9.0609617e-01	
   5.3570000e+01	   1.6098121e+00	   8.2690209e-01	
   5.3625000e+01	   1.7666200e+00	   9.1871955e-01	
   5.3680000e+01	   2.0357769e+00	   1.0323136e+00	
   5.3735000e+01	   2.2651610e+00	   9.7328062e-01	
   5.3790000e+01	   1.9795668e+00	   1.0280814e+00	
   5.3845000e+01	   2.2247555e+00	   1.0989298e+00	
   5.3900000e+01	   2.0006604e+00	   1.2468318e+00	
   5.3955000e+01	   2.3574132e+00	   1.1909606e+00	
   5.4010000e+01	   1.5128811e+00	   8.5179608e-01	
   5.4065000e+01	   1.5660237e+00	   9.3588085e-01	
   5.4120000e+01	   1.6537934e+00	   9.4733032e-01	
   5.4175000e+01	   1.7037356e+00	   9.9366511e-01	
   5.4230000e+01	   1.3842700e+00	   7.6819934e-01	
   5.4285000e+01	   1.3962239e+00	   6.9459948e-01	
   5.4340000e+01	   1.9084156e+00	   1.1952541e+00	
   5.4395000e+01	   1.9842605e+00	   1.0260473e+00	
   5.4450000e+01	   1.7991144e+00	   9.3374966e-01	
   5.4505000e+01	   1.7945941e+00	   9.9182571e-01	
   5.4560000e+01	   1.7507274e+00	   1.1709340e+00	
   5.4615000e+01	   1.9548715e+00	   1.2107490e+00	
   5.4670000e+01	   1.6520420e+00	   8.5189061e-01	
   5.4725000e+01	   1.4369070e+00	   7.7240322e-01	
   5.4780000e+01	   1.6074634e+00	   7.9107994e-01	
   5.4835000e+01	   1.2546212e+00	   7.5196309e-01	
   5.4890000e+01	   1.3387690e+00	   6.7501892e-01	
   5.4945000e+01	   1.7056431e+00	   8.8827194e-01	
   5.5000000e+01	   1.7562994e+00	   1.0722222e+00	
   5.5055000e+01	   1.7466351e+00	   1.0391941e+00	
   5.5110000e+01	   1.6710215e+00	   1.0049427e+00	
   5.5165000e+01	   1.4370249e+00	   8.1191007e-01	
   5.5220000e+01	   2.0002751e+00	   1.1905574e+00	
   5.5275000e+01	   1.6086322e+00	   1.0825915e+00	
   5.5330000e+01	   1.1704264e+00	   7.8054711e-01	
   5.5385000e+01	   1.3605515e+00	   7.7807345e-01	
   5.5440000e+01	   1.2929485e+00	   7.3837435e-01	
   5.5495000e+01	   1.4312969e+00	   8.6764465e-01	
   5.5550000e+01	   1.9153817e+00	   1.0831342e+00	
   5.5605000e+01	   1.8229920e+00	   9.3879085e-01	
   5.5660000e+01	   1.7409434e+00	   9.8895015e-01	
   5.5715000e+01	   2.0903493e+00	   1.0868745e+00	
   5.5770000e+01	   1.8248517e+00	   1.0948906e+00	
   5.5825000e+01	   1.6359488e+00	   8.8905811e-01	
   5.5880000e+01	   1.6167502e+00	   9.7668270e-01	
   5.5935000e+01	   1.8415203e+00	   8.9486744e-01	
   5.5990000e+01	   1.5909790e+00	   8.1306417e-01	
   5.6045000e+01	   1.4388728e+00	   6.1062335e-01	
   5.6100000e+01	   1.3768823e+00	   6.3252555e-01	
   5.6155000e+01	   2.1243892e+00	   1.0400336e+00	
   5.6210000e+01	   2.0604190e+00	   9.9277021e-01	
   5.6265000e+01	   1.9587924e+00	   1.0517871e+00	
   5.6320000e+01	   1.9310443e+00	   1.0384387e+00	
   5.6375000e+01	   2.0329283e+00	   1.2040531e+00	
   5.6430000e+01	   2.3244988e+00	   1.0815781e+00	
   5.6485000e+01	   2.0725715e+00	   9.9858789e-01	
   5.6540000e+01	   1.8649377e+00	   8.8366064e-01	
   5.6595000e+01	   1.9521759e+00	   9.5261025e-01	
   5.6650000e+01	   1.7969200e+00	   9.6744304e-01	
   5.6705000e+01	   1.8111996e+00	   8.4943563e-01	
   5.6760000e+01	   1.5821546e+00	   6.9473742e-01	
   5.6815000e+01	   2.0113953e+00	   1.0445755e+00	
   5.6870000e+01	   2.4361637e+00	   1.1395634e+00	
   5.6925000e+01	   2.4683489e+00	   1.2626091e+00	
   5.6980000e+01	   1.9782744e+00	   1.0593710e+00	
   5.7035000e+01	   2.1611859e+00	   1.0783386e+00	
   5.7090000e+01	   2.3821639e+00	   1.0567095e+00	
   5.7145000e+01	   2.2879779e+00	   1.1351714e+00	
   5.7200000e+01	   1.9662598e+00	   9.3175197e-01	
   5.7255000e+01	   1.9660659e+00	   8.4376938e-01	
   5.7310000e+01	   2.0605590e+00	   7.6061104e-01	
   5.7365000e+01	   1.8134343e+00	   7.8390849e-01	
   5.7420000e+01	   1.7574169e+00	   6.6477733e-01	
   5.7475000e+01	   2.4021558e+00	   1.0618319e+00	
   5.7530000e+01	   2.5460476e+00	   1.0297487e+00	
   5.7585000e+01	   2.7541717e+00	   1.1905027e+00	
   5.7640000e+01	   2.5316256e+00	   1.0405835e+00	
   5.7695000e+01	   2.3216773e+00	   9.0443594e-01	
   5.7750000e+01	   2.5064760e+00	   1.1168392e+00	
   5.7805000e+01	   2.2262003e+00	   1.0463995e+00	
   5.7860000e+01	   2.0226878e+00	   9.9895206e-01	
   5.7915000e+01	   1.6210300e+00	   7.5922230e-01	
   5.7970000e+01	   1.5823266e+00	   6.7054131e-01	
   5.8025000e+01	   1.3874084e+00	   6.8615283e-01	
   5.8080000e+01	   1.6473066e+00	   8.1437038e-01	
   5.8135000e+01	   2.0473253e+00	   9.3080215e-01	
   5.8190000e+01	   2.0920336e+00	   9.4039163e-01	
   5.8245000e+01	   2.4311613e+00	   1.1493692e+00	
   5.8300000e+01	   2.1527614e+00	   1.0421827e+00	
   5.8355000e+01	   2.1489877e+00	   9.8609025e-01	
   5.8410000e+01	   2.1457964e+00	   1.0207091e+00	
   5.8465000e+01	   2.0821351e+00	   1.0933444e+00	
   5.8520000e+01	   2.0426116e+00	   1.0078585e+00	
   5.8575000e+01	   1.6994835e+00	   7.1228761e-01	
   5.8630000e+01	   1.7290736e+00	   8.9592919e-01	
   5.8685000e+01	   1.4725937e+00	   7.5155767e-01	
   5.8740000e+01	   1.7168691e+00	   6.7857725e-01	
   5.8795000e+01	   1.8663304e+00	   8.1231386e-01	
   5.8850000e+01	   2.2349063e+00	   1.1383504e+00	
   5.8905000e+01	   2.0652605e+00	   1.0377478e+00	
   5.8960000e+01	   2.2277073e+00	   1.2088936e+00	
   5.9015000e+01	   1.9190206e+00	   8.7467671e-01	
   5.9070000e+01	   1.9762413e+00	   1.0016925e+00	
   5.9125000e+01	   1.9422618e+00	   1.0321740e+00	
   5.9180000e+01	   1.7462747e+00	   6.9887469e-01	
   5.9235000e+01	   1.3979571e+00	   6.0485191e-01	
   5.9290000e+01	   1.4252183e+00	   5.1403984e-01	
   5.9345000e+01	   1.8061007e+00	   7.3353229e-01	
   5.9400000e+01	   2.0439418e+00	   9.9982783e-01	
   5.9455000e+01	   1.9336400e+00	   8.5058488e-01	
   5.9510000e+01	   1.8302366e+00	   1.0826785e+00	
   5.9565000e+01	   1.9791225e+00	   8.9060595e-01	
   5.9620000e+01	   1.8408659e+00	   1.0303384e+00	
   5.9675000e+01	   1.8698467e+00	   8.3572023e-01	
   5.9730000e+01	   1.6581735e+00	   7.4532474e-01	
   5.9785000e+01	   1.6757488e+00	   9.1809267e-01	
   5.9840000e+01	   1.7605201e+00	   8.3969074e-01	
   5.9895000e+01	   1.5494225e+00	   6.9490779e-01	
   5.9950000e+01	   1.3927327e+00	   3.2679391e-01	
   6.0005000e+01	   1.8549502e+00	   9.2491600e-01	
   6.0060000e+01	   2.1974811e+00	   1.1037686e+00	
   6.0115000e+01	   2.1562486e+00	   1.0263279e+00	
   6.0170000e+01	   1.9278033e+00	   9.1758673e-01	
   6.0225000e+01	   2.1671344e+00	   1.2098899e+00	
   6.0280000e+01	   2.0040945e+00	   9.6033902e-01	
   6.0335000e+01	   1.8092469e+00	   8.4395610e-01	
   6.0390000e+01	   1.9961491e+00	   7.1887812e-01	
   6.0445000e+01	   1.8868454e+00	   7.3018823e-01	
   6.0500000e+01	   1.6265386e+00	   7.8834438e-01	
   6.0555000e+01	   1.8159750e+00	   7.1711252e-01	
   6.0610000e+01	   2.0621227e+00	   9.2956072e-01	
   6.0665000e+01	   1.8884568e+00	   8.3315206e-01	
   6.0720000e+01	   2.4557250e+00	   1.1077893e+00	
   6.0775000e+01	   2.5402313e+00	   1.1367038e+00	
   6.0830000e+01	   2.4020979e+00	   1.0434377e+00	
   6.0885000e+01	   2.1647474e+00	   9.6483645e-01	
   6.0940000e+01	   2.4732880e+00	   9.9551400e-01	
   6.0995000e+01	   2.5751240e+00	   1.0451572e+00	
   6.1050000e+01	   2.1183266e+00	   8.7218426e-01	
   6.1105000e+01	   1.8887547e+00	   7.1707253e-01	
   6.1160000e+01	   2.0190089e+00	   6.6020157e-01	
   6.1215000e+01	   2.1989699e+00	   7.4656707e-01	
   6.1270000e+01	   1.9699694e+00	   6.9202353e-01	
   6.1325000e+01	   2.6346097e+00	   1.0445193e+00	
   6.1380000e+01	   2.8191727e+00	   1.1826836e+00	
   6.1435000e+01	   2.6127575e+00	   1.0776326e+00	
   6.1490000e+01	   2.6009373e+00	   1.1807288e+00	
   6.1545000e+01	   2.6472060e+00	   9.0174964e-01	
   6.1600000e+01	   2.6967880e+00	   1.2264387e+00	
   6.1655000e+01	   2.5638041e+00	   1.2577628e+00	
   6.1710000e+01	   2.4226382e+00	   1.0809263e+00	
   6.1765000e+01	   2.4030755e+00	   7.5279031e-01	
   6.1820000e+01	   2.1174809e+00	   8.3678127e-01	
   6.1875000e+01	   2.0197163e+00	   7.4599537e-01	
   6.1930000e+01	   1.9649709e+00	   7.3081834e-01	
   6.1985000e+01	   2.1331519e+00	   8.6141692e-01	
   6.2040000e+01	   1.9477088e+00	   1.0782002e+00	
   6.2095000e+01	   2.3126938e+00	   9.5990089e-01	
   6.2150000e+01	   2.4688725e+00	   1.1789081e+00	
   6.2205000e+01	   2.5280371e+00	   1.1741098e+00	
   6.2260000e+01	   2.2881234e+00	   1.2371000e+00	
   6.2315000e+01	   2.0252468e+00	   1.0663998e+00	
   6.2370000e+01	   2.1944052e+00	   9.4650615e-01	
   6.2425000e+01	   1.6641794e+00	   7.8394677e-01	
   6.2480000e+01	   1.9289865e+00	   7.7142757e-01	
   6.2535000e+01	   1.8920894e+00	   8.5996210e-01	
   6.2590000e+01	   1.7379941e+00	   7.7569119e-01	
   6.2645000e+01	   1.8828524e+00	   7.7928193e-01	
   6.2700000e+01	   2.2096458e+00	   8.4563226e-01	
   6.2755000e+01	   2.2366734e+00	   9.7019807e-01	
   6.2810000e+01	   2.2683961e+00	   1.2126707e+00	
   6.2865000e+01	   2.0213563e+00	   9.8168139e-01	
   6.2920000e+01	   2.0984117e+00	   1.1550162e+00	
   6.2975000e+01	   1.7151276e+00	   8.5111335e-01	
   6.3030000e+01	   2.0321032e+00	   8.5898821e-01	
   6.3085000e+01	   1.5617283e+00	   8.3637148e-01	
   6.3140000e+01	   1.6497883e+00	   8.9915069e-01	
   6.3195000e+01	   1.4470700e+00	   6.5989580e-01	
   6.3250000e+01	   1.5371432e+00	   7.1550734e-01	
   6.3305000e+01	   1.9782521e+00	   8.8466223e-01	
   6.3360000e+01	   2.1144030e+00	   9.5041589e-01	
   6.3415000e+01	   1.8734809e+00	   8.3697280e-01	
   6.3470000e+01	   1.9749874e+00	   1.0256642e+00	
   6.3525000e+01	   2.1893974e+00	   9.4271125e-01	
   6.3580000e+01	   2.0206887e+00	   8.1691259e-01	
   6.3635000e+01	   1.7105699e+00	   8.3432341e-01	
   6.3690000e+01	   1.8815867e+00	   8.0521116e-01	
   6.3745000e+01	   2.0970141e+00	   9.4795873e-01	
   6.3800000e+01	   1.6725667e+00	   4.9269270e-01	
   6.3855000e+01	   1.4478782e+00	   5.9078843e-01	
   6.3910000e+01	   1.7490448e+00	   6.4836769e-01	
   6.3965000e+01	   2.2625946e+00	   9.0437790e-01	
   6.4020000e+01	   2.4107029e+00	   8.3671625e-01	
   6.4075000e+01	   2.0600883e+00	   9.1556897e-01	
   6.4130000e+01	   2.3421930e+00	   9.0566740e-01	
   6.4185000e+01	   2.1524069e+00	   8.9739391e-01	
   6.4240000e+01	   1.9863450e+00	   7.0248073e-01	
   6.4295000e+01	   1.6500067e+00	   5.6865990e-01	
   6.4350000e+01	   2.0979135e+00	   8.6900176e-01	
   6.4405000e+01	   1.9852087e+00	   7.4245795e-01	
   6.4460000e+01	   1.8048060e+00	   5.6382237e-01	
   6.4515000e+01	   1.7203163e+00	   5.5290094e-01	
   6.4570000e+01	   1.5787120e+00	   4.2342744e-01	
   6.4625000e+01	   1.9319907e+00	   7.2493460e-01	
   6.4680000e+01	   2.2552667e+00	   8.3850434e-01	
   6.4735000e+01	   2.4643455e+00	   1.0139070e+00	
   6.4790000e+01	   2.1234213e+00	   9.5280516e-01	
   6.4845000e+01	   2.2203519e+00	   1.0072562e+00	
   6.4900000e+01	   2.2381100e+00	   9.1716159e-01	
   6.4955000e+01	   2.0946081e+00	   7.4730469e-01	
   6.5010000e+01	   1.7980818e+00	   7.0501692e-01	
   6.5065000e+01	   2.0595921e+00	   9.0731186e-01	
   6.5120000e+01	   1.9002510e+00	   6.7605895e-01	
   6.5175000e+01	   1.6931723e+00	   5.1297239e-01	
   6.5230000e+01	   1.5861139e+00	   6.3640255e-01	
   6.5285000e+01	   1.4829996e+00	   5.0113439e-01	
   6.5340000e+01	   2.1198633e+00	   8.2807665e-01	
   6.5395000e+01	   1.7463218e+00	   7.9539072e-01	
   6.5450000e+01	   1.8683308e+00	   6.3721157e-01	
   6.5505000e+01	   1.9052452e+00	   7.6776939e-01	
   6.5560000e+01	   2.0225044e+00	   9.1360527e-01	
   6.5615000e+01	   1.9995762e+00	   9.3917663e-01	
   6.5670000e+01	   1.4322319e+00	   6.5536778e-01	
   6.5725000e+01	   1.8393628e+00	   9.2147631e-01	
   6.5780000e+01	   1.5361449e+00	   7.6044139e-01	
   6.5835000e+01	   1.2625966e+00	   5.5484009e-01	
   6.5890000e+01	   9.9045790e-01	   5.6191637e-01	
   6.5945000e+01	   1.2592829e+00	   4.6381031e-01	
   6.6000000e+01	   1.5643204e+00	   5.7726494e-01	
   6.6055000e+01	   1.8848999e+00	   6.6169197e-01	
   6.6110000e+01	   1.6473174e+00	   7.6019842e-01	
   6.6165000e+01	   1.6508277e+00	   6.1554015e-01	
   6.6220000e+01	   1.4075192e+00	   6.1499550e-01	
   6.6275000e+01	   1.6620584e+00	   7.7804474e-01	
   6.6330000e+01	   1.4501784e+00	   6.3800332e-01	
   6.6385000e+01	   1.3864934e+00	   5.5207438e-01	
   6.6440000e+01	   1.3758222e+00	   6.9263621e-01	
   6.6495000e+01	   1.3013072e+00	   5.9155757e-01	
   6.6550000e+01	   1.0403193e+00	   4.8020816e-01	
   6.6605000e+01	   6.8043330e-01	   2.4257626e-01	
   6.6660000e+01	   1.0738274e+00	   3.3881302e-01	
   6.6715000e+01	   1.6154112e+00	   6.6907502e-01	
   6.6770000e+01	   1.4711821e+00	   5.6756186e-01	
   6.6825000e+01	   1.4942464e+00	   6.4412843e-01	
   6.6880000e+01	   1.6136612e+00	   9.1965177e-01	
   6.6935000e+01	   1.7294324e+00	   8.1424217e-01	
   6.6990000e+01	   1.6081155e+00	   6.0332974e-01	
   6.7045000e+01	   1.0921721e+00	   6.1305159e-01	
   6.7100000e+01	   1.2770929e+00	   6.4236861e-01	
   6.7155000e+01	   1.1935161e+00	   7.0327066e-01	
   6.7210000e+01	   1.0592328e+00	   3.7694409e-01	
   6.7265000e+01	   1.1053785e+00	   4.2671095e-01	
   6.7320000e+01	   8.2847725e-01	   2.6728103e-01	
   6.7375000e+01	   9.5291002e-01	   5.4542559e-01	
   6.7430000e+01	   1.2027490e+00	   5.6856339e-01	
   6.7485000e+01	   1.5139444e+00	   6.7527712e-01	
   6.7540000e+01	   1.3979460e+00	   6.9127802e-01	
   6.7595000e+01	   1.5906171e+00	   6.9968222e-01	
   6.7650000e+01	   1.6119820e+00	   7.5094177e-01	
   6.7705000e+01	   1.2957638e+00	   5.3238170e-01	
   6.7760000e+01	   1.1920910e+00	   5.1446051e-01	
   6.7815000e+01	   1.3451295e+00	   7.0200487e-01	
   6.7870000e+01	   1.3285748e+00	   5.6982800e-01	
   6.7925000e+01	   1.2374316e+00	   4.8595552e-01	
   6.7980000e+01	   1.2449516e+00	   3.7137232e-01	
   6.8035000e+01	   1.1020110e+00	   4.9667729e-01	
   6.8090000e+01	   1.3143868e+00	   4.9731423e-01	
   6.8145000e+01	   1.6096540e+00	   4.6872793e-01	
   6.8200000e+01	   1.5563513e+00	   5.3128922e-01	
   6.8255000e+01	   1.7831073e+00	   8.1868436e-01	
   6.8310000e+01	   2.0801415e+00	   9.6626530e-01	
   6.8365000e+01	   1.8417187e+00	   7.6979524e-01	
   6.8420000e+01	   1.5302233e+00	   7.1367366e-01	
   6.8475000e+01	   1.7955046e+00	   7.3991163e-01	
   6.8530000e+01	   1.4242014e+00	   6.7865955e-01	
   6.8585000e+01	   9.2602069e-01	   3.5399072e-01	
   6.8640000e+01	   1.0455630e+00	   4.9879785e-01	
   6.8695000e+01	   1.1960682e+00	   4.9807038e-01	
   6.8750000e+01	   1.2232206e+00	   4.3627763e-01	
   6.8805000e+01	   1.0623675e+00	   3.4828791e-01	
   6.8860000e+01	   1.3659507e+00	   5.8410107e-01	
   6.8915000e+01	   1.6124024e+00	   6.9399262e-01	
   6.8970000e+01	   1.8772570e+00	   6.8343203e-01	
   6.9025000e+01	   1.4315635e+00	   7.1625724e-01	
   6.9080000e+01	   1.3340867e+00	   5.7913963e-01	
   6.9135000e+01	   1.4342814e+00	   7.1136679e-01	
   6.9190000e+01	   1.2991554e+00	   6.8810380e-01	
   6.9245000e+01	   1.2666918e+00	   5.1515839e-01	
   6.9300000e+01	   1.1114495e+00	   4.3151118e-01	
   6.9355000e+01	   9.8759150e-01	   4.3502807e-01	
   6.9410000e+01	   7.7795313e-01	   4.4737293e-01	
   6.9465000e+01	   6.3504261e-01	   3.8533522e-01	
   6.9520000e+01	   8.5065202e-01	   4.1970258e-01	
   6.9575000e+01	   1.1768196e+00	   5.4125033e-01	
   6.9630000e+01	   1.3898189e+00	   8.6663337e-01	
   6.9685000e+01	   1.3003734e+00	   8.3482658e-01	
   6.9740000e+01	   1.2772116e+00	   4.4028962e-01	
   6.9795000e+01	   1.2241419e+00	   6.6880103e-01	
   6.9850000e+01	   1.1854634e+00	   7.3020936e-01	
   6.9905000e+01	   1.1237081e+00	   5.6887109e-01	
   6.9960000e+01	   1.0319564e+00	   3.4031161e-01	
   7.0015000e+01	   9.5962163e-01	   3.9766764e-01	
   7.0070000e+01	   5.8903415e-01	   2.6653141e-01	
   7.0125000e+01	   6.7119072e-01	   3.9724732e-01	
   7.0180000e+01	   5.8596559e-01	   1.4989624e-01	
   7.0235000e+01	   9.0026047e-01	   5.7781605e-01	
   7.0290000e+01	   1.0972153e+00	   7.5022306e-01	
   7.0345000e+01	   1.5402018e+00	   8.1272573e-01	
   7.0400000e+01	   1.4005382e+00	   7.8950898e-01	
   7.0455000e+01	   1.1785143e+00	   5.5830535e-01	
   7.0510000e+01	   1.0110128e+00	   6.0548951e-01	
   7.0565000e+01	   1.1617057e+00	   7.3842870e-01	
   7.0620000e+01	   6.6886139e-01	   5.0732613e-01	
   7.0675000e+01	   7.9980271e-01	   4.0914109e-01	
   7.0730000e+01	   9.8485004e-01	   4.5286916e-01	
   7.0785000e+01	   5.9803905e-01	   4.7379750e-01	
   7.0840000e+01	   5.3787306e-01	   2.2049846e-01	
   7.0895000e+01	   6.6205923e-01	   2.9358983e-01	
   7.0950000e+01	   1.2271937e+00	   4.6544596e-01	
   7.1005000e+01	   1.7126094e+00	   7.5272100e-01	
   7.1060000e+01	   1.6546933e+00	   8.1781955e-01	
   7.1115000e+01	   1.6747956e+00	   7.2935145e-01	
   7.1170000e+01	   1.1920495e+00	   5.7403971e-01	
   7.1225000e+01	   1.2796086e+00	   8.5171284e-01	
   7.1280000e+01	   1.3427065e+00	   9.0429095e-01	
   7.1335000e+01	   7.5811372e-01	   5.0171430e-01	
   7.1390000e+01	   7.4104641e-01	   4.9396632e-01	
   7.1445000e+01	   7.7258655e-01	   5.3163809e-01	
   7.1500000e+01	   6.9094228e-01	   4.9750170e-01	
   7.1555000e+01	   6.7583248e-01	   3.6432841e-01	
   7.1610000e+01	   1.1500482e+00	   5.4470507e-01	
   7.1665000e+01	   1.2960462e+00	   6.9381079e-01	
   7.1720000e+01	   1.4656173e+00	   7.4164339e-01	
   7.1775000e+01	   1.3145416e+00	   7.9575774e-01	
   7.1830000e+01	   1.1763048e+00	   7.0427668e-01	
   7.1885000e+01	   1.1034438e+00	   7.3169332e-01	
   7.1940000e+01	   1.4349802e+00	   7.6136851e-01	
   7.1995000e+01	   1.3604262e+00	   7.0782563e-01	
   7.2050000e+01	   1.1778011e+00	   6.0920307e-01	
   7.2105000e+01	   7.9518174e-01	   4.6127816e-01	
   7.2160000e+01	   1.0455423e+00	   5.2211990e-01	
   7.2215000e+01	   9.2227424e-01	   4.9321480e-01	
   7.2270000e+01	   7.6699879e-01	   2.8969313e-01	
   7.2325000e+01	   1.2041856e+00	   5.0381494e-01	
   7.2380000e+01	   1.6243364e+00	   8.5762472e-01	
   7.2435000e+01	   1.6349350e+00	   8.6616795e-01	
   7.2490000e+01	   1.5201497e+00	   7.3986824e-01	
   7.2545000e+01	   1.0409876e+00	   7.1201217e-01	
   7.2600000e+01	   1.2864286e+00	   7.9450312e-01	
   7.2655000e+01	   1.2990251e+00	   7.5716138e-01	
   7.2710000e+01	   9.6870861e-01	   7.3722598e-01	
   7.2765000e+01	   1.0701572e+00	   5.9403882e-01	
   7.2820000e+01	   1.1181673e+00	   6.6664871e-01	
   7.2875000e+01	   8.6307941e-01	   6.3520562e-01	
   7.2930000e+01	   7.1849567e-01	   4.5359354e-01	
   7.2985000e+01	   7.5345160e-01	   3.5960497e-01	
   7.3040000e+01	   8.9165919e-01	   5.5875797e-01	
   7.3095000e+01	   1.3261599e+00	   7.9811183e-01	
   7.3150000e+01	   1.6962687e+00	   7.9902606e-01	
   7.3205000e+01	   1.1748631e+00	   6.5968621e-01	
   7.3260000e+01	   1.4394175e+00	   8.3669958e-01	
   7.3315000e+01	   1.4242369e+00	   9.1686717e-01	
   7.3370000e+01	   1.0842459e+00	   8.4112366e-01	
   7.3425000e+01	   9.4392634e-01	   6.6652279e-01	
   7.3480000e+01	   1.1197694e+00	   7.0943150e-01	
   7.3535000e+01	   1.1613284e+00	   7.8244457e-01	
   7.3590000e+01	   8.9232927e-01	   6.6230622e-01	
   7.3645000e+01	   7.7811553e-01	   5.7395384e-01	
   7.3700000e+01	   8.3095535e-01	   4.2082637e-01	
   7.3755000e+01	   1.0744132e+00	   6.6345527e-01	
   7.3810000e+01	   1.4721316e+00	   8.8167317e-01	
   7.3865000e+01	   1.2770133e+00	   9.2750611e-01	
   7.3920000e+01	   1.2722348e+00	   7.7152768e-01	
   7.3975000e+01	   1.3112856e+00	   8.4341441e-01	
   7.4030000e+01	   1.3869897e+00	   8.4732281e-01	
   7.4085000e+01	   1.4218485e+00	   6.0413748e-01	
   7.4140000e+01	   1.0716955e+00	   6.5918142e-01	
   7.4195000e+01	   1.0789174e+00	   7.2278719e-01	
   7.4250000e+01	   1.2600795e+00	   7.6946818e-01	
   7.4305000e+01	   9.5865248e-01	   4.8752115e-01	
   7.4360000e+01	   8.0192569e-01	   7.0893356e-01	
   7.4415000e+01	   7.1015325e-01	   5.5511695e-01	
   7.4470000e+01	   1.0954873e+00	   6.1167305e-01	
   7.4525000e+01	   1.3605093e+00	   7.7026131e-01	
   7.4580000e+01	   1.4675497e+00	   9.5466407e-01	
   7.4635000e+01	   1.5330327e+00	   8.6552749e-01	
   7.4690000e+01	   1.6234298e+00	   9.1534001e-01	
   7.4745000e+01	   1.6586826e+00	   8.2069152e-01	
   7.4800000e+01	   1.4145523e+00	   7.0122857e-01	
   7.4855000e+01	   1.2449782e+00	   8.2703002e-01	
   7.4910000e+01	   1.4904725e+00	   7.9884748e-01	
   7.4965000e+01	   9.1262108e-01	   5.2888968e-01	
   7.5020000e+01	   8.1750468e-01	   5.1917857e-01	
   7.5075000e+01	   1.0264546e+00	   6.1423552e-01	
   7.5130000e+01	   1.0089417e+00	   5.9929545e-01	
   7.5185000e+01	   9.9942810e-01	   4.5362502e-01	
   7.5240000e+01	   1.4847959e+00	   7.9238363e-01	
   7.5295000e+01	   1.6841737e+00	   7.7276027e-01	
   7.5350000e+01	   1.8297361e+00	   9.8298460e-01	
   7.5405000e+01	   1.4337829e+00	   8.5526433e-01	
   7.5460000e+01	   1.6133033e+00	   7.8734157e-01	
   7.5515000e+01	   1.4621340e+00	   7.4191923e-01	
   7.5570000e+01	   1.3505435e+00	   6.8548088e-01	
   7.5625000e+01	   1.4752988e+00	   9.0999199e-01	
   7.5680000e+01	   1.2578488e+00	   6.2358221e-01	
   7.5735000e+01	   1.3558809e+00	   5.9320945e-01	
   7.5790000e+01	   1.2792262e+00	   7.7393019e-01	
   7.5845000e+01	   1.2047786e+00	   5.5967694e-01	
   7.5900000e+01	   1.1377569e+00	   4.3276273e-01	
   7.5955000e+01	   1.1751723e+00	   3.8590449e-01	
   7.6010000e+01	   1.3953107e+00	   8.5224185e-01	
   7.6065000e+01	   1.7155864e+00	   9.5896513e-01	
   7.6120000e+01	   1.9732907e+00	   9.5472742e-01	
   7.6175000e+01	   1.4881020e+00	   7.0621824e-01	
   7.6230000e+01	   1.4862687e+00	   9.2259108e-01	
   7.6285000e+01	   1.7212445e+00	   8.7679117e-01	
   7.6340000e+01	   1.3465523e+00	   7.9840588e-01	
   7.6395000e+01	   1.4190864e+00	   5.7768092e-01	
   7.6450000e+01	   1.0819928e+00	   6.9917495e-01	
   7.6505000e+01	   1.4041393e+00	   7.4779039e-01	
   7.6560000e+01	   1.1856260e+00	   5.8644632e-01	
   7.6615000e+01	   8.8363562e-01	   3.9431891e-01	
   7.6670000e+01	   8.2472014e-01	   3.7658647e-01	
   7.6725000e+01	   1.2074008e+00	   7.1279668e-01	
   7.6780000e+01	   1.6425637e+00	   8.9788035e-01	
   7.6835000e+01	   1.5364943e+00	   6.9176611e-01	
   7.6890000e+01	   1.5521730e+00	   8.7329536e-01	
   7.6945000e+01	   1.6476071e+00	   9.0802138e-01	
   7.7000000e+01	   1.6380363e+00	   8.7022546e-01	
   7.7055000e+01	   1.6420242e+00	   7.7225185e-01	
   7.7110000e+01	   1.2774473e+00	   8.4877567e-01	
   7.7165000e+01	   1.2662673e+00	   8.7418153e-01	
   7.7220000e+01	   1.3870148e+00	   6.1878846e-01	
   7.7275000e+01	   1.2508395e+00	   6.2290262e-01	
   7.7330000e+01	   1.1017371e+00	   4.7721473e-01	
   7.7385000e+01	   8.3081342e-01	   5.5724802e-01	
   7.7440000e+01	   9.9406508e-01	   6.4802503e-01	
   7.7495000e+01	   1.3603315e+00	   6.8799670e-01	
   7.7550000e+01	   1.5197609e+00	   8.5354530e-01	
   7.7605000e+01	   1.2707980e+00	   7.2887365e-01	
   7.7660000e+01	   1.7727537e+00	   8.4121710e-01	
   7.7715000e+01	   1.6055788e+00	   8.2709583e-01	
   7.7770000e+01	   1.2477938e+00	   7.9972404e-01	
   7.7825000e+01	   1.3263912e+00	   9.5721766e-01	
   7.7880000e+01	   1.5684493e+00	   8.4917041e-01	
   7.7935000e+01	   1.2141515e+00	   7.0420620e-01	
   7.7990000e+01	   8.6369026e-01	   3.5553871e-01	
   7.8045000e+01	   8.7983894e-01	   5.1486962e-01	
   7.8100000e+01	   6.9403068e-01	   3.9167444e-01	
   7.8155000e+01	   9.9577484e-01	   4.4987357e-01	
   7.8210000e+01	   1.2642301e+00	   6.2324940e-01	
   7.8265000e+01	   1.7994756e+00	   9.2977839e-01	
   7.8320000e+01	   1.6216159e+00	   8.2220511e-01	
   7.8375000e+01	   1.6520095e+00	   8.4677697e-01	
   7.8430000e+01	   1.4706952e+00	   8.3221468e-01	
   7.8485000e+01	   1.6186151e+00	   8.3712805e-01	
   7.8540000e+01	   1.3428201e+00	   9.4799986e-01	
   7.8595000e+01	   1.4474976e+00	   7.8042939e-01	
   7.8650000e+01	   1.4404490e+00	   8.4513089e-01	
   7.8705000e+01	   9.5309280e-01	   4.1196633e-01	
   7.8760000e+01	   1.0688518e+00	   5.7297237e-01	
   7.8815000e+01	   1.1892951e+00	   5.6701401e-01	
   7.8870000e+01	   1.2905261e+00	   4.8111797e-01	
   7.8925000e+01	   1.2606552e+00	   4.5586358e-01	
   7.8980000e+01	   1.6714204e+00	   7.7556577e-01	
   7.9035000e+01	   1.9611326e+00	   9.7496769e-01	
   7.9090000e+01	   2.2229276e+00	   1.0215607e+00	
   7.9145000e+01	   1.5600386e+00	   7.3613072e-01	
   7.9200000e+01	   1.8527235e+00	   9.0900562e-01	
   7.9255000e+01	   1.9189248e+00	   1.0490874e+00	
   7.9310000e+01	   1.5371927e+00	   9.0703577e-01	
   7.9365000e+01	   1.4821921e+00	   6.6105710e-01	
   7.9420000e+01	   1.4395557e+00	   5.5533345e-01	
   7.9475000e+01	   1.7794869e+00	   7.8559145e-01	
   7.9530000e+01	   1.5674167e+00	   7.1054623e-01	
   7.9585000e+01	   1.4045630e+00	   5.9059890e-01	
   7.9640000e+01	   1.5779819e+00	   6.3779751e-01	
   7.9695000e+01	   1.9056728e+00	   9.8581216e-01	
   7.9750000e+01	   2.1141176e+00	   1.1210486e+00	
   7.9805000e+01	   2.1211516e+00	   1.0105187e+00	
   7.9860000e+01	   1.8115164e+00	   9.3955265e-01	
   7.9915000e+01	   2.0369216e+00	   1.0546687e+00	
   7.9970000e+01	   2.2310968e+00	   1.0963913e+00	
   8.0025000e+01	   2.2379532e+00	   8.9074807e-01	
   8.0080000e+01	   2.0290625e+00	   7.3908181e-01	
   8.0135000e+01	   1.5785393e+00	   7.3754954e-01	
   8.0190000e+01	   1.8773679e+00	   9.0678567e-01	
   8.0245000e+01	   1.6270374e+00	   6.2274495e-01	
   8.0300000e+01	   1.5636916e+00	   5.2535477e-01	
   8.0355000e+01	   1.2680847e+00	   4.7501264e-01	
   8.0410000e+01	   2.0192976e+00	   7.3346828e-01	
   8.0465000e+01	   2.2356024e+00	   9.4525146e-01	
   8.0520000e+01	   1.9882564e+00	   9.2994275e-01	
   8.0575000e+01	   1.9224317e+00	   9.1221251e-01	
   8.0630000e+01	   2.0200803e+00	   1.1765520e+00	
   8.0685000e+01	   2.0313405e+00	   1.1113399e+00	
   8.0740000e+01	   1.8516937e+00	   9.6378804e-01	
   8.0795000e+01	   1.5213637e+00	   7.5967648e-01	
   8.0850000e+01	   1.5162647e+00	   7.3751366e-01	
   8.0905000e+01	   1.4342241e+00	   8.5517288e-01	
   8.0960000e+01	   1.1519196e+00	   6.8305849e-01	
   8.1015000e+01	   1.1147367e+00	   4.5855480e-01	
   8.1070000e+01	   1.2341265e+00	   5.4752824e-01	
   8.1125000e+01	   1.5021120e+00	   7.2534754e-01	
   8.1180000e+01	   1.8875700e+00	   7.7845043e-01	
   8.1235000e+01	   1.9200384e+00	   7.6807972e-01	
   8.1290000e+01	   1.8759599e+00	   8.5698157e-01	
   8.1345000e+01	   1.7006496e+00	   9.6705007e-01	
   8.1400000e+01	   1.9266335e+00	   8.8176397e-01	
   8.1455000e+01	   1.6666297e+00	   6.4740091e-01	
   8.1510000e+01	   1.6431986e+00	   5.4844045e-01	
   8.1565000e+01	   1.6383626e+00	   8.3691567e-01	
   8.1620000e+01	   1.5351974e+00	   7.0955107e-01	
   8.1675000e+01	   1.3251756e+00	   5.2211990e-01	
   8.1730000e+01	   1.0995685e+00	   4.4240521e-01	
   8.1785000e+01	   1.1599033e+00	   6.0927817e-01	
   8.1840000e+01	   1.8650556e+00	   8.4859323e-01	
   8.1895000e+01	   1.4634757e+00	   7.4370336e-01	
   8.1950000e+01	   1.8282008e+00	   8.3597446e-01	
   8.2005000e+01	   1.5706126e+00	   1.0545702e+00	
   8.2060000e+01	   1.6257285e+00	   8.6928935e-01	
   8.2115000e+01	   1.6794206e+00	   7.2769383e-01	
   8.2170000e+01	   1.6541232e+00	   8.6095405e-01	
   8.2225000e+01	   1.3896650e+00	   7.5064691e-01	
   8.2280000e+01	   1.3776446e+00	   6.2916104e-01	
   8.2335000e+01	   1.3868248e+00	   5.3993687e-01	
   8.2390000e+01	   9.6596074e-01	   3.9380040e-01	
   8.2445000e+01	   9.5681694e-01	   4.3802632e-01	
   8.2500000e+01	   9.5468568e-01	   5.2907948e-01	
   8.2555000e+01	   1.6646005e+00	   8.5363317e-01	
   8.2610000e+01	   1.3938790e+00	   5.2457600e-01	
   8.2665000e+01	   1.4797204e+00	   6.9527835e-01	
   8.2720000e+01	   1.9549359e+00	   9.5080311e-01	
   8.2775000e+01	   1.7743034e+00	   9.2568540e-01	
   8.2830000e+01	   1.4359736e+00	   7.4730380e-01	
   8.2885000e+01	   1.4614201e+00	   7.5145019e-01	
   8.2940000e+01	   1.4364150e+00	   8.5184644e-01	
   8.2995000e+01	   1.2627062e+00	   7.2859283e-01	
   8.3050000e+01	   1.0981831e+00	   5.3801051e-01	
   8.3105000e+01	   1.2633620e+00	   5.4927645e-01	
   8.3160000e+01	   1.1337066e+00	   3.8787900e-01	
   8.3215000e+01	   8.2197725e-01	   5.6256878e-01	
   8.3270000e+01	   1.4180869e+00	   5.5695713e-01	
   8.3325000e+01	   1.5114230e+00	   7.4199859e-01	
   8.3380000e+01	   1.5629475e+00	   7.3058305e-01	
   8.3435000e+01	   1.5489889e+00	   9.7439154e-01	
   8.3490000e+01	   1.7265744e+00	   8.9846457e-01	
   8.3545000e+01	   1.5298918e+00	   8.3874164e-01	
   8.3600000e+01	   1.4839783e+00	   7.6203158e-01	
   8.3655000e+01	   1.1641023e+00	   7.2028542e-01	
   8.3710000e+01	   1.6883426e+00	   8.3127799e-01	
   8.3765000e+01	   1.3161492e+00	   6.9107137e-01	
   8.3820000e+01	   1.1288438e+00	   5.6010350e-01	
   8.3875000e+01	   9.9814929e-01	   4.7506021e-01	
   8.3930000e+01	   1.3770050e+00	   6.6582328e-01	
   8.3985000e+01	   1.4461386e+00	   6.3039219e-01	
   8.4040000e+01	   1.1735434e+00	   4.6028554e-01	
   8.4095000e+01	   1.6485489e+00	   8.7174320e-01	
   8.4150000e+01	   1.6851641e+00	   1.0722952e+00	
   8.4205000e+01	   1.5780041e+00	   9.8280667e-01	
   8.4260000e+01	   1.4966804e+00	   8.8091154e-01	
   8.4315000e+01	   1.5619400e+00	   8.8474613e-01	
   8.4370000e+01	   1.1835293e+00	   5.9026123e-01	
   8.4425000e+01	   1.5387379e+00	   6.5258740e-01	
   8.4480000e+01	   1.0953124e+00	   3.8832468e-01	
   8.4535000e+01	   1.1870235e+00	   6.1917888e-01	
   8.4590000e+01	   1.3073655e+00	   6.0953322e-01	
   8.4645000e+01	   8.5053333e-01	   3.2505951e-01	
   8.4700000e+01	   1.3176203e+00	   4.9835182e-01	
   8.4755000e+01	   1.2649332e+00	   6.3931569e-01	
   8.4810000e+01	   1.4204935e+00	   8.4326940e-01	
   8.4865000e+01	   1.4560291e+00	   6.9082929e-01	
   8.4920000e+01	   1.5431214e+00	   7.0536463e-01	
   8.4975000e+01	   1.1710644e+00	   6.5515486e-01	
   8.5030000e+01	   1.2885223e+00	   6.9396133e-01	
   8.5085000e+01	   1.3641724e+00	   6.8861013e-01	
   8.5140000e+01	   1.1910763e+00	   5.8392059e-01	
   8.5195000e+01	   9.0738412e-01	   5.9429594e-01	
   8.5250000e+01	   7.9747503e-01	   5.6318517e-01	
   8.5305000e+01	   1.0672968e+00	   3.1227501e-01	
   8.5360000e+01	   5.2380559e-01	   2.3193921e-01	
   8.5415000e+01	   1.1013425e+00	   4.6740397e-01	
   8.5470000e+01	   1.4519175e+00	   8.0215942e-01	
   8.5525000e+01	   1.4197672e+00	   8.3505861e-01	
   8.5580000e+01	   1.1523071e+00	   7.2268833e-01	
   8.5635000e+01	   1.0652796e+00	   6.5658793e-01	
   8.5690000e+01	   1.2144998e+00	   6.5712305e-01	
   8.5745000e+01	   1.2246463e+00	   7.1998755e-01	
   8.5800000e+01	   1.0930177e+00	   7.0189950e-01	
   8.5855000e+01	   9.6267381e-01	   5.6875585e-01	
   8.5910000e+01	   1.0868125e+00	   5.4697245e-01	
   8.5965000e+01	   7.1977994e-01	   5.3535031e-01	
   8.6020000e+01	   7.0058049e-01	   3.0544916e-01	
   8.6075000e+01	   7.6620624e-01	   3.0383029e-01	
   8.6130000e+01	   1.0915823e+00	   5.1639855e-01	
   8.6185000e+01	   9.9822911e-01	   7.7028684e-01	
   8.6240000e+01	   1.2783930e+00	   8.6919501e-01	
   8.6295000e+01	   1.1970971e+00	   7.5587919e-01	
   8.6350000e+01	   1.0691231e+00	   6.3137986e-01	
   8.6405000e+01	   8.5008614e-01	   6.6608285e-01	
   8.6460000e+01	   1.1807630e+00	   7.3431886e-01	
   8.6515000e+01	   7.4455792e-01	   4.7697720e-01	
   8.6570000e+01	   6.2612283e-01	   4.1220429e-01	
   8.6625000e+01	   6.2981675e-01	   5.1261573e-01	
   8.6680000e+01	   5.9983470e-01	   4.2947712e-01	
   8.6735000e+01	   6.5477646e-01	   4.0709818e-01	
   8.6790000e+01	   7.7865803e-01	   5.1878963e-01	
   8.6845000e+01	   1.1421945e+00	   7.6454929e-01	
   8.6900000e+01	   1.3913506e+00	   9.0766091e-01	
   8.6955000e+01	   1.2337720e+00	   8.2461026e-01	
   8.7010000e+01	   1.2445691e+00	   6.6581686e-01	
   8.7065000e+01	   1.2696559e+00	   7.4805225e-01	
   8.7120000e+01	   1.2445816e+00	   8.1497141e-01	
   8.7175000e+01	   1.0873160e+00	   7.1126531e-01	
   8.7230000e+01	   9.6167787e-01	   5.6080032e-01	
   8.7285000e+01	   1.1447317e+00	   6.4561098e-01	
   8.7340000e+01	   1.0055806e+00	   7.1555435e-01	
   8.7395000e+01	   6.0405862e-01	   4.8844829e-01	
   8.7450000e+01	   8.9790945e-01	   4.7670092e-01	
   8.7505000e+01	   7.5882293e-01	   3.4504885e-01	
   8.7560000e+01	   1.5111227e+00	   9.6822655e-01	
   8.7615000e+01	   1.4242014e+00	   9.3316360e-01	
   8.7670000e+01	   1.3828115e+00	   8.7717318e-01	
   8.7725000e+01	   1.1134918e+00	   7.3352691e-01	
   8.7780000e+01	   1.1986080e+00	   8.5449929e-01	
   8.7835000e+01	   1.2718140e+00	   8.4420829e-01	
   8.7890000e+01	   1.3244716e+00	   7.8259493e-01	
   8.7945000e+01	   8.4210676e-01	   5.7673630e-01	
   8.8000000e+01	   9.3353432e-01	   6.6530979e-01	
   8.8055000e+01	   1.2267879e+00	   7.4248031e-01	
   8.8110000e+01	   9.8442719e-01	   4.5513782e-01	
   8.8165000e+01	   7.7429563e-01	   4.1774668e-01	
   8.8220000e+01	   4.5033621e-01	   3.3355734e-01	
   8.8275000e+01	   1.4141277e+00	   7.6612403e-01	
   8.8330000e+01	   1.3888329e+00	   8.7987825e-01	
   8.8385000e+01	   1.1708806e+00	   7.7720753e-01	
   8.8440000e+01	   1.1921189e+00	   7.9513847e-01	
   8.8495000e+01	   1.2027108e+00	   8.5337201e-01	
   8.8550000e+01	   1.4794762e+00	   8.4799147e-01	
   8.8605000e+01	   1.1545878e+00	   8.9179891e-01	
   8.8660000e+01	   1.2027892e+00	   7.6574984e-01	
   8.8715000e+01	   1.0125150e+00	   6.4547449e-01	
   8.8770000e+01	   1.0921116e+00	   7.7827103e-01	
   8.8825000e+01	   9.5326665e-01	   5.4384566e-01	
   8.8880000e+01	   4.3163555e-01	   3.4811471e-01	
   8.8935000e+01	   6.3605570e-01	   4.2856918e-01	
   8.8990000e+01	   8.6279782e-01	   6.1513074e-01	
   8.9045000e+01	   1.2820265e+00	   8.6830639e-01	
   8.9100000e+01	   1.2434396e+00	   6.3841966e-01	
   8.9155000e+01	   1.1505304e+00	   7.5004368e-01	
   8.9210000e+01	   1.1166275e+00	   9.1615634e-01	
   8.9265000e+01	   1.3789659e+00	   9.0794064e-01	
   8.9320000e+01	   1.1433750e+00	   7.5923056e-01	
   8.9375000e+01	   1.0132500e+00	   7.3511923e-01	
   8.9430000e+01	   9.8039851e-01	   7.3264286e-01	
   8.9485000e+01	   9.0573248e-01	   5.5271709e-01	
   8.9540000e+01	   7.1983035e-01	   4.7008384e-01	
   8.9595000e+01	   6.8438838e-01	   3.8498912e-01	
   8.9650000e+01	   6.6891967e-01	   4.7927147e-01	
   8.9705000e+01	   9.3164474e-01	   7.2229239e-01	
   8.9760000e+01	   1.2367538e+00	   7.0830624e-01	
   8.9815000e+01	   9.9643535e-01	   6.8347830e-01	
   8.9870000e+01	   1.1008340e+00	   8.7182160e-01	
   8.9925000e+01	   1.0684353e+00	   9.8334393e-01	
   8.9980000e+01	   1.1451496e+00	   7.0632215e-01	
   9.0035000e+01	   1.0348693e+00	   6.4453096e-01	
   9.0090000e+01	   8.8855852e-01	   7.5807839e-01	
   9.0145000e+01	   6.4919216e-01	   5.2094269e-01	
   9.0200000e+01	   9.2812653e-01	   6.3714005e-01	
   9.0255000e+01	   6.9083649e-01	   4.1003761e-01	
   9.0310000e+01	   3.3747396e-01	   2.4493112e-01	
   9.0365000e+01	   4.3951486e-01	   4.0831820e-01	
   9.0420000e+01	   8.9701115e-01	   6.2708249e-01	
   9.0475000e+01	   1.0204975e+00	   7.1467516e-01	
   9.0530000e+01	   9.8884968e-01	   5.8122757e-01	
   9.0585000e+01	   1.2314778e+00	   8.4861305e-01	
   9.0640000e+01	   1.2379147e+00	   8.7455248e-01	
   9.0695000e+01	   1.1389971e+00	   7.4480176e-01	
   9.0750000e+01	   9.3987038e-01	   7.0173950e-01	
   9.0805000e+01	   1.2104244e+00	   8.1549431e-01	
   9.0860000e+01	   8.3218085e-01	   6.4685233e-01	
   9.0915000e+01	   7.3534272e-01	   4.6145972e-01	
   9.0970000e+01	   6.6768893e-01	   4.4182739e-01	
   9.1025000e+01	   4.9325331e-01	   4.0052868e-01	
   9.1080000e+01	   5.2498094e-01	   3.5201697e-01	
   9.1135000e+01	   6.6307170e-01	   4.4723448e-01	
   9.1190000e+01	   1.1971978e+00	   6.5619255e-01	
   9.1245000e+01	   1.2193773e+00	   7.9610681e-01	
   9.1300000e+01	   1.5232539e+00	   8.5116448e-01	
   9.1355000e+01	   1.2053714e+00	   8.7636446e-01	
   9.1410000e+01	   1.2072967e+00	   6.8829726e-01	
   9.1465000e+01	   9.7836630e-01	   6.6257398e-01	
   9.1520000e+01	   1.0935683e+00	   7.6864311e-01	
   9.1575000e+01	   1.0902599e+00	   6.3433510e-01	
   9.1630000e+01	   9.3834544e-01	   3.9212405e-01	
   9.1685000e+01	   6.0500295e-01	   3.5369758e-01	
   9.1740000e+01	   6.3854353e-01	   5.5185293e-01	
   9.1795000e+01	   8.8132502e-01	   5.5637797e-01	
   9.1850000e+01	   6.6098391e-01	   3.3571497e-01	
   9.1905000e+01	   7.1756341e-01	   3.7870372e-01	
   9.1960000e+01	   9.2206242e-01	   5.8448587e-01	
   9.2015000e+01	   1.3292909e+00	   7.7189646e-01	
   9.2070000e+01	   1.2335944e+00	   8.5863901e-01	
   9.2125000e+01	   1.0786046e+00	   5.7589859e-01	
   9.2180000e+01	   1.0442379e+00	   7.4444153e-01	
   9.2235000e+01	   1.1975903e+00	   7.9243562e-01	
   9.2290000e+01	   7.6970535e-01	   7.4821088e-01	
   9.2345000e+01	   9.2787498e-01	   6.8169368e-01	
   9.2400000e+01	   5.0044877e-01	   3.2466560e-01	
   9.2455000e+01	   4.0676309e-01	   4.9106986e-01	
   9.2510000e+01	   6.3930155e-01	   4.9532372e-01	
   9.2565000e+01	   4.2230241e-01	   2.4902451e-01	
   9.2620000e+01	   5.4060140e-01	   3.7043539e-01	
   9.2675000e+01	   1.0481060e+00	   5.4466934e-01	
   9.2730000e+01	   1.1482369e+00	   8.2010543e-01	
   9.2785000e+01	   1.2619538e+00	   7.4167851e-01	
   9.2840000e+01	   1.0173793e+00	   7.2523991e-01	
   9.2895000e+01	   1.0002433e+00	   5.4550275e-01	
   9.2950000e+01	   1.0060525e+00	   7.2122286e-01	
   9.3005000e+01	   8.4007960e-01	   6.1081540e-01	
   9.3060000e+01	   7.1565322e-01	   5.2741674e-01	
   9.3115000e+01	   5.5830001e-01	   5.1407967e-01	
   9.3170000e+01	   7.6900770e-01	   5.3445405e-01	
   9.3225000e+01	   5.1572787e-01	   4.1065132e-01	
   9.3280000e+01	   4.7303907e-01	   2.6425652e-01	
   9.3335000e+01	   6.5676068e-01	   4.1018028e-01	
   9.3390000e+01	   9.3538972e-01	   7.3715540e-01	
   9.3445000e+01	   1.0357861e+00	   6.2716603e-01	
   9.3500000e+01	   8.2405070e-01	   6.5564290e-01	
   9.3555000e+01	   8.9202897e-01	   6.1032902e-01	
   9.3610000e+01	   1.3027948e+00	   9.1010259e-01	
   9.3665000e+01	   8.7524697e-01	   5.7758299e-01	
   9.3720000e+01	   7.8305826e-01	   5.7750437e-01	
   9.3775000e+01	   6.5602273e-01	   4.1155140e-01	
   9.3830000e+01	   7.3679542e-01	   4.2087423e-01	
   9.3885000e+01	   5.0956647e-01	   4.5127188e-01	
   9.3940000e+01	   4.6031451e-01	   2.4047200e-01	
   9.3995000e+01	   3.4993688e-01	   1.4712830e-01	
   9.4050000e+01	   8.9230045e-01	   5.9972817e-01	
   9.4105000e+01	   1.1753480e+00	   7.3958826e-01	
   9.4160000e+01	   1.4084207e+00	   7.6858069e-01	
   9.4215000e+01	   1.0562494e+00	   7.0910853e-01	
   9.4270000e+01	   1.0074318e+00	   6.8096646e-01	
   9.4325000e+01	   9.0520326e-01	   5.4516347e-01	
   9.4380000e+01	   9.4128731e-01	   5.8444896e-01	
   9.4435000e+01	   9.5440151e-01	   5.4548268e-01	
   9.4490000e+01	   8.0260823e-01	   5.3799342e-01	
   9.4545000e+01	   8.5131705e-01	   6.2634477e-01	
   9.4600000e+01	   5.6422919e-01	   4.1893386e-01	
   9.4655000e+01	   6.3004868e-01	   3.9871827e-01	
   9.4710000e+01	   9.4396197e-01	   6.2858489e-01	
   9.4765000e+01	   1.0521680e+00	   6.9549623e-01	
   9.4820000e+01	   1.4096223e+00	   9.4684349e-01	
   9.4875000e+01	   1.2993345e+00	   7.5663145e-01	
   9.4930000e+01	   1.2617975e+00	   7.4095493e-01	
   9.4985000e+01	   1.1754975e+00	   7.6567827e-01	
   9.5040000e+01	   1.3316642e+00	   8.3358071e-01	
   9.5095000e+01	   1.0876731e+00	   8.2625276e-01	
   9.5150000e+01	   7.5004179e-01	   4.7991483e-01	
   9.5205000e+01	   7.1555299e-01	   5.6091483e-01	
   9.5260000e+01	   8.9866442e-01	   7.0259775e-01	
   9.5315000e+01	   8.3872875e-01	   4.9007647e-01	
   9.5370000e+01	   6.7264531e-01	   3.6194390e-01	
   9.5425000e+01	   1.0385966e+00	   6.2334456e-01	
   9.5480000e+01	   1.5716891e+00	   9.1602942e-01	
   9.5535000e+01	   1.4975606e+00	   8.7925105e-01	
   9.5590000e+01	   1.3680061e+00	   9.2986961e-01	
   9.5645000e+01	   1.3268220e+00	   7.9321716e-01	
   9.5700000e+01	   1.4680058e+00	   9.6766579e-01	
   9.5755000e+01	   1.5928192e+00	   9.2718894e-01	
   9.5810000e+01	   1.1786355e+00	   7.2276545e-01	
   9.5865000e+01	   1.2448529e+00	   6.4521273e-01	
   9.5920000e+01	   1.0620839e+00	   7.3044657e-01	
   9.5975000e+01	   9.7405909e-01	   5.0675046e-01	
   9.6030000e+01	   8.0075496e-01	   4.5350719e-01	
   9.6085000e+01	   8.4276395e-01	   3.9546474e-01	
   9.6140000e+01	   1.0560273e+00	   5.7527047e-01	
   9.6195000e+01	   1.3510033e+00	   8.7324107e-01	
   9.6250000e+01	   1.5630953e+00	   7.7520668e-01	
   9.6305000e+01	   1.0957169e+00	   7.0699683e-01	
   9.6360000e+01	   1.3921257e+00	   6.6301561e-01	
   9.6415000e+01	   1.1541026e+00	   6.9663092e-01	
   9.6470000e+01	   1.4739406e+00	   7.9413311e-01	
   9.6525000e+01	   1.1655709e+00	   5.5949199e-01	
   9.6580000e+01	   1.2046201e+00	   7.7715118e-01	
   9.6635000e+01	   1.0930453e+00	   5.6877414e-01	
   9.6690000e+01	   1.1184585e+00	   6.7518154e-01	
   9.6745000e+01	   7.2239746e-01	   1.9908858e-01	
   9.6800000e+01	   4.7694661e-01	   2.2550251e-01	
   9.6855000e+01	   1.0393455e+00	   4.7730341e-01	
   9.6910000e+01	   1.1990005e+00	   6.6054890e-01	
   9.6965000e+01	   1.2164615e+00	   7.9342043e-01	
   9.7020000e+01	   1.2629343e+00	   6.2124512e-01	
   9.7075000e+01	   1.2937245e+00	   7.7927561e-01	
   9.7130000e+01	   1.3197656e+00	   5.6314991e-01	
   9.7185000e+01	   1.1051485e+00	   5.6526253e-01	
   9.7240000e+01	   1.0768579e+00	   5.0627540e-01	
   9.7295000e+01	   9.1110771e-01	   6.4468599e-01	
   9.7350000e+01	   9.4854057e-01	   6.3820035e-01	
   9.7405000e+01	   9.7969727e-01	   5.2739348e-01	
   9.7460000e+01	   5.5951488e-01	   3.5899785e-01	
   9.7515000e+01	   6.6243432e-01	   2.7923049e-01	
   9.7570000e+01	   7.5857546e-01	   6.3302836e-01	
   9.7625000e+01	   1.3306289e+00	   6.4730473e-01	
   9.7680000e+01	   1.0730359e+00	   7.7720186e-01	
   9.7735000e+01	   1.0690178e+00	   5.5821551e-01	
   9.7790000e+01	   1.1323299e+00	   6.3073434e-01	
   9.7845000e+01	   1.1418716e+00	   7.1431868e-01	
   9.7900000e+01	   8.8563567e-01	   4.9622692e-01	
   9.7955000e+01	   8.5290735e-01	   4.6631190e-01	
   9.8010000e+01	   8.6637144e-01	   4.8705581e-01	
   9.8065000e+01	   8.6465320e-01	   5.0667917e-01	
   9.8120000e+01	   6.6321612e-01	   1.8378699e-01	
   9.8175000e+01	   2.9788874e-01	   2.3044827e-01	
   9.8230000e+01	   9.9527412e-01	   5.7098167e-01	
   9.8285000e+01	   1.1539782e+00	   6.4285330e-01	
   9.8340000e+01	   1.0904575e+00	   5.5607287e-01	
   9.8395000e+01	   1.0713242e+00	   6.4481630e-01	
   9.8450000e+01	   1.0358245e+00	   6.2223608e-01	
   9.8505000e+01	   1.2478613e+00	   7.0490068e-01	
   9.8560000e+01	   1.0805122e+00	   5.2587347e-01	
   9.8615000e+01	   1.0015897e+00	   5.0973227e-01	
   9.8670000e+01	   7.5536170e-01	   5.2955224e-01	
   9.8725000e+01	   6.1289885e-01	   3.7151511e-01	
   9.8780000e+01	   9.5447464e-01	   3.7233100e-01	
   9.8835000e+01	   2.7235531e-01	   1.5830232e-01	
   9.8890000e+01	   2.6865653e-01	   1.9424030e-01	
   9.8945000e+01	   9.7095027e-01	   5.8094129e-01	
   9.9000000e+01	   1.0427409e+00	   7.2042068e-01	
   9.9055000e+01	   1.0514000e+00	   5.7685372e-01	
   9.9110000e+01	   8.9891813e-01	   5.6519933e-01	
   9.9165000e+01	   1.0784259e+00	   5.6770334e-01	
   9.9220000e+01	   1.2166648e+00	   5.0456310e-01	
   9.9275000e+01	   8.2280648e-01	   5.7743225e-01	
   9.9330000e+01	   9.4983237e-01	   4.0323545e-01	
   9.9385000e+01	   9.3100574e-01	   5.4288191e-01	
   9.9440000e+01	   7.4426943e-01	   5.9368584e-01	
   9.9495000e+01	   5.2129155e-01	   3.6257408e-01	
   9.9550000e+01	   2.5857803e-01	   2.0860207e-03	
   9.9605000e+01	   5.5044977e-01	   2.3083019e-01	
   9.9660000e+01	   1.2932009e+00	   7.8921520e-01	
   9.9715000e+01	   9.7218142e-01	   7.0184490e-01	
   9.9770000e+01	   1.0490689e+00	   5.9186207e-01	
   9.9825000e+01	   1.0526045e+00	   3.9563348e-01	
   9.9880000e+01	   1.0702959e+00	   6.8614976e-01	
   9.9935000e+01	   9.2497045e-01	   5.4946698e-01	
   9.9990000e+01	   1.0098468e+00	   4.6422681e-01	
   1.0004500e+02	   9.8553425e-01	   3.6748535e-01	
   1.0010000e+02	   7.9168605e-01	   5.3016162e-01	
   1.0015500e+02	   6.7862842e-01	   4.1218828e-01	
   1.0021000e+02	   7.3591293e-01	   2.8833723e-01	
   1.0026500e+02	   4.1174432e-01	   1.6016974e-01	
   1.0032000e+02	   4.1429345e-01	   9.2845414e-02	
   1.0037500e+02	   1.0469793e+00	   4.3290749e-01	
   1.0043000e+02	   8.3709882e-01	   4.2329988e-01	
   1.0048500e+02	   1.0515650e+00	   6.2374423e-01	
   1.0054000e+02	   9.8478744e-01	   4.9758649e-01	
   1.0059500e+02	   1.0103875e+00	   6.3612665e-01	
   1.0065000e+02	   7.3064194e-01	   4.4084006e-01	
   1.0070500e+02	   6.1547075e-01	   4.5699878e-01	
   1.0076000e+02	   8.6938892e-01	   3.2190350e-01	
   1.0081500e+02	   8.4176688e-01	   3.7587106e-01	
   1.0087000e+02	   5.3486266e-01	   2.4760368e-01	
   1.0092500e+02	   3.3341467e-01	   6.7107561e-02	
   1.0098000e+02	   5.4366483e-01	   1.5993320e-01	
   1.0103500e+02	   8.4230582e-01	   4.8714906e-01	
   1.0109000e+02	   9.1231528e-01	   4.8005920e-01	
   1.0114500e+02	   9.7233202e-01	   4.9028942e-01	
   1.0120000e+02	   9.1561150e-01	   4.3690818e-01	
   1.0125500e+02	   9.0223820e-01	   5.8043731e-01	
   1.0131000e+02	   8.7043263e-01	   5.6500489e-01	
   1.0136500e+02	   7.0175863e-01	   3.3943958e-01	
   1.0142000e+02	   4.0390335e-01	   2.7137597e-01	
   1.0147500e+02	   4.3626312e-01	   1.3307665e-01	
   1.0153000e+02	   5.7755670e-01	   2.3338037e-01	
   1.0158500e+02	   2.8186664e-01	   1.3950038e-01	
   1.0164000e+02	   4.4689548e-01	   8.9084121e-02	
   1.0169500e+02	   6.4447098e-01	   4.9847818e-01	
   1.0175000e+02	   9.0977825e-01	   4.5411999e-01	
   1.0180500e+02	   9.2873574e-01	   4.4182807e-01	
   1.0186000e+02	   8.1428856e-01	   4.5161096e-01	
   1.0191500e+02	   9.7254348e-01	   4.9810014e-01	
   1.0197000e+02	   7.4952170e-01	   3.8034069e-01	
   1.0202500e+02	   7.5475358e-01	   5.7286889e-01	
   1.0208000e+02	   5.3639725e-01	   3.6610484e-01	
   1.0213500e+02	   3.6703864e-01	   2.2280691e-01	
   1.0219000e+02	   5.8082682e-01	   2.9043947e-01	
   1.0224500e+02	   7.5449479e-01	   3.0319522e-01	
   1.0230000e+02	   3.8166967e-01	   1.6801078e-01	
   1.0235500e+02	   1.0284902e+00	   3.7670420e-01	
   1.0241000e+02	   1.5520767e+00	   6.0339192e-01	
   1.0246500e+02	   1.1280831e+00	   6.2216836e-01	
   1.0252000e+02	   1.1081102e+00	   6.6437707e-01	
   1.0257500e+02	   1.3207904e+00	   6.1622512e-01	
   1.0263000e+02	   1.2876420e+00	   6.5967634e-01	
   1.0268500e+02	   9.2047068e-01	   6.3951857e-01	
   1.0274000e+02	   1.1460222e+00	   5.5986342e-01	
   1.0279500e+02	   1.0581243e+00	   4.3138771e-01	
   1.0285000e+02	   9.1517486e-01	   3.7773274e-01	
   1.0290500e+02	   7.9537913e-01	   3.6345397e-01	
   1.0296000e+02	   8.2607835e-01	   3.2561176e-01	
   1.0301500e+02	   1.3169600e+00	   6.3693629e-01	
   1.0307000e+02	   1.2701053e+00	   5.6634701e-01	
   1.0312500e+02	   1.4975455e+00	   7.3367624e-01	
   1.0318000e+02	   1.5749748e+00	   7.7849667e-01	
   1.0323500e+02	   1.1027657e+00	   4.5865358e-01	
   1.0329000e+02	   9.0790604e-01	   3.8805870e-01	
   1.0334500e+02	   1.2548347e+00	   7.5557323e-01	
   1.0340000e+02	   1.2404171e+00	   6.9147492e-01	
   1.0345500e+02	   7.9683224e-01	   3.2391200e-01	
   1.0351000e+02	   9.0704102e-01	   3.3745415e-01	
   1.0356500e+02	   9.1374138e-01	   4.4670169e-01	
   1.0362000e+02	   6.9465380e-01	   2.1721112e-01	
   1.0367500e+02	   1.2638804e+00	   4.3008083e-01	
   1.0373000e+02	   1.3164469e+00	   5.8796524e-01	
   1.0378500e+02	   1.3819704e+00	   5.9908437e-01	
   1.0384000e+02	   1.2521285e+00	   6.2497842e-01	
   1.0389500e+02	   1.4937092e+00	   7.3643546e-01	
   1.0395000e+02	   1.3247910e+00	   6.5518096e-01	
   1.0400500e+02	   9.9105282e-01	   4.8398741e-01	
   1.0406000e+02	   9.5834709e-01	   7.4736071e-01	
   1.0411500e+02	   1.3782227e+00	   7.0453831e-01	
   1.0417000e+02	   7.4759968e-01	   2.6141153e-01	
   1.0422500e+02	   7.5689717e-01	   3.7237248e-01	
   1.0428000e+02	   6.5293136e-01	   3.2468397e-01	
   1.0433500e+02	   8.2196492e-01	   5.0855197e-01	
   1.0439000e+02	   1.3000635e+00	   7.4978509e-01	
   1.0444500e+02	   1.1504460e+00	   6.1701698e-01	
   1.0450000e+02	   1.5434439e+00	   8.1581778e-01	
   1.0455500e+02	   1.2609112e+00	   7.5837709e-01	
   1.0461000e+02	   1.1556978e+00	   7.4669509e-01	
   1.0466500e+02	   8.6566230e-01	   5.7632350e-01	
   1.0472000e+02	   1.2820361e+00	   5.8109715e-01	
   1.0477500e+02	   1.0163488e+00	   6.4755543e-01	
   1.0483000e+02	   1.0901886e+00	   4.6896485e-01	
   1.0488500e+02	   7.1519862e-01	   3.6406912e-01	
   1.0494000e+02	   9.0858046e-01	   3.5603312e-01	
   1.0499500e+02	   1.3189892e+00	   5.0396508e-01	
   1.0505000e+02	   1.4614964e+00	   7.2736223e-01	
   1.0510500e+02	   1.5248820e+00	   7.1665710e-01	
   1.0516000e+02	   1.5663345e+00	   7.8297716e-01	
   1.0521500e+02	   1.3834163e+00	   7.5430000e-01	
   1.0527000e+02	   1.1936812e+00	   8.1644158e-01	
   1.0532500e+02	   9.1704585e-01	   4.6613934e-01	
   1.0538000e+02	   9.4413941e-01	   4.2200983e-01	
   1.0543500e+02	   1.0399218e+00	   5.9000925e-01	
   1.0549000e+02	   1.0230036e+00	   5.7875478e-01	
   1.0554500e+02	   7.2412748e-01	   2.8035523e-01	
   1.0560000e+02	   8.3161752e-01	   2.1564195e-01	
   1.0565500e+02	   1.4270052e+00	   6.7314745e-01	
   1.0571000e+02	   1.8397320e+00	   8.0770277e-01	
   1.0576500e+02	   1.5123443e+00	   8.6606338e-01	
   1.0582000e+02	   1.2707696e+00	   6.8071321e-01	
   1.0587500e+02	   1.4662508e+00	   7.1870847e-01	
   1.0593000e+02	   1.6388610e+00	   7.8509993e-01	
   1.0598500e+02	   1.3386918e+00	   7.6984159e-01	
   1.0604000e+02	   1.0530337e+00	   5.6311040e-01	
   1.0609500e+02	   1.2249204e+00	   6.8055454e-01	
   1.0615000e+02	   1.2485362e+00	   6.9671151e-01	
   1.0620500e+02	   1.2402746e+00	   6.1655715e-01	
   1.0626000e+02	   8.0170535e-01	   2.8539921e-01	
   1.0631500e+02	   1.1403620e+00	   3.7744009e-01	
   1.0637000e+02	   1.7592689e+00	   8.3937839e-01	
   1.0642500e+02	   1.8926973e+00	   8.2110911e-01	
   1.0648000e+02	   1.6297076e+00	   8.7843176e-01	
   1.0653500e+02	   1.9021707e+00	   9.1615350e-01	
   1.0659000e+02	   1.5867084e+00	   7.2299553e-01	
   1.0664500e+02	   1.6503775e+00	   9.4370528e-01	
   1.0670000e+02	   1.3082622e+00	   5.8844280e-01	
   1.0675500e+02	   1.6924276e+00	   6.0733070e-01	
   1.0681000e+02	   1.4572331e+00	   6.6175818e-01	
   1.0686500e+02	   1.3565479e+00	   6.5649397e-01	
   1.0692000e+02	   1.3052958e+00	   4.7938883e-01	
   1.0697500e+02	   9.8013764e-01	   3.0631219e-01	
   1.0703000e+02	   1.1927286e+00	   3.2980857e-01	
   1.0708500e+02	   1.6510770e+00	   7.2076466e-01	
   1.0714000e+02	   1.8003942e+00	   7.9293354e-01	
   1.0719500e+02	   1.5999231e+00	   7.9162423e-01	
   1.0725000e+02	   1.6918055e+00	   8.1419811e-01	
   1.0730500e+02	   1.7947647e+00	   9.0424829e-01	
   1.0736000e+02	   1.6221022e+00	   7.5015331e-01	
   1.0741500e+02	   1.7156716e+00	   7.2240635e-01	
   1.0747000e+02	   1.5139360e+00	   6.4165343e-01	
   1.0752500e+02	   1.5426468e+00	   6.2593590e-01	
   1.0758000e+02	   1.3075409e+00	   4.8679622e-01	
   1.0763500e+02	   1.1566288e+00	   4.7100027e-01	
   1.0769000e+02	   1.3130954e+00	   4.7699152e-01	
   1.0774500e+02	   1.2057570e+00	   3.5677024e-01	
   1.0780000e+02	   1.4781017e+00	   6.5784425e-01	
   1.0785500e+02	   1.5857290e+00	   8.3474933e-01	
   1.0791000e+02	   1.6703326e+00	   6.6465283e-01	
   1.0796500e+02	   1.8183655e+00	   8.1251228e-01	
   1.0802000e+02	   1.6727915e+00	   8.8061717e-01	
   1.0807500e+02	   1.7541103e+00	   8.1936280e-01	
   1.0813000e+02	   1.5737596e+00	   6.6793582e-01	
   1.0818500e+02	   1.5438842e+00	   6.6741874e-01	
   1.0824000e+02	   1.5894579e+00	   6.6787388e-01	
   1.0829500e+02	   1.3879074e+00	   4.7737715e-01	
   1.0835000e+02	   1.1971831e+00	   4.7879233e-01	
   1.0840500e+02	   1.1472906e+00	   4.4362177e-01	
   1.0846000e+02	   1.0289777e+00	   4.5553162e-01	
   1.0851500e+02	   1.3316009e+00	   4.5053970e-01	
   1.0857000e+02	   1.5747004e+00	   6.1575378e-01	
   1.0862500e+02	   1.4662141e+00	   6.6324142e-01	
   1.0868000e+02	   1.8335062e+00	   8.8189225e-01	
   1.0873500e+02	   1.7564961e+00	   7.8816481e-01	
   1.0879000e+02	   1.3858071e+00	   4.7406973e-01	
   1.0884500e+02	   9.9176695e-01	   4.8899132e-01	
   1.0890000e+02	   1.3954611e+00	   6.9467595e-01	
   1.0895500e+02	   1.2207616e+00	   5.6833281e-01	
   1.0901000e+02	   8.0283084e-01	   4.0627906e-01	
   1.0906500e+02	   9.3110998e-01	   4.5328294e-01	
   1.0912000e+02	   6.1796369e-01	   4.3139879e-01	
   1.0917500e+02	   9.8500970e-01	   4.3706345e-01	
   1.0923000e+02	   1.3233135e+00	   5.9751118e-01	
   1.0928500e+02	   1.3581689e+00	   6.5182522e-01	
   1.0934000e+02	   1.4152111e+00	   4.9551170e-01	
   1.0939500e+02	   1.5022298e+00	   6.4993648e-01	
   1.0945000e+02	   1.4602755e+00	   5.8204241e-01	
   1.0950500e+02	   1.2643924e+00	   5.0492630e-01	
   1.0956000e+02	   1.0705898e+00	   5.8418044e-01	
   1.0961500e+02	   1.3357425e+00	   6.2246124e-01	
   1.0967000e+02	   1.2695929e+00	   3.8219621e-01	
   1.0972500e+02	   9.1419260e-01	   2.8028522e-01	
   1.0978000e+02	   7.0241091e-01	   2.4224946e-01	
   1.0983500e+02	   8.6588727e-01	   2.7275712e-01	
   1.0989000e+02	   1.2852461e+00	   5.8358570e-01	
   1.0994500e+02	   1.4790844e+00	   4.8698392e-01	
   1.1000000e+02	   1.5354335e+00	   6.8700472e-01	
   1.1005500e+02	   1.4670177e+00	   6.0255452e-01	
   1.1011000e+02	   1.1779471e+00	   6.1164540e-01	
   1.1016500e+02	   1.2382892e+00	   5.0504748e-01	
   1.1022000e+02	   1.4017004e+00	   7.0122246e-01	
   1.1027500e+02	   1.1105595e+00	   4.8473528e-01	
   1.1033000e+02	   1.1373422e+00	   4.8413592e-01	
   1.1038500e+02	   1.0534048e+00	   3.0342581e-01	
   1.1044000e+02	   7.3246806e-01	   1.7863318e-01	
   1.1049500e+02	   9.5847913e-01	   2.5934832e-01	
   1.1055000e+02	   8.3496416e-01	   3.9667615e-01	
   1.1060500e+02	   1.3018052e+00	   5.7826035e-01	
   1.1066000e+02	   1.3419360e+00	   5.8671015e-01	
   1.1071500e+02	   1.4284979e+00	   6.9638490e-01	
   1.1077000e+02	   1.6309545e+00	   8.8039038e-01	
   1.1082500e+02	   1.2613958e+00	   6.3096026e-01	
   1.1088000e+02	   1.2389804e+00	   5.0158505e-01	
   1.1093500e+02	   1.2141848e+00	   4.5464740e-01	
   1.1099000e+02	   1.3252458e+00	   6.5606091e-01	
   1.1104500e+02	   1.5742269e+00	   6.6575722e-01	
   1.1110000e+02	   8.7606422e-01	   3.7494398e-01	
   1.1115500e+02	   7.2984287e-01	   2.7091811e-01	
   1.1121000e+02	   7.6126091e-01	   1.4600721e-01	
   1.1126500e+02	   8.0577149e-01	   1.3876059e-01	
   1.1132000e+02	   1.4048397e+00	   4.5373631e-01	
   1.1137500e+02	   1.3925687e+00	   4.9419130e-01	
   1.1143000e+02	   1.3447159e+00	   4.5263978e-01	
   1.1148500e+02	   1.5145471e+00	   6.4258126e-01	
   1.1154000e+02	   1.3457994e+00	   6.5362327e-01	
   1.1159500e+02	   1.1421945e+00	   4.6355672e-01	
   1.1165000e+02	   1.1633764e+00	   5.4858620e-01	
   1.1170500e+02	   1.2619861e+00	   5.2076556e-01	
   1.1176000e+02	   1.0934800e+00	   4.8795188e-01	
   1.1181500e+02	   5.6311814e-01	   3.1716930e-01	
   1.1187000e+02	   7.9385641e-01	   3.3568744e-01	
   1.1192500e+02	   9.4337513e-01	   2.5354134e-01	
   1.1198000e+02	   4.2144400e-01	   9.0375643e-02	
   1.1203500e+02	   1.2011533e+00	   5.9566605e-01	
   1.1209000e+02	   1.0074750e+00	   4.0614753e-01	
   1.1214500e+02	   1.3059906e+00	   7.6496668e-01	
   1.1220000e+02	   1.2364055e+00	   5.9919856e-01	
   1.1225500e+02	   8.6414304e-01	   3.7709692e-01	
   1.1231000e+02	   1.0836731e+00	   3.8748841e-01	
   1.1236500e+02	   9.8458560e-01	   6.2322756e-01	
   1.1242000e+02	   8.6614919e-01	   5.6454304e-01	
   1.1247500e+02	   7.4420762e-01	   2.3456384e-01	
   1.1253000e+02	   5.7219723e-01	   1.7747751e-01	
   1.1258500e+02	   8.6701531e-01	   2.5741793e-01	
   1.1264000e+02	   4.5657648e-01	   4.8312906e-02	
   1.1269500e+02	   1.1062400e+00	   3.9756877e-01	
   1.1275000e+02	   8.6728556e-01	   4.9127000e-01	
   1.1280500e+02	   9.9829514e-01	   4.8683702e-01	
   1.1286000e+02	   9.3475744e-01	   5.0026336e-01	
   1.1291500e+02	   1.1286663e+00	   4.1069143e-01	
   1.1297000e+02	   9.1468555e-01	   4.2548432e-01	
   1.1302500e+02	   8.2621661e-01	   3.6440738e-01	
   1.1308000e+02	   8.0332765e-01	   4.2467366e-01	
   1.1313500e+02	   9.8177786e-01	   5.2522785e-01	
   1.1319000e+02	   4.6316594e-01	   2.2722733e-01	
   1.1324500e+02	   2.8979659e-01	  -2.3749797e-02	
   1.1330000e+02	   4.7729924e-01	   1.4948510e-01	
   1.1335500e+02	   8.8059481e-01	   3.9229735e-01	
   1.1341000e+02	   9.7077169e-01	   3.8100798e-01	
   1.1346500e+02	   1.1477180e+00	   5.5843721e-01	
   1.1352000e+02	   1.2868500e+00	   6.8742028e-01	
   1.1357500e+02	   1.0720900e+00	   5.8240486e-01	
   1.1363000e+02	   8.4670644e-01	   2.9726111e-01	
   1.1368500e+02	   9.5752068e-01	   4.5680930e-01	
   1.1374000e+02	   7.7161649e-01	   4.8290516e-01	
   1.1379500e+02	   7.7751034e-01	   3.0970272e-01	
   1.1385000e+02	   6.1825979e-01	   7.8643192e-02	
   1.1390500e+02	   3.4093110e-01	   6.0737039e-03	
   1.1396000e+02	   2.9468671e-01	   1.8072638e-02	
   1.1401500e+02	   3.0359415e-01	   6.1970097e-02	
   1.1407000e+02	   1.1744316e+00	   4.9357354e-01	
   1.1412500e+02	   1.1769396e+00	   5.3052779e-01	
   1.1418000e+02	   1.1906708e+00	   5.6187779e-01	
   1.1423500e+02	   1.2483487e+00	   5.8495936e-01	
   1.1429000e+02	   1.2760575e+00	   4.7742909e-01	
   1.1434500e+02	   9.8582414e-01	   4.1795984e-01	
   1.1440000e+02	   8.8060796e-01	   4.8235398e-01	
   1.1445500e+02	   1.1609520e+00	   5.3761824e-01	
   1.1451000e+02	   9.4310486e-01	   4.9704812e-01	
   1.1456500e+02	   6.8522247e-01	   2.0514658e-01	
   1.1462000e+02	   8.2472715e-01	   2.2181740e-01	
   1.1467500e+02	   5.7137753e-01	   1.4638773e-01	
   1.1473000e+02	   6.1868112e-01	   2.5341225e-01	
   1.1478500e+02	   9.5144739e-01	   3.4959264e-01	
   1.1484000e+02	   1.2282507e+00	   4.9776378e-01	
   1.1489500e+02	   1.4216393e+00	   6.6162601e-01	
   1.1495000e+02	   1.2842440e+00	   5.8745865e-01	
   1.1500500e+02	   1.3161798e+00	   5.4566656e-01	
   1.1506000e+02	   1.4474031e+00	   6.1073300e-01	
   1.1511500e+02	   1.3913600e+00	   6.9227610e-01	
   1.1517000e+02	   1.4784125e+00	   7.3347558e-01	
   1.1522500e+02	   1.2566111e+00	   4.5955341e-01	
   1.1528000e+02	   1.2298509e+00	   4.3328844e-01	
   1.1533500e+02	   1.0189409e+00	   2.7330792e-01	
   1.1539000e+02	   1.0298180e+00	   3.8106781e-01	
   1.1544500e+02	   9.6844924e-01	   2.7036927e-01	
   1.1550000e+02	   8.8637604e-01	   1.3865992e-01	
   1.1555500e+02	   1.0477748e+00	   3.8035491e-01	
   1.1561000e+02	   1.6212017e+00	   6.5125526e-01	
   1.1566500e+02	   1.6914934e+00	   5.8761946e-01	
   1.1572000e+02	   1.2629392e+00	   5.6301405e-01	
   1.1577500e+02	   1.1467287e+00	   6.7269160e-01	
   1.1583000e+02	   1.2940702e+00	   6.6536921e-01	
   1.1588500e+02	   1.2620454e+00	   7.6500970e-01	
   1.1594000e+02	   1.2643924e+00	   5.8046565e-01	
   1.1599500e+02	   1.1193132e+00	   4.3271010e-01	
   1.1605000e+02	   1.0377031e+00	   3.7796687e-01	
   1.1610500e+02	   9.4381315e-01	   4.5190149e-01	
   1.1616000e+02	   9.3488763e-01	   3.6063678e-01	
   1.1621500e+02	   5.4538439e-01	   1.7055813e-01	
   1.1627000e+02	   1.0237449e+00	   3.4358461e-01	
   1.1632500e+02	   1.2104403e+00	   5.3593245e-01	
   1.1638000e+02	   1.3882081e+00	   4.5262767e-01	
   1.1643500e+02	   1.4315810e+00	   4.4164028e-01	
   1.1649000e+02	   1.1928978e+00	   6.4015702e-01	
   1.1654500e+02	   1.3462007e+00	   6.6013336e-01	
   1.1660000e+02	   1.2260761e+00	   4.8143088e-01	
   1.1665500e+02	   1.2022674e+00	   4.9028569e-01	
   1.1671000e+02	   7.9404532e-01	   2.1510482e-01	
   1.1676500e+02	   9.7104040e-01	   4.3130344e-01	
   1.1682000e+02	   1.1787948e+00	   3.6848796e-01	
   1.1687500e+02	   8.3722937e-01	   1.7215023e-01	
   1.1693000e+02	   8.4798467e-01	   6.5747700e-02	
   1.1698500e+02	   6.8717225e-01	   2.3585665e-01	
   1.1704000e+02	   1.4049234e+00	   4.5845225e-01	
   1.1709500e+02	   1.0791702e+00	   1.8307054e-01	
   1.1715000e+02	   1.2732477e+00	   3.2570051e-01	
   1.1720500e+02	   1.3479461e+00	   4.5597251e-01	
   1.1726000e+02	   1.2766073e+00	   3.8724780e-01	
   1.1731500e+02	   1.1352401e+00	   5.0697883e-01	
   1.1737000e+02	   9.4314636e-01	   2.7723800e-01	
   1.1742500e+02	   8.4218119e-01	   4.1793081e-01	
   1.1748000e+02	   9.9750273e-01	   2.7657695e-01	
   1.1753500e+02	   8.4999945e-01	   2.1329043e-01	
   1.1759000e+02	   5.8480342e-01	   1.1745831e-01	
   1.1764500e+02	   5.3939273e-01	   1.5118231e-01	
   1.1770000e+02	   6.5108141e-01	   1.7738212e-01	
   1.1775500e+02	   9.5723644e-01	   2.8554741e-01	
   1.1781000e+02	   1.2305447e+00	   3.7185096e-01	
   1.1786500e+02	   1.0887518e+00	   4.6372743e-01	
   1.1792000e+02	   1.2700078e+00	   5.9988944e-01	
   1.1797500e+02	   1.2667801e+00	   5.3422604e-01	
   1.1803000e+02	   1.1464514e+00	   3.3956293e-01	
   1.1808500e+02	   1.0948078e+00	   3.9758587e-01	
   1.1814000e+02	   1.1012566e+00	   4.2420500e-01	
   1.1819500e+02	   1.1685781e+00	   3.8719636e-01	
   1.1825000e+02	   9.0553155e-01	   2.2096476e-01	
   1.1830500e+02	   1.0084979e+00	   1.6789597e-01	
   1.1836000e+02	   5.3602023e-01	   5.4668018e-02	
   1.1841500e+02	   8.8108454e-01	   2.6490613e-01	
   1.1847000e+02	   1.0614792e+00	   4.1977099e-01	
   1.1852500e+02	   1.3307454e+00	   4.6316498e-01	
   1.1858000e+02	   1.4112088e+00	   5.0224013e-01	
   1.1863500e+02	   1.5513957e+00	   7.1811713e-01	
   1.1869000e+02	   1.3861341e+00	   6.5076929e-01	
   1.1874500e+02	   1.3824384e+00	   4.9234000e-01	
   1.1880000e+02	   1.2731746e+00	   4.7140572e-01	
   1.1885500e+02	   1.2455603e+00	   4.4474686e-01	
   1.1891000e+02	   1.2680211e+00	   3.8824507e-01	
   1.1896500e+02	   1.1413279e+00	   3.3495765e-01	
   1.1902000e+02	   1.2065985e+00	   2.1272131e-01	
   1.1907500e+02	   9.2988526e-01	   2.1699275e-01	
   1.1913000e+02	   8.9989139e-01	   1.3801850e-01	
   1.1918500e+02	   1.1967656e+00	   3.0112899e-01	
   1.1924000e+02	   1.5329294e+00	   4.6687062e-01	
   1.1929500e+02	   1.7255192e+00	   6.4293666e-01	
   1.1935000e+02	   1.6018914e+00	   6.1079524e-01	
   1.1940500e+02	   1.5312855e+00	   6.2464913e-01	
   1.1946000e+02	   1.6077523e+00	   4.4930398e-01	
   1.1951500e+02	   1.6106310e+00	   6.2515006e-01	
   1.1957000e+02	   1.4388406e+00	   4.1250390e-01	
   1.1962500e+02	   1.1268420e+00	   4.5674657e-01	
   1.1968000e+02	   8.7294705e-01	   2.7241585e-01	
   1.1973500e+02	   1.0638572e+00	   1.7734367e-01	
   1.1979000e+02	   1.1955258e+00	   2.5219337e-01	
   1.1984500e+02	   1.2033747e+00	   3.7930083e-01	
   1.1990000e+02	   1.3659231e+00	   4.0746148e-01	
   1.1995500e+02	   1.3302346e+00	   5.7944559e-01	
   1.2001000e+02	   1.3778099e+00	   7.7755493e-01	
   1.2006500e+02	   1.2462887e+00	   5.9208163e-01	
   1.2012000e+02	   1.1379894e+00	   3.8101240e-01	
   1.2017500e+02	   1.1824234e+00	   4.8769258e-01	
   1.2023000e+02	   9.3560793e-01	   3.8757462e-01	
   1.2028500e+02	   1.2298567e+00	   4.2561275e-01	
   1.2034000e+02	   9.9353461e-01	   2.7994678e-01	
   1.2039500e+02	   6.7268758e-01	   3.0874593e-01	
   1.2045000e+02	   7.5961365e-01	   2.6726961e-01	
   1.2050500e+02	   9.0447874e-01	   3.1210132e-01	
   1.2056000e+02	   1.3076033e+00	   5.4599742e-01	
   1.2061500e+02	   9.8181164e-01	   3.2646517e-01	
   1.2067000e+02	   1.3057466e+00	   5.6245114e-01	
   1.2072500e+02	   1.1938556e+00	   5.8720900e-01	
   1.2078000e+02	   1.2870153e+00	   5.3237082e-01	
   1.2083500e+02	   1.1878211e+00	   4.8148754e-01	
   1.2089000e+02	   9.8787998e-01	   4.6676543e-01	
   1.2094500e+02	   1.1947555e+00	   5.2534640e-01	
   1.2100000e+02	   8.4052258e-01	   2.3934728e-01	
   1.2105500e+02	   8.7827209e-01	   2.8576998e-01	
   1.2111000e+02	   8.9880206e-01	   2.8639053e-01	
   1.2116500e+02	   1.4180556e+00	   5.5500841e-01	
   1.2122000e+02	   1.3490135e+00	   5.6600580e-01	
   1.2127500e+02	   1.5872617e+00	   6.2573604e-01	
   1.2133000e+02	   1.5105731e+00	   4.9362451e-01	
   1.2138500e+02	   1.3127859e+00	   6.4163111e-01	
   1.2144000e+02	   1.3881047e+00	   5.2646637e-01	
   1.2149500e+02	   1.1248517e+00	   4.2351615e-01	
   1.2155000e+02	   1.1110475e+00	   4.2853497e-01	
   1.2160500e+02	   9.0324910e-01	   4.2745761e-01	
   1.2166000e+02	   1.1589783e+00	   5.1769065e-01	
   1.2171500e+02	   9.2787467e-01	   2.4293541e-01	
   1.2177000e+02	   7.9694051e-01	   2.4226238e-01	
   1.2182500e+02	   1.5479783e+00	   7.3146084e-01	
   1.2188000e+02	   1.5810128e+00	   7.5512244e-01	
   1.2193500e+02	   1.9176737e+00	   6.6764203e-01	
   1.2199000e+02	   1.5647635e+00	   5.7604451e-01	
   1.2204500e+02	   1.4035521e+00	   5.7401783e-01	
   1.2210000e+02	   1.7543531e+00	   7.8742073e-01	
   1.2215500e+02	   1.3469233e+00	   6.0009812e-01	
   1.2221000e+02	   1.4408543e+00	   4.9814485e-01	
   1.2226500e+02	   1.2247097e+00	   3.3622110e-01	
   1.2232000e+02	   1.3601281e+00	   4.2797114e-01	
   1.2237500e+02	   1.2402306e+00	   5.0477787e-01	
   1.2243000e+02	   1.0959771e+00	   3.0090946e-01	
   1.2248500e+02	   1.5441526e+00	   6.2721886e-01	
   1.2254000e+02	   1.8016006e+00	   8.2437104e-01	
   1.2259500e+02	   1.6365665e+00	   6.8099902e-01	
   1.2265000e+02	   1.4716997e+00	   4.9895800e-01	
   1.2270500e+02	   1.4929697e+00	   7.4371482e-01	
   1.2276000e+02	   1.6880584e+00	   6.0630193e-01	
   1.2281500e+02	   1.7448482e+00	   7.0653762e-01	
   1.2287000e+02	   1.7626320e+00	   5.0563749e-01	
   1.2292500e+02	   1.5245739e+00	   6.1987442e-01	
   1.2298000e+02	   1.2138961e+00	   5.2474539e-01	
   1.2303500e+02	   1.2249137e+00	   2.7770951e-01	
   1.2309000e+02	   1.0677966e+00	   3.2926192e-01	
   1.2314500e+02	   1.2929501e+00	   2.9409090e-01	
   1.2320000e+02	   1.5084865e+00	   7.0084228e-01	
   1.2325500e+02	   1.4131312e+00	   7.0814333e-01	
   1.2331000e+02	   1.6938644e+00	   8.3739747e-01	
   1.2336500e+02	   1.2773030e+00	   4.9422124e-01	
   1.2342000e+02	   1.1699099e+00	   6.3138437e-01	
   1.2347500e+02	   1.6529980e+00	   7.4305991e-01	
   1.2353000e+02	   1.3477421e+00	   6.0683383e-01	
   1.2358500e+02	   1.0997084e+00	   3.8663596e-01	
   1.2364000e+02	   1.1558675e+00	   3.7404326e-01	
   1.2369500e+02	   1.3155737e+00	   5.3467785e-01	
   1.2375000e+02	   9.9691207e-01	   3.5670925e-01	
   1.2380500e+02	   1.3192195e+00	   3.6244356e-01	
   1.2386000e+02	   1.4282802e+00	   5.1442537e-01	
   1.2391500e+02	   1.4618993e+00	   5.3894596e-01	
   1.2397000e+02	   1.4929358e+00	   7.5509115e-01	
   1.2402500e+02	   1.1132685e+00	   4.5623757e-01	
   1.2408000e+02	   1.2557462e+00	   6.9146788e-01	
   1.2413500e+02	   1.0294729e+00	   6.0441143e-01	
   1.2419000e+02	   1.1577293e+00	   7.4651918e-01	
   1.2424500e+02	   1.0716148e+00	   5.4685470e-01	
   1.2430000e+02	   7.2124953e-01	   2.9997883e-01	
   1.2435500e+02	   6.1323367e-01	   2.5501356e-01	
   1.2441000e+02	   8.5730402e-01	   5.0450644e-01	
   1.2446500e+02	   1.2194863e+00	   6.0335879e-01	
   1.2452000e+02	   7.2680681e-01	   4.4569337e-01	
   1.2457500e+02	   9.8218241e-01	   5.9667971e-01	
   1.2463000e+02	   1.2656894e+00	   7.1712205e-01	
   1.2468500e+02	   1.3164189e+00	   6.0319605e-01	
   1.2474000e+02	   1.1862149e+00	   4.8890081e-01	
   1.2479500e+02	   1.1096809e+00	   5.0440111e-01	
   1.2485000e+02	   1.1426978e+00	   5.8798946e-01	
   1.2490500e+02	   1.0201703e+00	   4.0801356e-01	
   1.2496000e+02	   9.7528199e-01	   3.6325156e-01	
   1.2501500e+02	   4.7311389e-01	   1.0675563e-01	
   1.2507000e+02	   7.2530482e-01	   2.7938735e-01	
   1.2512500e+02	   9.7467747e-01	   4.4565545e-01	
   1.2518000e+02	   1.1885908e+00	   4.6792449e-01	
   1.2523500e+02	   1.2778538e+00	   5.4330451e-01	
   1.2529000e+02	   1.1485765e+00	   6.5586365e-01	
   1.2534500e+02	   1.1124050e+00	   7.6764708e-01	
   1.2540000e+02	   1.2351547e+00	   6.0496986e-01	
   1.2545500e+02	   1.2494437e+00	   6.3054731e-01	
   1.2551000e+02	   4.9277463e-01	   4.6520684e-01	
   1.2556500e+02	   9.0131535e-01	   5.0237390e-01	
   1.2562000e+02	   8.5533368e-01	   4.6668355e-01	
   1.2567500e+02	   6.0201347e-01	   3.2688884e-01	
   1.2573000e+02	   5.9406534e-01	   3.7287374e-01	
   1.2578500e+02	   6.0051209e-01	   2.0818035e-01	
   1.2584000e+02	   1.1768409e+00	   6.8268701e-01	
   1.2589500e+02	   1.0364858e+00	   6.1666282e-01	
   1.2595000e+02	   1.4924963e+00	   6.5730309e-01	
   1.2600500e+02	   1.1460127e+00	   6.2183283e-01	
   1.2606000e+02	   1.4368426e+00	   7.8845998e-01	
   1.2611500e+02	   9.3415453e-01	   4.7902705e-01	
   1.2617000e+02	   1.1921939e+00	   4.1030448e-01	
   1.2622500e+02	   9.4200772e-01	   3.6463979e-01	
   1.2628000e+02	   1.2378268e+00	   5.0691939e-01	
   1.2633500e+02	   9.1393523e-01	   3.4083921e-01	
   1.2639000e+02	   8.1295309e-01	   2.8771721e-01	
   1.2644500e+02	   6.8072435e-01	   3.4006144e-01	
   1.2650000e+02	   8.7037370e-01	   2.7184822e-01	
   1.2655500e+02	   1.4880165e+00	   5.4850582e-01	
   1.2661000e+02	   1.1829802e+00	   4.1822610e-01	
   1.2666500e+02	   1.3087284e+00	   6.2714596e-01	
   1.2672000e+02	   1.3887134e+00	   8.2311963e-01	
   1.2677500e+02	   1.1119555e+00	   5.0212979e-01	
   1.2683000e+02	   1.1369643e+00	   3.8914715e-01	
