	
0   3   6
   0.0000000e+00	   1.1814808e+01	   1.7958881e+00	
   5.5000000e-02	   1.1916945e+01	   1.7828692e+00	
   1.1000000e-01	   1.2136820e+01	   1.9111968e+00	
   1.6500000e-01	   1.1751360e+01	   1.5847352e+00	
   2.2000000e-01	   1.1396963e+01	   1.4902379e+00	
   2.7500000e-01	   1.1585072e+01	   1.4124293e+00	
   3.3000000e-01	   1.0927240e+01	   1.2826176e+00	
   3.8500000e-01	   1.1980824e+01	   2.0035922e+00	
   4.4000000e-01	   1.2311861e+01	   1.6952627e+00	
   4.9500000e-01	   1.1912896e+01	   1.9049208e+00	
   5.5000000e-01	   1.2050547e+01	   1.9147051e+00	
   6.0500000e-01	   1.2050457e+01	   1.8482190e+00	
   6.6000000e-01	   1.1906855e+01	   1.7689382e+00	
   7.1500000e-01	   1.1489488e+01	   1.6326689e+00	
   7.7000000e-01	   1.1722124e+01	   1.7739611e+00	
   8.2500000e-01	   1.2180689e+01	   1.6111956e+00	
   8.8000000e-01	   1.1845690e+01	   1.6071060e+00	
   9.3500000e-01	   1.1412906e+01	   1.4176969e+00	
   9.9000000e-01	   1.2431555e+01	   1.6878284e+00	
   1.0450000e+00	   1.2535196e+01	   1.8020076e+00	
   1.1000000e+00	   1.2399256e+01	   1.6495383e+00	
   1.1550000e+00	   1.1525036e+01	   1.6456336e+00	
   1.2100000e+00	   1.1467700e+01	   1.7459274e+00	
   1.2650000e+00	   1.2330512e+01	   1.9431240e+00	
   1.3200000e+00	   1.1860956e+01	   1.6206559e+00	
   1.3750000e+00	   1.1634466e+01	   1.4654200e+00	
   1.4300000e+00	   1.1726858e+01	   1.5438645e+00	
   1.4850000e+00	   1.1573214e+01	   1.6671725e+00	
   1.5400000e+00	   1.1912998e+01	   1.3630327e+00	
   1.5950000e+00	   1.2068602e+01	   1.4965715e+00	
   1.6500000e+00	   1.1984413e+01	   1.6533285e+00	
   1.7050000e+00	   1.1650706e+01	   1.6618465e+00	
   1.7600000e+00	   1.2242086e+01	   1.9277099e+00	
   1.8150000e+00	   1.2069691e+01	   1.7544947e+00	
   1.8700000e+00	   1.2247134e+01	   1.7519792e+00	
   1.9250000e+00	   1.2198896e+01	   1.7444724e+00	
   1.9800000e+00	   1.1849048e+01	   1.7778494e+00	
   2.0350000e+00	   1.1833541e+01	   1.6494404e+00	
   2.0900000e+00	   1.1649283e+01	   1.5484727e+00	
   2.1450000e+00	   1.1612393e+01	   1.3958724e+00	
   2.2000000e+00	   1.2164772e+01	   1.6437204e+00	
   2.2550000e+00	   1.2055956e+01	   1.9288131e+00	
   2.3100000e+00	   1.2169785e+01	   1.7713602e+00	
   2.3650000e+00	   1.2028259e+01	   1.7782939e+00	
   2.4200000e+00	   1.2391753e+01	   1.7403022e+00	
   2.4750000e+00	   1.2228753e+01	   1.6480643e+00	
   2.5300000e+00	   1.2033523e+01	   1.4942713e+00	
   2.5850000e+00	   1.1539749e+01	   1.3875375e+00	
   2.6400000e+00	   1.1758186e+01	   1.5942249e+00	
   2.6950000e+00	   1.2046043e+01	   1.6177461e+00	
   2.7500000e+00	   1.1387035e+01	   1.1318973e+00	
   2.8050000e+00	   1.1725074e+01	   1.4094924e+00	
   2.8600000e+00	   1.2019800e+01	   1.7002249e+00	
   2.9150000e+00	   1.2190503e+01	   1.8138178e+00	
   2.9700000e+00	   1.2059978e+01	   1.8135734e+00	
   3.0250000e+00	   1.1832116e+01	   1.6663642e+00	
   3.0800000e+00	   1.1786504e+01	   1.8169871e+00	
   3.1350000e+00	   1.2720623e+01	   1.8019026e+00	
   3.1900000e+00	   1.1829935e+01	   1.4563632e+00	
   3.2450000e+00	   1.1424860e+01	   1.5290574e+00	
   3.3000000e+00	   1.1922512e+01	   1.4384875e+00	
   3.3550000e+00	   1.1549982e+01	   1.3121243e+00	
   3.4100000e+00	   1.1126658e+01	   1.3861828e+00	
   3.4650000e+00	   1.1143801e+01	   1.4168338e+00	
   3.5200000e+00	   1.2044711e+01	   1.8071507e+00	
   3.5750000e+00	   1.2016982e+01	   1.8613595e+00	
   3.6300000e+00	   1.2081943e+01	   1.8148879e+00	
   3.6850000e+00	   1.1782675e+01	   1.7365956e+00	
   3.7400000e+00	   1.1269082e+01	   1.4849698e+00	
   3.7950000e+00	   1.2081040e+01	   1.7184318e+00	
   3.8500000e+00	   1.1774326e+01	   1.5435758e+00	
   3.9050000e+00	   1.0985078e+01	   1.3391606e+00	
   3.9600000e+00	   1.1470292e+01	   1.4995002e+00	
   4.0150000e+00	   1.1696125e+01	   1.5050913e+00	
   4.0700000e+00	   1.1523951e+01	   1.2465004e+00	
   4.1250000e+00	   1.1423864e+01	   1.3514294e+00	
   4.1800000e+00	   1.1542938e+01	   1.5499335e+00	
   4.2350000e+00	   1.1588651e+01	   1.8530812e+00	
   4.2900000e+00	   1.1812779e+01	   1.5969603e+00	
   4.3450000e+00	   1.1593211e+01	   1.5051918e+00	
   4.4000000e+00	   1.1604541e+01	   1.5805461e+00	
   4.4550000e+00	   1.1555314e+01	   1.5157891e+00	
   4.5100000e+00	   1.1243540e+01	   1.5597455e+00	
   4.5650000e+00	   1.1306823e+01	   1.4451035e+00	
   4.6200000e+00	   1.0895165e+01	   1.2692714e+00	
   4.6750000e+00	   1.0963076e+01	   1.2889019e+00	
   4.7300000e+00	   1.2066645e+01	   1.6987113e+00	
   4.7850000e+00	   1.1979388e+01	   1.6802202e+00	
   4.8400000e+00	   1.1511460e+01	   1.6042656e+00	
   4.8950000e+00	   1.1499290e+01	   1.4277385e+00	
   4.9500000e+00	   1.1811016e+01	   1.7688173e+00	
   5.0050000e+00	   1.1917748e+01	   1.5274502e+00	
   5.0600000e+00	   1.1607343e+01	   1.4978852e+00	
   5.1150000e+00	   1.1656821e+01	   1.2174446e+00	
   5.1700000e+00	   1.1499991e+01	   1.3377699e+00	
   5.2250000e+00	   1.1175175e+01	   1.3976526e+00	
   5.2800000e+00	   1.1353594e+01	   1.2294021e+00	
   5.3350000e+00	   1.1408810e+01	   1.4479144e+00	
   5.3900000e+00	   1.1791933e+01	   1.6073283e+00	
   5.4450000e+00	   1.1600132e+01	   1.9072738e+00	
   5.5000000e+00	   1.2011350e+01	   1.6351193e+00	
   5.5550000e+00	   1.1805956e+01	   1.4494796e+00	
   5.6100000e+00	   1.1218998e+01	   1.6537102e+00	
   5.6650000e+00	   1.1847657e+01	   1.7183062e+00	
   5.7200000e+00	   1.1159537e+01	   1.4761533e+00	
   5.7750000e+00	   1.1466015e+01	   1.4871895e+00	
   5.8300000e+00	   1.1145772e+01	   1.4150275e+00	
   5.8850000e+00	   1.1443157e+01	   1.5260669e+00	
   5.9400000e+00	   1.1581491e+01	   1.5693039e+00	
   5.9950000e+00	   1.1989040e+01	   1.7471286e+00	
   6.0500000e+00	   1.1530164e+01	   1.6004389e+00	
   6.1050000e+00	   1.2052570e+01	   1.6956840e+00	
   6.1600000e+00	   1.1641415e+01	   1.7296409e+00	
   6.2150000e+00	   1.2292472e+01	   1.7640466e+00	
   6.2700000e+00	   1.1356117e+01	   1.4337514e+00	
   6.3250000e+00	   1.1410057e+01	   1.6336298e+00	
   6.3800000e+00	   1.1673847e+01	   1.7598080e+00	
   6.4350000e+00	   1.1605639e+01	   1.5585902e+00	
   6.4900000e+00	   1.0620731e+01	   1.1419763e+00	
   6.5450000e+00	   1.0888146e+01	   1.4237307e+00	
   6.6000000e+00	   1.1751997e+01	   1.7084583e+00	
   6.6550000e+00	   1.1826273e+01	   1.8751837e+00	
   6.7100000e+00	   1.1637627e+01	   1.6005069e+00	
   6.7650000e+00	   1.1984408e+01	   1.9371887e+00	
   6.8200000e+00	   1.1899700e+01	   1.6916842e+00	
   6.8750000e+00	   1.1895796e+01	   1.7097620e+00	
   6.9300000e+00	   1.1341463e+01	   1.5697372e+00	
   6.9850000e+00	   1.1505203e+01	   1.5063657e+00	
   7.0400000e+00	   1.1404938e+01	   1.6565325e+00	
   7.0950000e+00	   1.1412447e+01	   1.4062960e+00	
   7.1500000e+00	   1.1222199e+01	   1.4045960e+00	
   7.2050000e+00	   1.0871011e+01	   1.3875736e+00	
   7.2600000e+00	   1.0741043e+01	   1.5593022e+00	
   7.3150000e+00	   1.2064832e+01	   2.0355031e+00	
   7.3700000e+00	   1.1921511e+01	   1.7756912e+00	
   7.4250000e+00	   1.0983770e+01	   1.5167009e+00	
   7.4800000e+00	   1.1532344e+01	   1.5878808e+00	
   7.5350000e+00	   1.1394728e+01	   1.8339185e+00	
   7.5900000e+00	   1.1291541e+01	   1.6674116e+00	
   7.6450000e+00	   1.0688011e+01	   1.3946974e+00	
   7.7000000e+00	   1.0769488e+01	   1.3881527e+00	
   7.7550000e+00	   1.0884166e+01	   1.5911179e+00	
   7.8100000e+00	   1.0896476e+01	   1.4601248e+00	
   7.8650000e+00	   1.1018028e+01	   1.4594668e+00	
   7.9200000e+00	   1.1624210e+01	   1.7940596e+00	
   7.9750000e+00	   1.1529386e+01	   1.6107689e+00	
   8.0300000e+00	   1.1302555e+01	   1.5140442e+00	
   8.0850000e+00	   1.1686640e+01	   1.5863745e+00	
   8.1400000e+00	   1.1329918e+01	   1.6877368e+00	
   8.1950000e+00	   1.1153371e+01	   1.7151830e+00	
   8.2500000e+00	   1.0812786e+01	   1.7007682e+00	
   8.3050000e+00	   1.0591472e+01	   1.5195237e+00	
   8.3600000e+00	   9.8514438e+00	   1.1395232e+00	
   8.4150000e+00	   1.1105493e+01	   1.4957298e+00	
   8.4700000e+00	   1.1552320e+01	   1.7057291e+00	
   8.5250000e+00	   1.1249783e+01	   1.7585231e+00	
   8.5800000e+00	   1.1211398e+01	   1.6207994e+00	
   8.6350000e+00	   1.1482608e+01	   1.5974343e+00	
   8.6900000e+00	   1.0755950e+01	   1.8348629e+00	
   8.7450000e+00	   1.0762236e+01	   1.7126764e+00	
   8.8000000e+00	   1.0988478e+01	   1.7524536e+00	
   8.8550000e+00	   1.0406211e+01	   1.2206707e+00	
   8.9100000e+00	   1.1074011e+01	   1.5309726e+00	
   8.9650000e+00	   1.0760062e+01	   1.2131537e+00	
   9.0200000e+00	   1.0352426e+01	   1.1066399e+00	
   9.0750000e+00	   1.0454503e+01	   1.4093014e+00	
   9.1300000e+00	   1.1044884e+01	   1.8320305e+00	
   9.1850000e+00	   1.0968640e+01	   1.6902015e+00	
   9.2400000e+00	   1.0763068e+01	   1.5580082e+00	
   9.2950000e+00	   1.1175138e+01	   1.4324144e+00	
   9.3500000e+00	   1.0534105e+01	   1.6585847e+00	
   9.4050000e+00	   1.1134839e+01	   1.7413438e+00	
   9.4600000e+00	   1.0444342e+01	   1.6533359e+00	
   9.5150000e+00	   1.0976090e+01	   1.6296148e+00	
   9.5700000e+00	   9.9213749e+00	   1.3229662e+00	
   9.6250000e+00	   1.0714832e+01	   1.4873608e+00	
   9.6800000e+00	   1.0349613e+01	   1.2389174e+00	
   9.7350000e+00	   1.0390838e+01	   1.5991282e+00	
   9.7900000e+00	   1.0435563e+01	   1.7944707e+00	
   9.8450000e+00	   1.1044042e+01	   2.0401887e+00	
   9.9000000e+00	   1.0493594e+01	   1.7614862e+00	
   9.9550000e+00	   1.0949343e+01	   1.6329315e+00	
   1.0010000e+01	   1.0533200e+01	   1.6415156e+00	
   1.0065000e+01	   1.0829141e+01	   1.6410318e+00	
   1.0120000e+01	   1.0650660e+01	   1.7176671e+00	
   1.0175000e+01	   1.0622578e+01	   1.6102409e+00	
   1.0230000e+01	   1.0199501e+01	   1.2789869e+00	
   1.0285000e+01	   1.0726413e+01	   1.5193748e+00	
   1.0340000e+01	   1.0819559e+01	   1.7346292e+00	
   1.0395000e+01	   1.0910053e+01	   1.8551660e+00	
   1.0450000e+01	   1.0540091e+01	   1.7410189e+00	
   1.0505000e+01	   1.1014351e+01	   1.8507401e+00	
   1.0560000e+01	   1.0840779e+01	   1.6990262e+00	
   1.0615000e+01	   1.0610887e+01	   1.7059416e+00	
   1.0670000e+01	   1.0313928e+01	   1.5900985e+00	
   1.0725000e+01	   1.0338932e+01	   1.7449551e+00	
   1.0780000e+01	   1.0363835e+01	   1.6208490e+00	
   1.0835000e+01	   1.0399252e+01	   1.5496013e+00	
   1.0890000e+01	   1.0320265e+01	   1.4452867e+00	
   1.0945000e+01	   1.0448974e+01	   1.3065879e+00	
   1.1000000e+01	   1.0794569e+01	   1.5997916e+00	
   1.1055000e+01	   1.0493537e+01	   1.7491232e+00	
   1.1110000e+01	   1.0518504e+01	   1.6956118e+00	
   1.1165000e+01	   9.9155124e+00	   1.5998268e+00	
   1.1220000e+01	   1.0804303e+01	   1.7025309e+00	
   1.1275000e+01	   1.0879926e+01	   1.6417181e+00	
   1.1330000e+01	   1.0539937e+01	   1.6130872e+00	
   1.1385000e+01	   1.0085331e+01	   1.4159474e+00	
   1.1440000e+01	   1.0034760e+01	   1.7262874e+00	
   1.1495000e+01	   9.7441149e+00	   1.5505777e+00	
   1.1550000e+01	   9.6981551e+00	   1.4646281e+00	
   1.1605000e+01	   9.8198772e+00	   1.2499855e+00	
   1.1660000e+01	   1.0354635e+01	   1.5712935e+00	
   1.1715000e+01	   1.0252779e+01	   1.6768103e+00	
   1.1770000e+01	   1.0998923e+01	   1.5644414e+00	
   1.1825000e+01	   9.9821471e+00	   1.5592641e+00	
   1.1880000e+01	   1.0020151e+01	   1.5593276e+00	
   1.1935000e+01	   1.0112866e+01	   1.6689389e+00	
   1.1990000e+01	   9.8604188e+00	   1.3656522e+00	
   1.2045000e+01	   9.8752456e+00	   1.2587066e+00	
   1.2100000e+01	   9.8604175e+00	   1.4791559e+00	
   1.2155000e+01	   9.6704832e+00	   1.3863841e+00	
   1.2210000e+01	   9.4675497e+00	   1.3872752e+00	
   1.2265000e+01	   9.7711186e+00	   1.5747570e+00	
   1.2320000e+01	   1.0702306e+01	   1.5151959e+00	
   1.2375000e+01	   9.8775095e+00	   1.4370211e+00	
   1.2430000e+01	   1.0143943e+01	   1.5582426e+00	
   1.2485000e+01	   1.0610649e+01	   1.6104848e+00	
   1.2540000e+01	   1.0205072e+01	   1.1991825e+00	
   1.2595000e+01	   1.0417216e+01	   1.6667844e+00	
   1.2650000e+01	   1.0683172e+01	   1.5695018e+00	
   1.2705000e+01	   9.7729171e+00	   1.3017744e+00	
   1.2760000e+01	   9.4718079e+00	   1.2448172e+00	
   1.2815000e+01	   9.8688251e+00	   1.1569486e+00	
   1.2870000e+01	   9.7174225e+00	   1.3740023e+00	
   1.2925000e+01	   1.0003188e+01	   1.5233674e+00	
   1.2980000e+01	   1.0088117e+01	   1.4223445e+00	
   1.3035000e+01	   1.0583862e+01	   1.7350428e+00	
   1.3090000e+01	   1.0319197e+01	   1.5900985e+00	
   1.3145000e+01	   1.0072099e+01	   1.5604554e+00	
   1.3200000e+01	   9.9622282e+00	   1.2524951e+00	
   1.3255000e+01	   9.6818954e+00	   1.4227076e+00	
   1.3310000e+01	   1.0038119e+01	   1.2396909e+00	
   1.3365000e+01	   9.8458375e+00	   1.4375460e+00	
   1.3420000e+01	   9.3193466e+00	   1.2148592e+00	
   1.3475000e+01	   9.2868186e+00	   1.1074603e+00	
   1.3530000e+01	   9.5036214e+00	   9.0286316e-01	
   1.3585000e+01	   1.0560568e+01	   1.3881527e+00	
   1.3640000e+01	   1.0427700e+01	   1.3198124e+00	
   1.3695000e+01	   1.0051086e+01	   1.2951139e+00	
   1.3750000e+01	   1.0101942e+01	   1.4817591e+00	
   1.3805000e+01	   1.0806801e+01	   1.5909543e+00	
   1.3860000e+01	   1.0085713e+01	   1.5947365e+00	
   1.3915000e+01	   1.0278513e+01	   1.3155186e+00	
   1.3970000e+01	   1.0192895e+01	   1.3985600e+00	
   1.4025000e+01	   9.9326614e+00	   1.1255916e+00	
   1.4080000e+01	   1.0397888e+01	   1.1318020e+00	
   1.4135000e+01	   9.8213918e+00	   8.7912071e-01	
   1.4190000e+01	   9.6883824e+00	   1.0009216e+00	
   1.4245000e+01	   1.0319283e+01	   1.2208090e+00	
   1.4300000e+01	   9.7749479e+00	   1.1715515e+00	
   1.4355000e+01	   1.0086419e+01	   1.0431038e+00	
   1.4410000e+01	   1.0578123e+01	   1.3533740e+00	
   1.4465000e+01	   1.0488697e+01	   1.2877883e+00	
   1.4520000e+01	   1.0919758e+01	   1.3180450e+00	
   1.4575000e+01	   9.8034209e+00	   1.0170233e+00	
   1.4630000e+01	   9.9197053e+00	   9.4489806e-01	
   1.4685000e+01	   9.8435913e+00	   1.0851974e+00	
   1.4740000e+01	   9.7592577e+00	   8.7513858e-01	
   1.4795000e+01	   9.9249617e+00	   8.9646892e-01	
   1.4850000e+01	   9.4856121e+00	   7.5656339e-01	
   1.4905000e+01	   1.0075316e+01	   1.0084076e+00	
   1.4960000e+01	   1.0232989e+01	   1.0385262e+00	
   1.5015000e+01	   1.0290735e+01	   1.1975372e+00	
   1.5070000e+01	   9.7996448e+00	   9.5296104e-01	
   1.5125000e+01	   9.6305836e+00	   7.4574904e-01	
   1.5180000e+01	   1.0347394e+01	   1.0553204e+00	
   1.5235000e+01	   9.9504641e+00	   9.8417069e-01	
   1.5290000e+01	   9.2637503e+00	   8.9424903e-01	
   1.5345000e+01	   9.7157309e+00	   6.8502856e-01	
   1.5400000e+01	   1.0155016e+01	   7.6662334e-01	
   1.5455000e+01	   9.4242567e+00	   5.9815426e-01	
   1.5510000e+01	   9.2855990e+00	   5.6547325e-01	
   1.5565000e+01	   1.0359483e+01	   9.1351279e-01	
   1.5620000e+01	   1.0376827e+01	   9.4864445e-01	
   1.5675000e+01	   1.0218807e+01	   1.0547410e+00	
   1.5730000e+01	   1.0034477e+01	   8.8137879e-01	
   1.5785000e+01	   1.0143109e+01	   8.1212138e-01	
   1.5840000e+01	   9.9918404e+00	   8.9305795e-01	
   1.5895000e+01	   9.6166897e+00	   9.1531429e-01	
   1.5950000e+01	   9.4700403e+00	   6.9921434e-01	
   1.6005000e+01	   9.6164867e+00	   4.5266474e-01	
   1.6060000e+01	   9.1798015e+00	   4.7605049e-01	
   1.6115000e+01	   9.4160245e+00	   4.3400861e-01	
   1.6170000e+01	   1.0191059e+01	   7.6013162e-01	
   1.6225000e+01	   1.0310999e+01	   5.7216465e-01	
   1.6280000e+01	   1.0341337e+01	   7.8023539e-01	
   1.6335000e+01	   9.7623231e+00	   9.0209125e-01	
   1.6390000e+01	   1.0662196e+01	   9.0289999e-01	
   1.6445000e+01	   1.0114295e+01	   6.3277824e-01	
   1.6500000e+01	   1.0237951e+01	   4.9060229e-01	
   1.6555000e+01	   9.7388954e+00	   6.7518066e-01	
   1.6610000e+01	   1.0098350e+01	   5.1111838e-01	
   1.6665000e+01	   9.2363346e+00	   3.1226646e-01	
   1.6720000e+01	   9.8481218e+00	   2.9077424e-01	
   1.6775000e+01	   9.6019508e+00	   4.3971804e-01	
   1.6830000e+01	   1.0544659e+01	   6.7362699e-01	
   1.6885000e+01	   1.0501736e+01	   6.1441043e-01	
   1.6940000e+01	   1.0630839e+01	   6.7406170e-01	
   1.6995000e+01	   1.0448849e+01	   7.0230555e-01	
   1.7050000e+01	   1.0305838e+01	   6.6892462e-01	
   1.7105000e+01	   1.0416837e+01	   5.6297226e-01	
   1.7160000e+01	   9.8843978e+00	   5.5056201e-01	
   1.7215000e+01	   9.8940012e+00	   4.4345823e-01	
   1.7270000e+01	   9.8989320e+00	   5.0515601e-01	
   1.7325000e+01	   1.0085588e+01	   5.0798810e-01	
   1.7380000e+01	   9.4252647e+00	   3.3455618e-01	
   1.7435000e+01	   9.4853452e+00	   4.2859582e-01	
   1.7490000e+01	   1.0052684e+01	   4.2185903e-01	
   1.7545000e+01	   1.0408000e+01	   5.4906390e-01	
   1.7600000e+01	   1.0192364e+01	   5.5655859e-01	
   1.7655000e+01	   1.0198467e+01	   4.8374654e-01	
   1.7710000e+01	   9.4304018e+00	   7.1802825e-01	
   1.7765000e+01	   1.0751814e+01	   7.1210703e-01	
   1.7820000e+01	   1.0391845e+01	   5.1145326e-01	
   1.7875000e+01	   9.5874792e+00	   3.4186603e-01	
   1.7930000e+01	   9.9085552e+00	   3.6531933e-01	
   1.7985000e+01	   9.6760972e+00	   1.9251678e-01	
   1.8040000e+01	   9.7228797e+00	   1.5379609e-01	
   1.8095000e+01	   9.5283482e+00	   3.8580356e-01	
   1.8150000e+01	   9.7379304e+00	   5.1641950e-01	
   1.8205000e+01	   1.0511624e+01	   6.6638364e-01	
   1.8260000e+01	   1.0208416e+01	   6.3745963e-01	
   1.8315000e+01	   9.8558829e+00	   4.6800248e-01	
   1.8370000e+01	   1.0244100e+01	   6.1400143e-01	
   1.8425000e+01	   1.0228828e+01	   5.4816903e-01	
   1.8480000e+01	   1.0267049e+01	   4.7416756e-01	
   1.8535000e+01	   1.0089116e+01	   4.7715497e-01	
   1.8590000e+01	   9.4743469e+00	   1.1979912e-01	
   1.8645000e+01	   9.4420786e+00	   3.4700140e-01	
   1.8700000e+01	   1.0043807e+01	   5.6162881e-01	
   1.8755000e+01	   1.0503754e+01	   5.4909136e-01	
   1.8810000e+01	   9.8910208e+00	   4.7130288e-01	
   1.8865000e+01	   1.0418778e+01	   5.5554826e-01	
   1.8920000e+01	   9.9796609e+00	   5.8359432e-01	
   1.8975000e+01	   9.8876273e+00	   4.9113678e-01	
   1.9030000e+01	   1.0426736e+01	   5.9299680e-01	
   1.9085000e+01	   1.0439748e+01	   5.6925072e-01	
   1.9140000e+01	   9.4615937e+00	   5.4900953e-01	
   1.9195000e+01	   9.5237257e+00	   4.1499605e-01	
   1.9250000e+01	   1.0116754e+01	   2.5785456e-01	
   1.9305000e+01	   1.0140147e+01	   7.1837775e-01	
   1.9360000e+01	   1.0516417e+01	   7.4467686e-01	
   1.9415000e+01	   1.0057636e+01	   7.5847416e-01	
   1.9470000e+01	   9.8924556e+00	   6.4304308e-01	
   1.9525000e+01	   1.0435222e+01	   8.4882214e-01	
   1.9580000e+01	   1.0286986e+01	   7.9237355e-01	
   1.9635000e+01	   9.8369029e+00	   8.0813233e-01	
   1.9690000e+01	   1.0192737e+01	   9.2297095e-01	
   1.9745000e+01	   1.0028256e+01	   5.6988827e-01	
   1.9800000e+01	   1.0453231e+01	   6.4082780e-01	
   1.9855000e+01	   9.6368786e+00	   5.4743038e-01	
   1.9910000e+01	   9.6427254e+00	   3.2019730e-01	
   1.9965000e+01	   1.0410224e+01	   8.5973101e-01	
   2.0020000e+01	   1.0312320e+01	   9.6380301e-01	
   2.0075000e+01	   1.1100571e+01	   1.0957951e+00	
   2.0130000e+01	   1.0352120e+01	   8.0296105e-01	
   2.0185000e+01	   1.0271492e+01	   1.0641822e+00	
   2.0240000e+01	   1.0616550e+01	   8.9197972e-01	
   2.0295000e+01	   1.0728231e+01	   1.0656710e+00	
   2.0350000e+01	   1.0100230e+01	   7.1210703e-01	
   2.0405000e+01	   9.8959534e+00	   8.2617958e-01	
   2.0460000e+01	   9.7022666e+00	   7.6260985e-01	
   2.0515000e+01	   9.7715871e+00	   5.0889107e-01	
   2.0570000e+01	   1.0295546e+01	   8.5635545e-01	
   2.0625000e+01	   1.0156193e+01	   9.0237784e-01	
   2.0680000e+01	   1.0943985e+01	   1.1106850e+00	
   2.0735000e+01	   1.1392372e+01	   1.2131849e+00	
   2.0790000e+01	   1.0424395e+01	   1.1290213e+00	
   2.0845000e+01	   1.0388056e+01	   9.3580761e-01	
   2.0900000e+01	   1.0750797e+01	   1.1765071e+00	
   2.0955000e+01	   1.0464731e+01	   1.0847454e+00	
   2.1010000e+01	   1.0495003e+01	   9.5896307e-01	
   2.1065000e+01	   9.9255409e+00	   7.9173642e-01	
   2.1120000e+01	   9.5320091e+00	   4.7275460e-01	
   2.1175000e+01	   1.0153313e+01	   7.0296135e-01	
   2.1230000e+01	   1.0025585e+01	   8.5110953e-01	
   2.1285000e+01	   1.0100969e+01	   9.3959662e-01	
   2.1340000e+01	   1.0573614e+01	   9.9617329e-01	
   2.1395000e+01	   1.0615022e+01	   1.2048323e+00	
   2.1450000e+01	   1.0498190e+01	   1.2596019e+00	
   2.1505000e+01	   1.0264904e+01	   1.0705193e+00	
   2.1560000e+01	   1.0223255e+01	   1.1194638e+00	
   2.1615000e+01	   1.0201844e+01	   1.0163367e+00	
   2.1670000e+01	   1.0314945e+01	   1.1627650e+00	
   2.1725000e+01	   1.0328853e+01	   7.0683085e-01	
   2.1780000e+01	   1.0336340e+01	   8.7534444e-01	
   2.1835000e+01	   1.0317865e+01	   8.6179355e-01	
   2.1890000e+01	   1.0136624e+01	   8.7515161e-01	
   2.1945000e+01	   1.0648427e+01	   1.1972619e+00	
   2.2000000e+01	   1.0192556e+01	   1.2849196e+00	
   2.2055000e+01	   9.9529541e+00	   1.1008452e+00	
   2.2110000e+01	   1.0849096e+01	   1.1989503e+00	
   2.2165000e+01	   1.0641271e+01	   1.3172136e+00	
   2.2220000e+01	   1.0556913e+01	   1.0002881e+00	
   2.2275000e+01	   1.0121789e+01	   1.0208584e+00	
   2.2330000e+01	   1.0542395e+01	   1.0931282e+00	
   2.2385000e+01	   1.0221352e+01	   1.0112468e+00	
   2.2440000e+01	   1.0208931e+01	   9.0894100e-01	
   2.2495000e+01	   9.4849565e+00	   6.2234181e-01	
   2.2550000e+01	   9.7148353e+00	   8.6712549e-01	
   2.2605000e+01	   1.0817902e+01	   9.9603906e-01	
   2.2660000e+01	   1.0983481e+01	   1.0687935e+00	
   2.2715000e+01	   1.0237030e+01	   1.0879424e+00	
   2.2770000e+01	   1.1130376e+01	   9.9485753e-01	
   2.2825000e+01	   1.0852965e+01	   1.2503582e+00	
   2.2880000e+01	   9.7475607e+00	   1.1875616e+00	
   2.2935000e+01	   1.0510513e+01	   9.4140239e-01	
   2.2990000e+01	   9.2407520e+00	   7.9373364e-01	
   2.3045000e+01	   1.0039293e+01	   8.2036936e-01	
   2.3100000e+01	   1.0176430e+01	   8.7187712e-01	
   2.3155000e+01	   9.9358889e+00	   7.1261675e-01	
   2.3210000e+01	   1.0324021e+01	   9.3642349e-01	
   2.3265000e+01	   1.0422803e+01	   1.2716221e+00	
   2.3320000e+01	   1.0870396e+01	   1.2554732e+00	
   2.3375000e+01	   1.0200069e+01	   9.1642742e-01	
   2.3430000e+01	   1.0209601e+01	   8.9481822e-01	
   2.3485000e+01	   1.0518202e+01	   1.0226353e+00	
   2.3540000e+01	   1.0650953e+01	   9.3238556e-01	
   2.3595000e+01	   1.0318884e+01	   8.1823520e-01	
   2.3650000e+01	   9.8366418e+00	   8.1545299e-01	
   2.3705000e+01	   1.0035499e+01	   6.1006758e-01	
   2.3760000e+01	   9.4156112e+00	   6.8036820e-01	
   2.3815000e+01	   1.0323331e+01	   9.2714084e-01	
   2.3870000e+01	   1.0551663e+01	   8.1204301e-01	
   2.3925000e+01	   1.0204064e+01	   1.0987432e+00	
   2.3980000e+01	   1.0884430e+01	   1.0758789e+00	
   2.4035000e+01	   1.0409509e+01	   1.1771159e+00	
   2.4090000e+01	   1.0514488e+01	   9.7327949e-01	
   2.4145000e+01	   1.0308226e+01	   9.8370773e-01	
   2.4200000e+01	   1.0267445e+01	   1.2393743e+00	
   2.4255000e+01	   9.8373824e+00	   8.9160250e-01	
   2.4310000e+01	   9.3831224e+00	   5.4868645e-01	
   2.4365000e+01	   9.9995384e+00	   6.1174436e-01	
   2.4420000e+01	   1.0152029e+01	   8.8486486e-01	
   2.4475000e+01	   1.0556400e+01	   1.1771907e+00	
   2.4530000e+01	   1.0123445e+01	   1.1068333e+00	
   2.4585000e+01	   1.0721525e+01	   1.0677140e+00	
   2.4640000e+01	   1.0848387e+01	   1.0609301e+00	
   2.4695000e+01	   1.0673403e+01	   1.0091767e+00	
   2.4750000e+01	   1.0763049e+01	   1.0492285e+00	
   2.4805000e+01	   1.0734913e+01	   1.0262839e+00	
   2.4860000e+01	   1.0152814e+01	   9.6327792e-01	
   2.4915000e+01	   9.7862563e+00	   7.6773378e-01	
   2.4970000e+01	   9.6686734e+00	   6.1301220e-01	
   2.5025000e+01	   9.8606187e+00	   6.5413863e-01	
   2.5080000e+01	   1.0014040e+01	   1.0290253e+00	
   2.5135000e+01	   1.0844922e+01	   1.2166502e+00	
   2.5190000e+01	   1.0804896e+01	   1.0921472e+00	
   2.5245000e+01	   1.0455752e+01	   1.0031925e+00	
   2.5300000e+01	   1.0752242e+01	   9.2634293e-01	
   2.5355000e+01	   1.0992651e+01	   1.2775663e+00	
   2.5410000e+01	   1.1002340e+01	   1.1551457e+00	
   2.5465000e+01	   1.0193801e+01	   9.5793967e-01	
   2.5520000e+01	   1.0369485e+01	   9.5109488e-01	
   2.5575000e+01	   1.0174703e+01	   1.1349569e+00	
   2.5630000e+01	   1.0352268e+01	   8.1475249e-01	
   2.5685000e+01	   1.0137819e+01	   7.7331121e-01	
   2.5740000e+01	   1.0371659e+01	   1.0654790e+00	
   2.5795000e+01	   1.1065183e+01	   1.0515985e+00	
   2.5850000e+01	   1.0864646e+01	   1.2325376e+00	
   2.5905000e+01	   1.0827158e+01	   1.1036787e+00	
   2.5960000e+01	   1.0796624e+01	   1.1576290e+00	
   2.6015000e+01	   1.0505926e+01	   1.2512511e+00	
   2.6070000e+01	   1.0617837e+01	   8.7958910e-01	
   2.6125000e+01	   1.0534733e+01	   1.0208394e+00	
   2.6180000e+01	   1.0049499e+01	   1.0502859e+00	
   2.6235000e+01	   1.0015547e+01	   9.9657214e-01	
   2.6290000e+01	   1.0584648e+01	   9.1838385e-01	
   2.6345000e+01	   9.9486222e+00	   6.5154106e-01	
   2.6400000e+01	   1.0226893e+01	   9.7682060e-01	
   2.6455000e+01	   1.0289214e+01	   1.0096850e+00	
   2.6510000e+01	   1.0055961e+01	   1.1371505e+00	
   2.6565000e+01	   1.0123707e+01	   1.2675704e+00	
   2.6620000e+01	   1.0481610e+01	   1.0665272e+00	
   2.6675000e+01	   1.0440870e+01	   9.7056155e-01	
   2.6730000e+01	   1.0528192e+01	   1.2505125e+00	
   2.6785000e+01	   1.0113324e+01	   1.0692946e+00	
   2.6840000e+01	   9.8097625e+00	   8.0651572e-01	
   2.6895000e+01	   9.5770044e+00	   6.0640914e-01	
   2.6950000e+01	   9.7391473e+00	   5.9350315e-01	
   2.7005000e+01	   1.0585126e+01	   9.4522535e-01	
   2.7060000e+01	   9.9224332e+00	   9.6790395e-01	
   2.7115000e+01	   1.0191663e+01	   9.6335310e-01	
   2.7170000e+01	   1.0443068e+01	   1.0854093e+00	
   2.7225000e+01	   1.1028385e+01	   1.1363488e+00	
   2.7280000e+01	   1.0103914e+01	   8.3017876e-01	
   2.7335000e+01	   1.0320176e+01	   1.0094608e+00	
   2.7390000e+01	   1.0092131e+01	   8.9930658e-01	
   2.7445000e+01	   9.9401248e+00	   1.0812207e+00	
   2.7500000e+01	   9.6533069e+00	   9.2241920e-01	
   2.7555000e+01	   9.7617771e+00	   6.7456064e-01	
   2.7610000e+01	   9.7075696e+00	   8.6301755e-01	
   2.7665000e+01	   1.0906370e+01	   1.0427931e+00	
   2.7720000e+01	   1.0330969e+01	   1.1767017e+00	
   2.7775000e+01	   1.0255404e+01	   8.1930148e-01	
   2.7830000e+01	   1.0163334e+01	   8.2407230e-01	
   2.7885000e+01	   1.0717368e+01	   1.0964285e+00	
   2.7940000e+01	   1.0118552e+01	   7.8708271e-01	
   2.7995000e+01	   9.9854091e+00	   8.1906095e-01	
   2.8050000e+01	   9.9625707e+00	   6.9554742e-01	
   2.8105000e+01	   9.8012018e+00	   7.3489927e-01	
   2.8160000e+01	   9.7899877e+00	   8.3463211e-01	
   2.8215000e+01	   9.3364245e+00	   4.7757303e-01	
   2.8270000e+01	   9.8786061e+00	   8.8901802e-01	
   2.8325000e+01	   1.0410161e+01	   1.1087759e+00	
   2.8380000e+01	   1.0924888e+01	   1.2321579e+00	
   2.8435000e+01	   9.7654125e+00	   1.0606342e+00	
   2.8490000e+01	   1.0461422e+01	   1.0360052e+00	
   2.8545000e+01	   1.0098950e+01	   1.0420971e+00	
   2.8600000e+01	   1.0509439e+01	   1.0298993e+00	
   2.8655000e+01	   1.0140012e+01	   9.6151465e-01	
   2.8710000e+01	   1.0096107e+01	   8.2962253e-01	
   2.8765000e+01	   8.8732217e+00	   8.6843573e-01	
   2.8820000e+01	   9.1909812e+00	   7.1772431e-01	
   2.8875000e+01	   9.5180502e+00	   9.1014646e-01	
   2.8930000e+01	   9.5190399e+00	   8.1451493e-01	
   2.8985000e+01	   9.8664952e+00	   1.0314403e+00	
   2.9040000e+01	   1.0259938e+01	   1.2068493e+00	
   2.9095000e+01	   1.0261278e+01	   1.2698161e+00	
   2.9150000e+01	   1.0059082e+01	   1.0793591e+00	
   2.9205000e+01	   1.0242240e+01	   9.9902634e-01	
   2.9260000e+01	   1.0600712e+01	   1.1299321e+00	
   2.9315000e+01	   1.0127739e+01	   1.1440257e+00	
   2.9370000e+01	   9.7431201e+00	   1.0370269e+00	
   2.9425000e+01	   1.0194471e+01	   8.0436879e-01	
   2.9480000e+01	   1.0081682e+01	   7.7061505e-01	
   2.9535000e+01	   9.7836367e+00	   7.9520541e-01	
   2.9590000e+01	   9.5309888e+00	   6.5679318e-01	
   2.9645000e+01	   9.4863476e+00	   9.1091879e-01	
   2.9700000e+01	   1.0529347e+01	   1.3232146e+00	
   2.9755000e+01	   9.7909577e+00	   1.2865091e+00	
   2.9810000e+01	   1.0157392e+01	   1.0917205e+00	
   2.9865000e+01	   9.7787259e+00	   1.0820245e+00	
   2.9920000e+01	   9.9998251e+00	   1.1037927e+00	
   2.9975000e+01	   9.7743726e+00	   1.1810228e+00	
   3.0030000e+01	   9.2324889e+00	   8.5980020e-01	
   3.0085000e+01	   9.4700113e+00	   1.0126297e+00	
   3.0140000e+01	   9.6688787e+00	   6.9626996e-01	
   3.0195000e+01	   9.1149792e+00	   8.6682901e-01	
   3.0250000e+01	   9.5598953e+00	   7.3762975e-01	
   3.0305000e+01	   1.0021896e+01	   1.0299883e+00	
   3.0360000e+01	   9.5751119e+00	   9.7420553e-01	
   3.0415000e+01	   1.0059142e+01	   1.1899088e+00	
   3.0470000e+01	   1.0121736e+01	   1.0153474e+00	
   3.0525000e+01	   9.9393525e+00	   1.1149358e+00	
   3.0580000e+01	   9.7608272e+00	   7.7301789e-01	
   3.0635000e+01	   9.9499304e+00	   1.0778924e+00	
   3.0690000e+01	   9.6408388e+00	   1.1998814e+00	
   3.0745000e+01	   9.3985737e+00	   7.2795132e-01	
   3.0800000e+01	   9.2653625e+00	   5.1331563e-01	
   3.0855000e+01	   9.1133049e+00	   8.7274590e-01	
   3.0910000e+01	   9.4510643e+00	   8.6758451e-01	
   3.0965000e+01	   9.5180723e+00	   9.1330178e-01	
   3.1020000e+01	   9.9254764e+00	   9.7017905e-01	
   3.1075000e+01	   9.8622819e+00	   1.1696038e+00	
   3.1130000e+01	   9.8176708e+00	   9.0022677e-01	
   3.1185000e+01	   9.5757143e+00	   7.2802687e-01	
   3.1240000e+01	   9.2856112e+00	   9.5395061e-01	
   3.1295000e+01	   9.6397618e+00	   9.2075260e-01	
   3.1350000e+01	   8.9962095e+00	   1.0456906e+00	
   3.1405000e+01	   9.1106074e+00	   9.2494630e-01	
   3.1460000e+01	   9.0633554e+00	   7.7459365e-01	
   3.1515000e+01	   8.8346303e+00	   4.7650800e-01	
   3.1570000e+01	   8.9323354e+00	   5.7678116e-01	
   3.1625000e+01	   9.7148115e+00	   8.6974812e-01	
   3.1680000e+01	   9.5474687e+00	   1.0495194e+00	
   3.1735000e+01	   9.8334233e+00	   1.0146014e+00	
   3.1790000e+01	   9.6721865e+00	   1.0996164e+00	
   3.1845000e+01	   9.8873507e+00	   1.2124312e+00	
   3.1900000e+01	   9.9592728e+00	   1.1163194e+00	
   3.1955000e+01	   9.9851167e+00	   1.1034058e+00	
   3.2010000e+01	   9.7483503e+00	   1.0918481e+00	
   3.2065000e+01	   1.0163509e+01	   1.1305731e+00	
   3.2120000e+01	   8.9957182e+00	   7.1422517e-01	
   3.2175000e+01	   9.1026185e+00	   5.8294655e-01	
   3.2230000e+01	   9.2486591e+00	   6.2253914e-01	
   3.2285000e+01	   9.6979475e+00	   1.2061015e+00	
   3.2340000e+01	   1.0120824e+01	   9.4061037e-01	
   3.2395000e+01	   9.8753263e+00	   1.2225908e+00	
   3.2450000e+01	   9.7440235e+00	   1.1234294e+00	
   3.2505000e+01	   9.8779651e+00	   1.1194384e+00	
   3.2560000e+01	   9.9472510e+00	   1.0677670e+00	
   3.2615000e+01	   9.3809067e+00	   9.4010148e-01	
   3.2670000e+01	   9.5760790e+00	   9.2121180e-01	
   3.2725000e+01	   1.0416501e+01	   1.1984645e+00	
   3.2780000e+01	   9.6414331e+00	   8.4347133e-01	
   3.2835000e+01	   9.4830501e+00	   9.5177552e-01	
   3.2890000e+01	   9.1520659e+00	   6.8572283e-01	
   3.2945000e+01	   1.0267592e+01	   1.1047069e+00	
   3.3000000e+01	   1.0505065e+01	   1.1927344e+00	
   3.3055000e+01	   1.0115480e+01	   1.0896490e+00	
   3.3110000e+01	   1.0055077e+01	   1.4181921e+00	
   3.3165000e+01	   9.9046817e+00	   1.2088809e+00	
   3.3220000e+01	   1.0042675e+01	   1.2975194e+00	
   3.3275000e+01	   1.0205906e+01	   1.1817102e+00	
   3.3330000e+01	   1.0328518e+01	   1.0971465e+00	
   3.3385000e+01	   1.0075125e+01	   1.1145261e+00	
   3.3440000e+01	   9.7952432e+00	   1.1294499e+00	
   3.3495000e+01	   1.0206834e+01	   9.7673032e-01	
   3.3550000e+01	   9.6264610e+00	   1.0018999e+00	
   3.3605000e+01	   1.0402402e+01	   1.4037789e+00	
   3.3660000e+01	   1.0396992e+01	   1.1538363e+00	
   3.3715000e+01	   1.0203473e+01	   1.3528632e+00	
   3.3770000e+01	   1.0703139e+01	   1.1913825e+00	
   3.3825000e+01	   1.0479165e+01	   1.2861444e+00	
   3.3880000e+01	   1.0289003e+01	   1.5677664e+00	
   3.3935000e+01	   9.9954288e+00	   1.2839130e+00	
   3.3990000e+01	   9.5908310e+00	   9.5777659e-01	
   3.4045000e+01	   1.0245882e+01	   1.3569311e+00	
   3.4100000e+01	   9.7901837e+00	   1.1569197e+00	
   3.4155000e+01	   9.9630926e+00	   1.1528479e+00	
   3.4210000e+01	   1.0258090e+01	   1.3144209e+00	
   3.4265000e+01	   1.0142181e+01	   1.3017933e+00	
   3.4320000e+01	   1.0529192e+01	   1.4609264e+00	
   3.4375000e+01	   1.0682536e+01	   1.3094775e+00	
   3.4430000e+01	   1.0733343e+01	   1.1917285e+00	
   3.4485000e+01	   1.0427382e+01	   1.3594619e+00	
   3.4540000e+01	   1.0375676e+01	   1.3240128e+00	
   3.4595000e+01	   9.5799810e+00	   1.4654286e+00	
   3.4650000e+01	   1.0418712e+01	   1.1501438e+00	
   3.4705000e+01	   1.0007725e+01	   1.0081725e+00	
   3.4760000e+01	   1.0314984e+01	   1.2965239e+00	
   3.4815000e+01	   1.0329338e+01	   1.6592180e+00	
   3.4870000e+01	   1.0489650e+01	   1.6028144e+00	
   3.4925000e+01	   1.0154037e+01	   1.5402512e+00	
   3.4980000e+01	   1.0581940e+01	   1.4173800e+00	
   3.5035000e+01	   1.0666479e+01	   1.4383419e+00	
   3.5090000e+01	   1.0566805e+01	   1.4826709e+00	
   3.5145000e+01	   1.0472357e+01	   1.1790146e+00	
   3.5200000e+01	   1.0251000e+01	   1.3602022e+00	
   3.5255000e+01	   1.0463906e+01	   1.3867623e+00	
   3.5310000e+01	   1.0048361e+01	   1.2670754e+00	
   3.5365000e+01	   1.0400777e+01	   1.1430418e+00	
   3.5420000e+01	   1.0526042e+01	   1.6106410e+00	
   3.5475000e+01	   1.1113639e+01	   1.8173261e+00	
   3.5530000e+01	   1.0496840e+01	   1.6211384e+00	
   3.5585000e+01	   1.0767339e+01	   1.4953418e+00	
   3.5640000e+01	   1.1058097e+01	   1.6767209e+00	
   3.5695000e+01	   1.1059114e+01	   1.6894387e+00	
   3.5750000e+01	   1.1066290e+01	   1.7920312e+00	
   3.5805000e+01	   1.0938927e+01	   1.6355341e+00	
   3.5860000e+01	   1.0187848e+01	   1.5056145e+00	
   3.5915000e+01	   1.0720967e+01	   1.2186504e+00	
   3.5970000e+01	   1.0467704e+01	   1.6064052e+00	
   3.6025000e+01	   1.1577314e+01	   1.5516525e+00	
   3.6080000e+01	   1.0508121e+01	   1.7034869e+00	
   3.6135000e+01	   1.1480833e+01	   1.8560991e+00	
   3.6190000e+01	   1.1730997e+01	   2.1313134e+00	
   3.6245000e+01	   1.1582460e+01	   1.9067643e+00	
   3.6300000e+01	   1.0600176e+01	   1.7498345e+00	
   3.6355000e+01	   1.1250707e+01	   1.9209373e+00	
   3.6410000e+01	   1.0886802e+01	   1.6814855e+00	
   3.6465000e+01	   1.0885624e+01	   1.6480986e+00	
   3.6520000e+01	   1.0550280e+01	   1.4948169e+00	
   3.6575000e+01	   1.0906118e+01	   1.8317897e+00	
   3.6630000e+01	   1.0559884e+01	   1.6020389e+00	
   3.6685000e+01	   1.1425529e+01	   1.6984690e+00	
   3.6740000e+01	   1.1457392e+01	   1.8621396e+00	
   3.6795000e+01	   1.1286380e+01	   1.8062637e+00	
   3.6850000e+01	   1.1747994e+01	   2.0166595e+00	
   3.6905000e+01	   1.1546313e+01	   2.0322265e+00	
   3.6960000e+01	   1.1264084e+01	   2.0648295e+00	
   3.7015000e+01	   1.1447571e+01	   1.7938473e+00	
   3.7070000e+01	   1.0959526e+01	   1.7007531e+00	
   3.7125000e+01	   1.1428725e+01	   1.8673849e+00	
   3.7180000e+01	   1.1173732e+01	   1.6338898e+00	
   3.7235000e+01	   1.0439781e+01	   1.5206182e+00	
   3.7290000e+01	   1.0852146e+01	   1.6107444e+00	
   3.7345000e+01	   1.1100657e+01	   1.7681047e+00	
   3.7400000e+01	   1.1121021e+01	   2.0081136e+00	
   3.7455000e+01	   1.1102665e+01	   1.8393430e+00	
   3.7510000e+01	   1.1753852e+01	   2.0231966e+00	
   3.7565000e+01	   1.2434684e+01	   2.0742009e+00	
   3.7620000e+01	   1.1851746e+01	   1.8692007e+00	
   3.7675000e+01	   1.1351700e+01	   1.7561445e+00	
   3.7730000e+01	   1.1856574e+01	   1.8548150e+00	
   3.7785000e+01	   1.1119792e+01	   1.8186180e+00	
   3.7840000e+01	   1.0956286e+01	   1.5694148e+00	
   3.7895000e+01	   1.0844398e+01	   1.3379364e+00	
   3.7950000e+01	   1.0384852e+01	   1.5868690e+00	
   3.8005000e+01	   1.1457593e+01	   1.7726121e+00	
   3.8060000e+01	   1.1838015e+01	   1.9785118e+00	
   3.8115000e+01	   1.1269786e+01	   1.7613472e+00	
   3.8170000e+01	   1.1422547e+01	   1.9132615e+00	
   3.8225000e+01	   1.1083798e+01	   1.8852157e+00	
   3.8280000e+01	   1.1395375e+01	   2.0156244e+00	
   3.8335000e+01	   1.0714855e+01	   1.8473427e+00	
   3.8390000e+01	   1.1264038e+01	   1.9188736e+00	
   3.8445000e+01	   1.0962470e+01	   1.8081107e+00	
   3.8500000e+01	   1.1196429e+01	   1.7145031e+00	
   3.8555000e+01	   1.0067008e+01	   1.5138696e+00	
   3.8610000e+01	   1.1407153e+01	   1.4158358e+00	
   3.8665000e+01	   1.0937143e+01	   1.7470397e+00	
   3.8720000e+01	   1.1083128e+01	   2.2040196e+00	
   3.8775000e+01	   1.1614658e+01	   1.8328311e+00	
   3.8830000e+01	   1.0952745e+01	   1.9376599e+00	
   3.8885000e+01	   1.1273573e+01	   1.8785782e+00	
   3.8940000e+01	   1.1383534e+01	   1.8373092e+00	
   3.8995000e+01	   1.1487787e+01	   1.8415732e+00	
   3.9050000e+01	   1.0796221e+01	   1.4628783e+00	
   3.9105000e+01	   1.1064269e+01	   1.8080173e+00	
   3.9160000e+01	   1.0824203e+01	   1.7393633e+00	
   3.9215000e+01	   1.0482290e+01	   1.3441584e+00	
   3.9270000e+01	   1.0653602e+01	   1.4902379e+00	
   3.9325000e+01	   1.1295532e+01	   1.8680145e+00	
   3.9380000e+01	   1.1025198e+01	   2.0325366e+00	
   3.9435000e+01	   1.1551052e+01	   2.0882167e+00	
   3.9490000e+01	   1.0923522e+01	   1.9455475e+00	
   3.9545000e+01	   1.0768335e+01	   1.9906896e+00	
   3.9600000e+01	   1.1708391e+01	   2.0092979e+00	
   3.9655000e+01	   1.1166146e+01	   1.8252479e+00	
   3.9710000e+01	   1.0236808e+01	   1.7465750e+00	
   3.9765000e+01	   1.0794949e+01	   1.4949608e+00	
   3.9820000e+01	   1.0489775e+01	   1.6317006e+00	
   3.9875000e+01	   1.0909498e+01	   1.4929300e+00	
   3.9930000e+01	   1.0486869e+01	   1.4099320e+00	
   3.9985000e+01	   1.0498863e+01	   1.8510939e+00	
   4.0040000e+01	   1.1352666e+01	   1.9391539e+00	
   4.0095000e+01	   1.1221636e+01	   2.0977460e+00	
   4.0150000e+01	   1.0781239e+01	   1.5775853e+00	
   4.0205000e+01	   1.1002137e+01	   1.8099365e+00	
   4.0260000e+01	   1.0810534e+01	   1.8719412e+00	
   4.0315000e+01	   1.1134470e+01	   1.7975877e+00	
   4.0370000e+01	   1.0208837e+01	   1.7859484e+00	
   4.0425000e+01	   1.0033550e+01	   1.6117866e+00	
   4.0480000e+01	   1.0392536e+01	   1.7157979e+00	
   4.0535000e+01	   1.0185773e+01	   1.5339372e+00	
   4.0590000e+01	   1.0123442e+01	   1.5337748e+00	
   4.0645000e+01	   1.0372362e+01	   1.8112533e+00	
   4.0700000e+01	   1.0750682e+01	   1.8737077e+00	
   4.0755000e+01	   1.0219108e+01	   2.2249349e+00	
   4.0810000e+01	   1.0340391e+01	   1.9067655e+00	
   4.0865000e+01	   1.0494475e+01	   1.8484790e+00	
   4.0920000e+01	   1.0506482e+01	   1.8694163e+00	
   4.0975000e+01	   9.9853622e+00	   1.7985724e+00	
   4.1030000e+01	   1.0364028e+01	   1.7678438e+00	
   4.1085000e+01	   9.8974805e+00	   1.6437228e+00	
   4.1140000e+01	   9.8522755e+00	   1.4096739e+00	
   4.1195000e+01	   1.0312011e+01	   1.4904125e+00	
   4.1250000e+01	   9.6311394e+00	   1.4434619e+00	
   4.1305000e+01	   9.5689528e+00	   1.4120229e+00	
   4.1360000e+01	   9.9928279e+00	   1.7316550e+00	
   4.1415000e+01	   9.9642628e+00	   1.7850852e+00	
   4.1470000e+01	   1.0732751e+01	   1.8639256e+00	
   4.1525000e+01	   1.0435190e+01	   1.7836056e+00	
   4.1580000e+01	   9.8714043e+00	   1.5696590e+00	
   4.1635000e+01	   1.0267126e+01	   1.7517858e+00	
   4.1690000e+01	   9.9900065e+00	   1.7767484e+00	
   4.1745000e+01	   9.3902428e+00	   1.4565394e+00	
   4.1800000e+01	   9.9829254e+00	   1.4275717e+00	
   4.1855000e+01	   9.5028376e+00	   1.4182759e+00	
   4.1910000e+01	   9.4059081e+00	   1.3258127e+00	
   4.1965000e+01	   9.3970579e+00	   1.1271486e+00	
   4.2020000e+01	   9.7252255e+00	   1.4090786e+00	
   4.2075000e+01	   1.0305800e+01	   1.6184744e+00	
   4.2130000e+01	   9.5717445e+00	   1.6373926e+00	
   4.2185000e+01	   9.6960375e+00	   1.4734442e+00	
   4.2240000e+01	   9.9305824e+00	   1.4684288e+00	
   4.2295000e+01	   9.8397795e+00	   1.5305352e+00	
   4.2350000e+01	   9.9780221e+00	   1.5443162e+00	
   4.2405000e+01	   9.3788585e+00	   1.5357039e+00	
   4.2460000e+01	   8.7068922e+00	   1.2008942e+00	
   4.2515000e+01	   9.2255762e+00	   1.1908125e+00	
   4.2570000e+01	   9.0315538e+00	   1.1894235e+00	
   4.2625000e+01	   8.9445113e+00	   1.4622164e+00	
   4.2680000e+01	   9.5188358e+00	   1.4600311e+00	
   4.2735000e+01	   9.1467504e+00	   1.5599446e+00	
   4.2790000e+01	   9.2548683e+00	   1.3646130e+00	
   4.2845000e+01	   9.4930017e+00	   1.4684530e+00	
   4.2900000e+01	   9.3734835e+00	   1.4196685e+00	
   4.2955000e+01	   9.1863422e+00	   1.1246585e+00	
   4.3010000e+01	   9.0691786e+00	   1.4045439e+00	
   4.3065000e+01	   8.9222151e+00	   1.3585953e+00	
   4.3120000e+01	   8.4854643e+00	   9.9231649e-01	
   4.3175000e+01	   8.0948241e+00	   1.0755667e+00	
   4.3230000e+01	   8.8338919e+00	   1.1028035e+00	
   4.3285000e+01	   9.2553688e+00	   1.5246947e+00	
   4.3340000e+01	   9.2178489e+00	   1.5421836e+00	
   4.3395000e+01	   9.2538871e+00	   1.3293266e+00	
   4.3450000e+01	   8.9345683e+00	   1.3307786e+00	
   4.3505000e+01	   9.2599981e+00	   1.2410660e+00	
   4.3560000e+01	   8.9918170e+00	   1.3591560e+00	
   4.3615000e+01	   8.4353632e+00	   1.3207769e+00	
   4.3670000e+01	   8.8579183e+00	   1.0931294e+00	
   4.3725000e+01	   8.8563294e+00	   1.1132257e+00	
   4.3780000e+01	   8.5246897e+00	   1.0692930e+00	
   4.3835000e+01	   8.4147330e+00	   9.7569777e-01	
   4.3890000e+01	   8.7361257e+00	   1.1685575e+00	
   4.3945000e+01	   8.9283058e+00	   1.3400862e+00	
   4.4000000e+01	   8.7605290e+00	   1.5050353e+00	
   4.4055000e+01	   9.1885129e+00	   1.3307335e+00	
   4.4110000e+01	   9.2505178e+00	   1.4513161e+00	
   4.4165000e+01	   9.4876871e+00	   1.5558089e+00	
   4.4220000e+01	   9.5758482e+00	   1.3713433e+00	
   4.4275000e+01	   9.3259815e+00	   1.3197238e+00	
   4.4330000e+01	   9.3764051e+00	   1.3324906e+00	
   4.4385000e+01	   9.1505088e+00	   1.4690517e+00	
   4.4440000e+01	   8.7172017e+00	   1.3055623e+00	
   4.4495000e+01	   8.5942287e+00	   9.7493753e-01	
   4.4550000e+01	   9.0257406e+00	   1.1856765e+00	
   4.4605000e+01	   9.2619900e+00	   1.3978375e+00	
   4.4660000e+01	   8.8978605e+00	   1.6493127e+00	
   4.4715000e+01	   9.0741690e+00	   1.5543271e+00	
   4.4770000e+01	   8.8093998e+00	   1.5211109e+00	
   4.4825000e+01	   9.6163685e+00	   1.6418564e+00	
   4.4880000e+01	   9.2324501e+00	   1.6256141e+00	
   4.4935000e+01	   9.1274835e+00	   1.3420851e+00	
   4.4990000e+01	   8.7563595e+00	   1.2986298e+00	
   4.5045000e+01	   9.1136547e+00	   1.3982986e+00	
   4.5100000e+01	   8.7136615e+00	   1.2267579e+00	
   4.5155000e+01	   8.5557802e+00	   1.0935984e+00	
   4.5210000e+01	   8.8952484e+00	   1.4785360e+00	
   4.5265000e+01	   9.1491811e+00	   1.6205949e+00	
   4.5320000e+01	   9.6914681e+00	   1.6603061e+00	
   4.5375000e+01	   9.5412864e+00	   1.6934033e+00	
   4.5430000e+01	   9.5724847e+00	   1.3778537e+00	
   4.5485000e+01	   8.8618038e+00	   1.4229827e+00	
   4.5540000e+01	   9.2283689e+00	   1.6736153e+00	
   4.5595000e+01	   9.5446888e+00	   1.6601104e+00	
   4.5650000e+01	   9.5119811e+00	   1.3792383e+00	
   4.5705000e+01	   9.3617554e+00	   1.1030171e+00	
   4.5760000e+01	   9.4364016e+00	   1.3067645e+00	
   4.5815000e+01	   9.4971518e+00	   1.2113178e+00	
   4.5870000e+01	   9.2589373e+00	   1.1476562e+00	
   4.5925000e+01	   8.9434098e+00	   1.4530054e+00	
   4.5980000e+01	   9.5583061e+00	   1.6444172e+00	
   4.6035000e+01	   9.9765927e+00	   1.7245459e+00	
   4.6090000e+01	  -1.9788939e+00	   1.6138819e+00	
   4.6145000e+01	  -2.1711831e+00	   1.4315359e+00	
   4.6200000e+01	   8.2390537e+00	   1.6204550e+00	
   4.6255000e+01	   9.5108846e+00	   1.5659972e+00	
   4.6310000e+01	   9.2706264e+00	   1.5235425e+00	
   4.6365000e+01	   9.0315745e+00	   1.3612675e+00	
   4.6420000e+01	   8.5856906e+00	   1.1203884e+00	
   4.6475000e+01	   9.0288207e+00	   1.2125076e+00	
   4.6530000e+01	   9.0796593e+00	   1.3325899e+00	
   4.6585000e+01	   9.6286765e+00	   1.4429162e+00	
   4.6640000e+01	   9.7478239e+00	   1.4718166e+00	
   4.6695000e+01	   9.7695511e+00	   1.6528335e+00	
   4.6750000e+01	   9.7304519e+00	   1.6705460e+00	
   4.6805000e+01	   8.9607764e+00	   1.2872207e+00	
   4.6860000e+01	   9.3240472e+00	   1.5377721e+00	
   4.6915000e+01	   9.3895161e+00	   1.4983649e+00	
   4.6970000e+01	   9.2775871e+00	   1.2981818e+00	
   4.7025000e+01	   9.0953498e+00	   1.2736945e+00	
   4.7080000e+01	   8.6144276e+00	   1.0311940e+00	
   4.7135000e+01	   9.6737868e+00	   1.4099206e+00	
   4.7190000e+01	   9.5194119e+00	   1.2343873e+00	
   4.7245000e+01	   9.7366948e+00	   1.6116382e+00	
   4.7300000e+01	   9.1886586e+00	   1.6598752e+00	
   4.7355000e+01	   1.0060052e+01	   1.6317875e+00	
   4.7410000e+01	   9.5181633e+00	   1.5981465e+00	
   4.7465000e+01	   9.1915722e+00	   1.5374611e+00	
   4.7520000e+01	   9.4659356e+00	   1.1196610e+00	
   4.7575000e+01	   9.4036527e+00	   1.4401979e+00	
   4.7630000e+01	   9.7631371e+00	   1.4793811e+00	
   4.7685000e+01	   8.7339949e+00	   1.0569363e+00	
   4.7740000e+01	   8.6226205e+00	   1.2289792e+00	
   4.7795000e+01	   9.6972865e+00	   1.3930325e+00	
   4.7850000e+01	   9.7398757e+00	   1.8161761e+00	
   4.7905000e+01	   9.6898202e+00	   1.7183823e+00	
   4.7960000e+01	   9.5201880e+00	   1.6727254e+00	
   4.8015000e+01	   9.4721377e+00	   1.7662394e+00	
   4.8070000e+01	   9.1162249e+00	   1.5482299e+00	
   4.8125000e+01	  -1.7103269e+00	   1.5535221e+00	
   4.8180000e+01	  -2.2103348e+00	   1.0896490e+00	
   4.8235000e+01	   1.0335981e+01	   1.4160649e+00	
   4.8290000e+01	   9.1277415e+00	   1.4030871e+00	
   4.8345000e+01	   9.1068001e+00	   1.3419407e+00	
   4.8400000e+01	   9.4352232e+00	   1.4442387e+00	
   4.8455000e+01	   9.1761552e+00	   1.9000807e+00	
   4.8510000e+01	   9.8217177e+00	   1.7342649e+00	
   4.8565000e+01	   9.5612012e+00	   1.8866243e+00	
   4.8620000e+01	   9.1050278e+00	   1.5354317e+00	
   4.8675000e+01	   9.2703151e+00	   1.6276182e+00	
   4.8730000e+01	  -1.8103947e+00	   1.9000807e+00	
   4.8785000e+01	  -2.1247960e+00	   1.6954357e+00	
   4.8840000e+01	  -2.1991723e+00	   1.3481538e+00	
   4.8895000e+01	   1.0023414e+01	   1.2439547e+00	
   4.8950000e+01	   8.9200060e+00	   1.4738936e+00	
   4.9005000e+01	   8.9359180e+00	   1.2201194e+00	
   4.9060000e+01	   9.1638179e+00	   1.3317106e+00	
   4.9115000e+01	   9.8281912e+00	   1.6800605e+00	
   4.9170000e+01	   9.0849843e+00	   1.7333634e+00	
   4.9225000e+01	   1.0120935e+01	   1.8481318e+00	
   4.9280000e+01	   1.0042504e+01	   1.6352870e+00	
   4.9335000e+01	   8.9636037e+00	   1.8539956e+00	
   4.9390000e+01	   9.4624458e+00	   1.7207197e+00	
   4.9445000e+01	   9.4544838e+00	   1.9291134e+00	
   4.9500000e+01	   6.9989601e+00	   1.4836035e+00	
   4.9555000e+01	  -2.2573057e+00	   1.2727063e+00	
   4.9610000e+01	   1.1139574e+01	   1.2755250e+00	
   4.9665000e+01	   8.7950390e+00	   1.2183287e+00	
   4.9720000e+01	   8.7001209e+00	   1.3243438e+00	
   4.9775000e+01	   9.6313307e+00	   1.6214870e+00	
   4.9830000e+01	   9.0519007e+00	   1.6585130e+00	
   4.9885000e+01	   9.9147636e+00	   1.6806058e+00	
   4.9940000e+01	   9.5189733e+00	   1.6185264e+00	
   4.9995000e+01	   9.8994532e+00	   1.6084784e+00	
   5.0050000e+01	   1.0039166e+01	   1.6220891e+00	
   5.0105000e+01	   4.5859842e+00	   1.5166744e+00	
   5.0160000e+01	  -1.4925657e+00	   1.4890787e+00	
   5.0215000e+01	  -2.3635113e+00	   1.2860261e+00	
   5.0270000e+01	  -2.1450573e+00	   1.3093168e+00	
   5.0325000e+01	  -2.8949242e+00	   1.2830012e+00	
   5.0380000e+01	  -2.0622904e+00	   1.4160491e+00	
   5.0435000e+01	  -2.2249262e+00	   1.2547551e+00	
   5.0490000e+01	  -2.1585926e+00	   1.6203088e+00	
   5.0545000e+01	  -1.9433767e+00	   1.6425807e+00	
   5.0600000e+01	  -1.9502539e+00	   1.6375885e+00	
   5.0655000e+01	  -2.0805026e+00	   1.4862968e+00	
   5.0710000e+01	  -1.7388549e+00	   1.4460382e+00	
   5.0765000e+01	  -1.5383392e+00	   1.4177894e+00	
   5.0820000e+01	  -2.2074022e+00	   1.2606122e+00	
   5.0875000e+01	  -2.0262779e+00	   1.3665877e+00	
   5.0930000e+01	  -2.5234377e+00	   1.2662942e+00	
   5.0985000e+01	  -2.6858161e+00	   1.1966362e+00	
   5.1040000e+01	  -1.8310223e+00	   1.2555710e+00	
   5.1095000e+01	  -2.3576953e+00	   1.2917392e+00	
   5.1150000e+01	  -2.1690523e+00	   1.3344774e+00	
   5.1205000e+01	  -2.1140214e+00	   1.4725853e+00	
   5.1260000e+01	  -2.0528994e+00	   1.4693238e+00	
   5.1315000e+01	  -1.9906934e+00	   1.5633938e+00	
   5.1370000e+01	  -2.0068465e+00	   1.3754634e+00	
   5.1425000e+01	  -2.8205609e+00	   1.2217266e+00	
   5.1480000e+01	  -2.0931589e+00	   1.3075747e+00	
   5.1535000e+01	  -2.4005816e+00	   1.3285897e+00	
   5.1590000e+01	  -2.2042083e+00	   1.0075992e+00	
   5.1645000e+01	  -2.2720954e+00	   9.1972895e-01	
   5.1700000e+01	  -2.0769175e+00	   1.3827258e+00	
   5.1755000e+01	  -1.2771092e+00	   1.4435820e+00	
   5.1810000e+01	  -1.1784053e+00	   1.4863815e+00	
   5.1865000e+01	  -1.5666405e+00	   1.6161937e+00	
   5.1920000e+01	  -1.9670000e+00	   1.3546923e+00	
   5.1975000e+01	  -1.9362845e+00	   1.2963165e+00	
   5.2030000e+01	  -1.5954583e+00	   1.3949811e+00	
   5.2085000e+01	  -1.6018210e+00	   1.3286540e+00	
   5.2140000e+01	  -1.8220979e+00	   1.2918931e+00	
   5.2195000e+01	  -1.8538162e+00	   1.1468301e+00	
   5.2250000e+01	  -1.9237278e+00	   1.1635578e+00	
   5.2305000e+01	  -2.1999750e+00	   1.1323177e+00	
   5.2360000e+01	  -2.1532979e+00	   1.1782624e+00	
   5.2415000e+01	  -1.5521748e+00	   1.3402856e+00	
   5.2470000e+01	  -1.5335012e+00	   1.6954180e+00	
   5.2525000e+01	  -1.5642922e+00	   1.5171168e+00	
   5.2580000e+01	  -1.5071959e+00	   1.4789406e+00	
   5.2635000e+01	  -1.4622480e+00	   1.7045358e+00	
   5.2690000e+01	  -1.2926345e+00	   1.3492198e+00	
   5.2745000e+01	  -1.9329920e+00	   1.2403897e+00	
   5.2800000e+01	  -1.7445495e+00	   1.0339759e+00	
   5.2855000e+01	  -1.6505440e+00	   1.2767733e+00	
   5.2910000e+01	  -2.0026162e+00	   1.0261744e+00	
   5.2965000e+01	  -1.3281536e+00	   1.0023660e+00	
   5.3020000e+01	  -1.4876798e+00	   1.2861257e+00	
   5.3075000e+01	  -2.2234426e+00	   1.6533800e+00	
   5.3130000e+01	  -2.2638937e+00	   1.4752353e+00	
   5.3185000e+01	  -1.7370235e+00	   1.5794245e+00	
   5.3240000e+01	  -1.9967907e+00	   1.6328384e+00	
   5.3295000e+01	  -2.1255902e+00	   1.6539794e+00	
   5.3350000e+01	  -1.8483797e+00	   1.5188165e+00	
   5.3405000e+01	  -2.2621501e+00	   1.2731464e+00	
   5.3460000e+01	  -2.1232806e+00	   1.1959553e+00	
   5.3515000e+01	  -2.1352085e+00	   1.2958593e+00	
   5.3570000e+01	  -2.3110838e+00	   1.2620630e+00	
   5.3625000e+01	  -1.9712388e+00	   1.2815361e+00	
   5.3680000e+01	  -1.9389946e+00	   1.5551132e+00	
   5.3735000e+01	  -1.8055755e+00	   1.5824636e+00	
   5.3790000e+01	  -1.9378372e+00	   1.7315448e+00	
   5.3845000e+01	  -1.6311395e+00	   1.5918515e+00	
   5.3900000e+01	  -2.2906132e+00	   1.4405818e+00	
   5.3955000e+01	  -1.8007988e+00	   1.5855825e+00	
   5.4010000e+01	  -1.7154293e+00	   1.6235644e+00	
   5.4065000e+01	  -2.1514268e+00	   1.3056326e+00	
   5.4120000e+01	  -2.3330980e+00	   1.1171111e+00	
   5.4175000e+01	  -2.5118895e+00	   1.1133538e+00	
   5.4230000e+01	  -2.6886585e+00	   1.2690626e+00	
   5.4285000e+01	  -1.8364501e+00	   1.4168347e+00	
   5.4340000e+01	  -1.9856330e+00	   1.3342228e+00	
   5.4395000e+01	  -1.2119405e+00	   1.5295334e+00	
   5.4450000e+01	  -1.0436708e+00	   1.5482198e+00	
   5.4505000e+01	  -1.1444361e+00	   1.4181216e+00	
   5.4560000e+01	  -1.1354297e+00	   1.3551244e+00	
   5.4615000e+01	  -1.6492110e+00	   1.4324664e+00	
   5.4670000e+01	  -1.5150616e+00	   1.7308591e+00	
   5.4725000e+01	  -1.6837868e+00	   1.3412361e+00	
   5.4780000e+01	  -1.5344657e+00	   1.2007554e+00	
   5.4835000e+01	  -2.0307517e+00	   1.2315355e+00	
   5.4890000e+01	  -1.7455739e+00	   1.4099587e+00	
   5.4945000e+01	  -7.9383320e-01	   1.5332172e+00	
   5.5000000e+01	  -1.1685944e+00	   1.4862993e+00	
   5.5055000e+01	  -1.1283609e+00	   1.5912151e+00	
   5.5110000e+01	  -9.5538900e-01	   1.5942790e+00	
   5.5165000e+01	  -1.0040461e+00	   1.6596974e+00	
   5.5220000e+01	  -1.4822256e+00	   1.3143343e+00	
   5.5275000e+01	  -1.4242015e+00	   1.4162719e+00	
   5.5330000e+01	  -1.4199783e+00	   1.3944304e+00	
   5.5385000e+01	  -1.1882553e+00	   1.4389761e+00	
   5.5440000e+01	  -1.5824038e+00	   1.1309302e+00	
   5.5495000e+01	  -1.5615472e+00	   1.4849417e+00	
   5.5550000e+01	  -1.0652845e+00	   1.6988661e+00	
   5.5605000e+01	  -9.6822959e-01	   1.8942008e+00	
   5.5660000e+01	  -1.7629539e+00	   1.7562391e+00	
   5.5715000e+01	  -1.9464118e+00	   1.5188097e+00	
   5.5770000e+01	  -2.0249553e+00	   1.6800605e+00	
   5.5825000e+01	  -1.7052867e+00	   1.6715968e+00	
   5.5880000e+01	  -1.5041573e+00	   1.5577684e+00	
   5.5935000e+01	  -2.4596202e+00	   1.4683907e+00	
   5.5990000e+01	  -2.1987799e+00	   1.3146009e+00	
   5.6045000e+01	  -1.2472439e+00	   1.5330794e+00	
   5.6100000e+01	  -1.4398493e+00	   1.4697379e+00	
   5.6155000e+01	  -1.5156067e+00	   1.4667819e+00	
   5.6210000e+01	  -1.5015376e+00	   1.7226248e+00	
   5.6265000e+01	  -1.6964257e+00	   1.7874740e+00	
   5.6320000e+01	  -1.1967430e+00	   1.8852941e+00	
   5.6375000e+01	  -1.6902612e+00	   1.5158771e+00	
   5.6430000e+01	  -1.7615160e+00	   1.6387786e+00	
   5.6485000e+01	  -1.5903641e+00	   1.7200313e+00	
   5.6540000e+01	  -1.7247647e+00	   1.5696186e+00	
   5.6595000e+01	  -1.9723410e+00	   1.4170822e+00	
   5.6650000e+01	  -2.3979375e+00	   1.2435785e+00	
   5.6705000e+01	  -2.1536887e+00	   1.5540400e+00	
   5.6760000e+01	  -1.4103589e+00	   1.7567102e+00	
   5.6815000e+01	  -1.7878688e+00	   1.8624968e+00	
   5.6870000e+01	  -1.4106049e+00	   1.8421576e+00	
   5.6925000e+01	  -1.1587023e+00	   1.7927891e+00	
   5.6980000e+01	  -1.4344127e+00	   1.9483063e+00	
   5.7035000e+01	  -1.0696344e+00	   2.0515332e+00	
   5.7090000e+01	  -1.4446362e+00	   1.7683883e+00	
   5.7145000e+01	  -1.7377220e+00	   1.8677097e+00	
   5.7200000e+01	  -1.3857660e+00	   1.9968879e+00	
   5.7255000e+01	  -1.7935802e+00	   1.5926731e+00	
   5.7310000e+01	  -2.3142390e+00	   1.4784075e+00	
   5.7365000e+01	  -1.9232416e+00	   1.5719836e+00	
   5.7420000e+01	  -1.8299248e+00	   1.7009615e+00	
   5.7475000e+01	  -1.9751644e+00	   1.9638237e+00	
   5.7530000e+01	  -1.3936115e+00	   1.9830423e+00	
   5.7585000e+01	  -1.5001025e+00	   1.7219113e+00	
   5.7640000e+01	  -1.2674900e+00	   2.0577960e+00	
   5.7695000e+01	  -1.4073760e+00	   1.8656734e+00	
   5.7750000e+01	  -1.3945417e+00	   1.7916746e+00	
   5.7805000e+01	  -1.6280634e+00	   1.7522957e+00	
   5.7860000e+01	  -1.5898116e+00	   1.7639286e+00	
   5.7915000e+01	  -1.6951832e+00	   1.7071391e+00	
   5.7970000e+01	  -1.9145085e+00	   1.4394687e+00	
   5.8025000e+01	  -1.7585815e+00	   1.4518372e+00	
   5.8080000e+01	  -1.4267901e+00	   1.6752685e+00	
   5.8135000e+01	  -6.9081327e-01	   2.0265360e+00	
   5.8190000e+01	  -9.8661155e-01	   1.8433298e+00	
   5.8245000e+01	  -1.5781324e+00	   1.8822238e+00	
   5.8300000e+01	  -1.1797457e+00	   1.8377765e+00	
   5.8355000e+01	  -1.4404741e+00	   2.0812632e+00	
   5.8410000e+01	  -1.1426186e+00	   1.8808268e+00	
   5.8465000e+01	  -2.0433125e+00	   1.6332525e+00	
   5.8520000e+01	  -1.7328271e+00	   1.7671583e+00	
   5.8575000e+01	  -1.6574365e+00	   1.5780534e+00	
   5.8630000e+01	  -2.3537637e+00	   1.3937577e+00	
   5.8685000e+01	  -1.8138726e+00	   1.2465869e+00	
   5.8740000e+01	  -1.5144590e+00	   1.6212035e+00	
   5.8795000e+01	  -1.5303917e+00	   1.6895116e+00	
   5.8850000e+01	  -1.3469769e+00	   1.8169853e+00	
   5.8905000e+01	  -1.4995577e+00	   1.6492126e+00	
   5.8960000e+01	  -1.9685832e+00	   1.4865066e+00	
   5.9015000e+01	  -8.7294107e-01	   1.8169481e+00	
   5.9070000e+01	  -1.0764290e+00	   1.6638018e+00	
   5.9125000e+01	  -1.6438406e+00	   1.4319411e+00	
   5.9180000e+01	  -1.7615727e+00	   1.4865975e+00	
   5.9235000e+01	  -1.4642034e+00	   1.5285168e+00	
   5.9290000e+01	  -1.3870933e+00	   1.4437505e+00	
   5.9345000e+01	  -1.0782897e+00	   1.5925489e+00	
   5.9400000e+01	  -1.0830600e+00	   1.5811096e+00	
   5.9455000e+01	  -1.2862414e+00	   1.8596446e+00	
   5.9510000e+01	  -8.7154158e-01	   1.8234022e+00	
   5.9565000e+01	  -1.0752038e+00	   1.7515302e+00	
   5.9620000e+01	  -1.4933359e+00	   1.6649394e+00	
   5.9675000e+01	  -1.5695105e+00	   1.7322433e+00	
   5.9730000e+01	  -7.7922594e-01	   1.7392384e+00	
   5.9785000e+01	  -1.3611266e+00	   1.2966903e+00	
   5.9840000e+01	  -1.7775414e+00	   1.3321103e+00	
   5.9895000e+01	  -1.3038537e+00	   1.4192504e+00	
   5.9950000e+01	  -1.7591997e+00	   1.4289178e+00	
   6.0005000e+01	  -1.1233162e+00	   1.7593160e+00	
   6.0060000e+01	  -1.6564922e+00	   1.7223783e+00	
   6.0115000e+01	  -1.1815709e+00	   1.7866264e+00	
   6.0170000e+01	  -5.7197817e-01	   2.0375546e+00	
   6.0225000e+01	  -1.0925410e+00	   1.9988416e+00	
   6.0280000e+01	  -1.7092310e+00	   1.6964171e+00	
   6.0335000e+01	  -1.7910606e+00	   1.6841145e+00	
   6.0390000e+01	  -1.2930316e+00	   1.6728247e+00	
   6.0445000e+01	  -1.5528747e+00	   1.6120336e+00	
   6.0500000e+01	  -1.7691429e+00	   1.3477906e+00	
   6.0555000e+01	  -1.9288943e+00	   1.5322294e+00	
   6.0610000e+01	  -1.8934973e+00	   1.7590512e+00	
   6.0665000e+01	  -1.2107111e+00	   1.8565632e+00	
   6.0720000e+01	  -1.5280159e+00	   1.8469453e+00	
   6.0775000e+01	  -1.5808330e+00	   1.7896366e+00	
   6.0830000e+01	  -1.5900203e+00	   1.9703142e+00	
   6.0885000e+01	  -6.1589943e-01	   2.0265699e+00	
   6.0940000e+01	  -1.7786024e+00	   1.6864779e+00	
   6.0995000e+01	  -1.6559349e+00	   1.4835749e+00	
   6.1050000e+01	  -1.4450002e+00	   1.7035576e+00	
   6.1105000e+01	  -1.6183672e+00	   1.6612297e+00	
   6.1160000e+01	  -1.7983053e+00	   1.3491148e+00	
   6.1215000e+01	  -2.0287824e+00	   1.4649396e+00	
   6.1270000e+01	  -1.5959059e+00	   1.6554659e+00	
   6.1325000e+01	  -1.0384436e+00	   1.9175035e+00	
   6.1380000e+01	  -1.3802952e+00	   1.6970990e+00	
   6.1435000e+01	  -1.4609323e+00	   1.7312655e+00	
   6.1490000e+01	  -1.2819815e+00	   1.8767741e+00	
   6.1545000e+01	  -1.4924762e+00	   1.9412150e+00	
   6.1600000e+01	  -1.2693002e+00	   1.7699700e+00	
   6.1655000e+01	  -1.6777122e+00	   1.7042998e+00	
   6.1710000e+01	  -1.7256493e+00	   1.5509390e+00	
   6.1765000e+01	  -1.3043497e+00	   1.7157979e+00	
   6.1820000e+01	  -2.0671832e+00	   1.6499223e+00	
   6.1875000e+01	  -2.0356647e+00	   1.3651402e+00	
   6.1930000e+01	  -1.7705697e+00	   1.4181506e+00	
   6.1985000e+01	  -1.0340864e+00	   1.7108299e+00	
   6.2040000e+01	  -1.5671395e+00	   1.8467048e+00	
   6.2095000e+01	  -1.2111267e+00	   1.8192378e+00	
   6.2150000e+01	  -1.4461138e+00	   1.5319006e+00	
   6.2205000e+01	  -1.1448033e+00	   1.7953582e+00	
   6.2260000e+01	  -8.8588231e-01	   1.8129743e+00	
   6.2315000e+01	  -1.2756488e+00	   1.7070088e+00	
   6.2370000e+01	  -1.3931021e+00	   1.6317426e+00	
   6.2425000e+01	  -9.3184871e-01	   1.7104970e+00	
   6.2480000e+01	  -1.0914790e+00	   1.4943593e+00	
   6.2535000e+01	  -1.3013687e+00	   1.4680769e+00	
   6.2590000e+01	  -1.1502303e+00	   1.3435822e+00	
   6.2645000e+01	  -1.1378766e+00	   1.5740878e+00	
   6.2700000e+01	  -4.2301385e-01	   1.8488489e+00	
   6.2755000e+01	  -5.2817406e-01	   1.7362603e+00	
   6.2810000e+01	  -9.2080340e-01	   1.6257954e+00	
   6.2865000e+01	  -2.4666382e-01	   1.5921112e+00	
   6.2920000e+01	  -4.3354243e-01	   1.7124736e+00	
   6.2975000e+01	  -3.8078474e-01	   1.4579593e+00	
   6.3030000e+01	  -1.2581925e+00	   1.4078300e+00	
   6.3085000e+01	  -1.2899060e+00	   1.3224663e+00	
   6.3140000e+01	  -1.0291332e+00	   1.5284200e+00	
   6.3195000e+01	  -1.2664573e+00	   1.3373927e+00	
   6.3250000e+01	  -1.2187852e+00	   1.1901379e+00	
   6.3305000e+01	  -8.2583921e-01	   1.3346505e+00	
   6.3360000e+01	  -1.1326048e+00	   1.5491979e+00	
   6.3415000e+01	  -2.8409103e-01	   1.9048591e+00	
   6.3470000e+01	  -1.1432104e+00	   1.5454264e+00	
   6.3525000e+01	  -6.0714154e-01	   1.6943012e+00	
   6.3580000e+01	  -6.0889639e-01	   1.5498099e+00	
   6.3635000e+01	  -4.0174098e-01	   1.6088268e+00	
   6.3690000e+01	  -1.7760486e+00	   1.2958119e+00	
   6.3745000e+01	  -1.6444850e+00	   1.2559738e+00	
   6.3800000e+01	  -1.5244635e+00	   1.4585723e+00	
   6.3855000e+01	  -1.8121340e+00	   1.0588144e+00	
   6.3910000e+01	  -1.6125942e+00	   1.0309298e+00	
   6.3965000e+01	  -1.4379569e+00	   1.3343286e+00	
   6.4020000e+01	  -1.1734497e+00	   1.7177042e+00	
   6.4075000e+01	  -7.0503553e-01	   1.6763850e+00	
   6.4130000e+01	  -9.6020006e-01	   1.4259223e+00	
   6.4185000e+01	  -1.3611662e+00	   1.4844568e+00	
   6.4240000e+01	  -1.0496061e+00	   1.5098017e+00	
   6.4295000e+01	  -8.1003362e-01	   1.4605515e+00	
   6.4350000e+01	  -1.4394291e+00	   1.4078688e+00	
   6.4405000e+01	  -1.5609817e+00	   1.3165733e+00	
   6.4460000e+01	  -1.3981207e+00	   1.2010778e+00	
   6.4515000e+01	  -1.7458202e+00	   1.0768353e+00	
   6.4570000e+01	  -1.5828423e+00	   1.2376306e+00	
   6.4625000e+01	  -1.3851431e+00	   1.5047219e+00	
   6.4680000e+01	  -9.0078452e-01	   1.4899782e+00	
   6.4735000e+01	  -8.9594315e-01	   1.7685811e+00	
   6.4790000e+01	  -7.3351396e-01	   1.5600660e+00	
   6.4845000e+01	  -1.1097395e+00	   1.3748420e+00	
   6.4900000e+01	  -6.5988620e-01	   1.4258199e+00	
   6.4955000e+01	  -7.0124639e-01	   1.5244823e+00	
   6.5010000e+01	  -6.7823575e-01	   1.3931245e+00	
   6.5065000e+01	  -1.4562611e+00	   1.2685348e+00	
   6.5120000e+01	  -1.6460494e+00	   1.0888756e+00	
   6.5175000e+01	  -9.2901821e-01	   1.3587019e+00	
   6.5230000e+01	  -1.6464096e+00	   9.4744474e-01	
   6.5285000e+01	  -1.1729847e+00	   1.1832464e+00	
   6.5340000e+01	  -1.1025653e+00	   1.3441000e+00	
   6.5395000e+01	  -7.9302796e-01	   1.5498613e+00	
   6.5450000e+01	  -4.0616683e-01	   1.4894607e+00	
   6.5505000e+01	  -6.6974571e-01	   1.3551375e+00	
   6.5560000e+01	  -7.0123674e-01	   1.2920216e+00	
   6.5615000e+01	  -4.0780844e-01	   1.2810874e+00	
   6.5670000e+01	  -9.6223651e-02	   1.2183254e+00	
   6.5725000e+01	  -4.0420536e-01	   1.4131449e+00	
   6.5780000e+01	  -8.6018610e-01	   1.0976723e+00	
   6.5835000e+01	  -5.6626040e-01	   1.0114367e+00	
   6.5890000e+01	  -8.1769564e-01	   9.9963761e-01	
   6.5945000e+01	  -1.0759503e+00	   1.0346885e+00	
   6.6000000e+01	  -3.1254296e-01	   1.1054954e+00	
   6.6055000e+01	  -9.3040336e-01	   1.4362878e+00	
   6.6110000e+01	  -1.9592303e-01	   1.5252473e+00	
   6.6165000e+01	  -4.7046224e-01	   1.4562491e+00	
   6.6220000e+01	  -8.0602897e-01	   1.0018769e+00	
   6.6275000e+01	  -2.9867414e-01	   1.2241015e+00	
   6.6330000e+01	  -2.3475137e-01	   1.3607613e+00	
   6.6385000e+01	  -3.6295468e-01	   1.3702074e+00	
   6.6440000e+01	  -1.1769113e+00	   7.8568154e-01	
   6.6495000e+01	  -9.2974243e-01	   9.0325859e-01	
   6.6550000e+01	  -1.0600914e+00	   1.2116953e+00	
   6.6605000e+01	  -1.0355820e+00	   9.4257118e-01	
   6.6660000e+01	  -6.9231110e-01	   8.7065679e-01	
   6.6715000e+01	  -5.1816783e-01	   1.0842346e+00	
   6.6770000e+01	  -4.0708258e-01	   1.4520013e+00	
   6.6825000e+01	  -5.5288479e-01	   1.3450890e+00	
   6.6880000e+01	  -7.6920871e-01	   9.9166735e-01	
   6.6935000e+01	  -7.8249167e-01	   1.2213577e+00	
   6.6990000e+01	  -1.5303512e-02	   1.3907270e+00	
   6.7045000e+01	  -8.2594509e-01	   1.2720686e+00	
   6.7100000e+01	  -8.8075732e-01	   1.0597615e+00	
   6.7155000e+01	  -8.8184453e-01	   9.6738226e-01	
   6.7210000e+01	  -4.9698773e-01	   9.5153590e-01	
   6.7265000e+01	  -1.0381950e+00	   8.5262763e-01	
   6.7320000e+01	  -1.3232915e+00	   7.7084742e-01	
   6.7375000e+01	  -6.1645302e-01	   1.1483204e+00	
   6.7430000e+01	  -3.0645027e-01	   1.2052037e+00	
   6.7485000e+01	  -3.4108581e-01	   1.3810887e+00	
   6.7540000e+01	  -6.7066436e-01	   1.4140294e+00	
   6.7595000e+01	  -1.1126663e+00	   1.0928719e+00	
   6.7650000e+01	  -5.6605652e-01	   1.1244257e+00	
   6.7705000e+01	  -6.2753912e-01	   1.3057586e+00	
   6.7760000e+01	  -1.0527562e+00	   1.2920230e+00	
   6.7815000e+01	  -1.5499459e+00	   1.0757882e+00	
   6.7870000e+01	  -1.7029296e+00	   9.5402303e-01	
   6.7925000e+01	  -1.6738099e+00	   1.1642635e+00	
   6.7980000e+01	  -1.9396537e+00	   8.3452029e-01	
   6.8035000e+01	  -1.9714144e+00	   8.7625757e-01	
   6.8090000e+01	  -1.7613091e+00	   8.9739501e-01	
   6.8145000e+01	  -1.2626453e+00	   1.2341796e+00	
   6.8200000e+01	  -1.6976313e+00	   1.4525948e+00	
   6.8255000e+01	  -1.7052650e+00	   1.3860627e+00	
   6.8310000e+01	  -1.5021925e+00	   1.0248596e+00	
   6.8365000e+01	  -1.3483229e+00	   1.4096095e+00	
   6.8420000e+01	  -8.2736993e-01	   1.2827433e+00	
   6.8475000e+01	  -1.2462064e+00	   1.3533597e+00	
   6.8530000e+01	  -1.3958591e+00	   1.0007884e+00	
   6.8585000e+01	  -1.6540170e+00	   1.1486063e+00	
   6.8640000e+01	  -1.7547091e+00	   1.0293050e+00	
   6.8695000e+01	  -1.9819418e+00	   9.9550814e-01	
   6.8750000e+01	  -2.1514621e+00	   7.6400307e-01	
   6.8805000e+01	  -1.5790870e+00	   1.2395074e+00	
   6.8860000e+01	  -1.1893031e+00	   1.3744111e+00	
   6.8915000e+01	  -1.5550802e+00	   1.3790272e+00	
   6.8970000e+01	  -1.7074220e+00	   1.1603590e+00	
   6.9025000e+01	  -1.0238669e+00	   1.2985866e+00	
   6.9080000e+01	  -1.2858927e+00	   1.5214198e+00	
   6.9135000e+01	  -1.3815936e+00	   1.3559397e+00	
   6.9190000e+01	  -7.5764266e-01	   1.2038616e+00	
   6.9245000e+01	  -1.3535599e+00	   1.1625967e+00	
   6.9300000e+01	  -7.8376964e-01	   1.1455345e+00	
   6.9355000e+01	  -7.9394912e-01	   1.1754788e+00	
   6.9410000e+01	  -1.5190217e+00	   8.5153257e-01	
   6.9465000e+01	  -1.3649753e+00	   9.4006908e-01	
   6.9520000e+01	  -5.6852991e-01	   1.0985774e+00	
   6.9575000e+01	  -7.6050438e-01	   1.2847487e+00	
   6.9630000e+01	  -8.4882889e-01	   1.0628462e+00	
   6.9685000e+01	  -9.3039692e-01	   1.1616011e+00	
   6.9740000e+01	  -8.5757051e-01	   1.2738515e+00	
   6.9795000e+01	  -5.5330927e-01	   1.3053009e+00	
   6.9850000e+01	  -1.0944893e+00	   1.0144652e+00	
   6.9905000e+01	  -7.8608601e-01	   1.1637513e+00	
   6.9960000e+01	  -1.0678548e+00	   1.1489963e+00	
   7.0015000e+01	  -1.4271605e+00	   9.4142756e-01	
   7.0070000e+01	  -1.8521566e+00	   9.4349905e-01	
   7.0125000e+01	  -1.8848286e+00	   7.4378213e-01	
   7.0180000e+01	  -1.5187217e+00	   9.3619161e-01	
   7.0235000e+01	  -1.1340250e+00	   1.1274169e+00	
   7.0290000e+01	  -1.6168347e+00	   1.2263500e+00	
   7.0345000e+01	  -1.3938914e+00	   9.2066856e-01	
   7.0400000e+01	  -1.2712642e+00	   1.1193094e+00	
   7.0455000e+01	  -7.5808719e-01	   1.0711625e+00	
   7.0510000e+01	  -1.1683299e+00	   9.4655795e-01	
   7.0565000e+01	  -8.0678358e-01	   8.8584257e-01	
   7.0620000e+01	  -1.4349083e+00	   7.7427421e-01	
   7.0675000e+01	  -1.1979300e+00	   1.0602265e+00	
   7.0730000e+01	  -1.2325870e+00	   9.2228933e-01	
   7.0785000e+01	  -2.0249573e+00	   7.2735483e-01	
   7.0840000e+01	  -1.4727090e+00	   7.5924696e-01	
   7.0895000e+01	  -1.2816203e+00	   1.0062054e+00	
   7.0950000e+01	  -1.5788180e+00	   1.1136899e+00	
   7.1005000e+01	  -1.1791491e+00	   1.1503701e+00	
   7.1060000e+01	  -1.4844700e+00	   1.2555482e+00	
   7.1115000e+01	  -1.4585842e+00	   1.0861406e+00	
   7.1170000e+01	  -1.6057504e+00	   9.6375213e-01	
   7.1225000e+01	  -1.6201961e+00	   1.0438912e+00	
   7.1280000e+01	  -1.5381418e+00	   9.0263593e-01	
   7.1335000e+01	  -9.8467864e-01	   1.0035560e+00	
   7.1390000e+01	  -1.2587593e+00	   8.8491866e-01	
   7.1445000e+01	  -1.4949346e+00	   7.2618404e-01	
   7.1500000e+01	  -1.7673551e+00	   5.0869195e-01	
   7.1555000e+01	  -1.6342250e+00	   8.5967932e-01	
   7.1610000e+01	  -1.3417287e+00	   1.0875474e+00	
   7.1665000e+01	  -1.1679523e+00	   1.1417963e+00	
   7.1720000e+01	  -1.1327318e+00	   1.1565640e+00	
   7.1775000e+01	  -1.0751207e+00	   1.0985523e+00	
   7.1830000e+01	  -5.0787302e-01	   1.2262512e+00	
   7.1885000e+01	  -8.4677003e-01	   1.1036213e+00	
   7.1940000e+01	  -1.7627502e+00	   1.1325410e+00	
   7.1995000e+01	  -1.5446179e+00	   9.9011853e-01	
   7.2050000e+01	  -1.2431832e+00	   1.0059732e+00	
   7.2105000e+01	  -1.9889369e+00	   9.1258606e-01	
   7.2160000e+01	  -1.9329091e+00	   8.5043521e-01	
   7.2215000e+01	  -1.9554550e+00	   8.3074566e-01	
   7.2270000e+01	  -1.7182869e+00	   9.6893530e-01	
   7.2325000e+01	  -1.5459654e+00	   1.1394348e+00	
   7.2380000e+01	  -1.6765707e+00	   9.1907329e-01	
   7.2435000e+01	  -1.8018186e+00	   1.0513012e+00	
   7.2490000e+01	  -1.4415289e+00	   1.1537435e+00	
   7.2545000e+01	  -7.6875881e-01	   1.1687914e+00	
   7.2600000e+01	  -1.2829674e+00	   9.9455700e-01	
   7.2655000e+01	  -1.4065404e+00	   1.0358464e+00	
   7.2710000e+01	  -1.0762591e+00	   1.3632410e+00	
   7.2765000e+01	  -1.0280959e+00	   1.0537437e+00	
   7.2820000e+01	  -1.0957687e+00	   9.3444486e-01	
   7.2875000e+01	  -1.6459884e+00	   7.0324606e-01	
   7.2930000e+01	  -1.1598389e+00	   7.3270729e-01	
   7.2985000e+01	  -1.0371270e+00	   8.7986155e-01	
   7.3040000e+01	  -1.1307962e+00	   1.0231923e+00	
   7.3095000e+01	  -1.1686465e+00	   1.2130666e+00	
   7.3150000e+01	  -8.3745396e-01	   1.2352546e+00	
   7.3205000e+01	  -9.9269083e-01	   1.2876755e+00	
   7.3260000e+01	  -7.9650019e-01	   1.0813446e+00	
   7.3315000e+01	  -1.0368322e+00	   1.0717983e+00	
   7.3370000e+01	  -1.0436438e+00	   1.1310085e+00	
   7.3425000e+01	  -6.0737293e-01	   1.2306978e+00	
   7.3480000e+01	  -9.0383470e-01	   1.0915694e+00	
   7.3535000e+01	  -1.3924782e+00	   6.8835567e-01	
   7.3590000e+01	  -1.5823316e+00	   8.3985256e-01	
   7.3645000e+01	  -1.2660040e+00	   7.8482355e-01	
   7.3700000e+01	  -1.3656289e+00	   9.9510959e-01	
   7.3755000e+01	  -1.3793905e+00	   1.1620610e+00	
   7.3810000e+01	  -6.1345142e-01	   1.1508995e+00	
   7.3865000e+01	  -5.2151864e-01	   1.2987242e+00	
   7.3920000e+01	  -9.9035573e-01	   1.1261252e+00	
   7.3975000e+01	  -1.2806463e+00	   9.6396974e-01	
   7.4030000e+01	  -9.2565586e-01	   1.1924532e+00	
   7.4085000e+01	  -7.4154011e-01	   1.1747089e+00	
   7.4140000e+01	  -9.0171094e-01	   1.1428042e+00	
   7.4195000e+01	  -1.3403282e+00	   1.0921709e+00	
   7.4250000e+01	  -1.2887694e+00	   8.4104445e-01	
   7.4305000e+01	  -1.2159410e+00	   8.1968768e-01	
   7.4360000e+01	  -1.1825853e+00	   9.6043766e-01	
   7.4415000e+01	  -1.1631502e+00	   9.5430676e-01	
   7.4470000e+01	  -1.2948721e+00	   1.0460518e+00	
   7.4525000e+01	  -1.2532615e+00	   1.1801645e+00	
   7.4580000e+01	  -9.6505809e-01	   1.4208245e+00	
   7.4635000e+01	  -9.7640030e-01	   1.2185096e+00	
   7.4690000e+01	  -1.5286638e+00	   1.2760053e+00	
   7.4745000e+01	  -1.3616918e+00	   1.1703717e+00	
   7.4800000e+01	  -1.2636549e+00	   1.2694897e+00	
   7.4855000e+01	  -1.0688986e+00	   1.0736640e+00	
   7.4910000e+01	  -1.2839681e+00	   9.7693670e-01	
   7.4965000e+01	  -1.3551795e+00	   1.0636839e+00	
   7.5020000e+01	  -1.1290068e+00	   1.0472463e+00	
   7.5075000e+01	  -1.7159996e+00	   9.2718865e-01	
   7.5130000e+01	  -1.8848968e+00	   7.4269784e-01	
   7.5185000e+01	  -1.3049020e+00	   1.1035824e+00	
   7.5240000e+01	  -9.3843349e-01	   1.5003952e+00	
   7.5295000e+01	  -1.2162436e+00	   1.3081790e+00	
   7.5350000e+01	  -1.0600554e+00	   1.2689541e+00	
   7.5405000e+01	  -9.9065099e-01	   1.2771691e+00	
   7.5460000e+01	  -1.1102623e+00	   1.5130829e+00	
   7.5515000e+01	  -8.8360269e-01	   1.3137762e+00	
   7.5570000e+01	  -1.2447670e+00	   1.0407528e+00	
   7.5625000e+01	  -7.6159218e-01	   1.1694035e+00	
   7.5680000e+01	  -1.7174070e+00	   1.0312273e+00	
   7.5735000e+01	  -1.6807473e+00	   1.1611728e+00	
   7.5790000e+01	  -1.5993888e+00	   1.1412859e+00	
   7.5845000e+01	  -2.0466787e+00	   8.4524913e-01	
   7.5900000e+01	  -1.8255657e+00	   1.0048544e+00	
   7.5955000e+01	  -1.2300083e+00	   1.2543153e+00	
   7.6010000e+01	  -1.1788644e+00	   1.1749557e+00	
   7.6065000e+01	  -1.4684810e+00	   1.1624194e+00	
   7.6120000e+01	  -5.5340319e-01	   1.4577287e+00	
   7.6175000e+01	  -5.1511121e-01	   1.6446469e+00	
   7.6230000e+01	  -4.1828343e-01	   1.2659336e+00	
   7.6285000e+01	  -1.0412936e+00	   1.0985759e+00	
   7.6340000e+01	  -1.0838968e+00	   1.2478962e+00	
   7.6395000e+01	  -8.5899178e-01	   1.2083032e+00	
   7.6450000e+01	  -1.2864677e+00	   1.3253666e+00	
   7.6505000e+01	  -1.2581470e+00	   1.1033897e+00	
   7.6560000e+01	  -8.2690101e-01	   1.0505375e+00	
   7.6615000e+01	  -1.4138850e+00	   9.4507871e-01	
   7.6670000e+01	  -1.4541964e+00	   9.7916129e-01	
   7.6725000e+01	  -7.9845275e-01	   9.1798981e-01	
   7.6780000e+01	  -7.7445021e-01	   1.3722705e+00	
   7.6835000e+01	  -2.8643691e-01	   1.5641402e+00	
   7.6890000e+01	  -4.7839014e-01	   1.3961284e+00	
   7.6945000e+01	  -6.3999004e-01	   1.5227938e+00	
   7.7000000e+01	  -9.0306374e-01	   1.0952299e+00	
   7.7055000e+01	  -8.7224122e-01	   1.1335301e+00	
   7.7110000e+01	  -4.8546263e-01	   1.3705064e+00	
   7.7165000e+01	  -1.0357057e+00	   1.0645321e+00	
   7.7220000e+01	  -1.2580153e+00	   1.1502818e+00	
   7.7275000e+01	  -1.1880396e+00	   1.1654700e+00	
   7.7330000e+01	  -9.2093905e-01	   1.2547389e+00	
   7.7385000e+01	  -1.4044145e+00	   9.8209181e-01	
   7.7440000e+01	  -9.4031658e-01	   1.0863071e+00	
   7.7495000e+01	  -8.5227959e-01	   1.4662713e+00	
   7.7550000e+01	  -5.4761297e-01	   1.4829963e+00	
   7.7605000e+01	  -6.4671300e-01	   1.4690166e+00	
   7.7660000e+01	  -9.6004976e-01	   1.3327447e+00	
   7.7715000e+01	  -9.3167743e-01	   1.2910554e+00	
   7.7770000e+01	  -6.1395537e-01	   1.4110499e+00	
   7.7825000e+01	  -4.1037296e-01	   1.3777515e+00	
   7.7880000e+01	  -1.0197334e+00	   1.1617998e+00	
   7.7935000e+01	  -9.4739548e-01	   1.0053991e+00	
   7.7990000e+01	  -8.0395941e-01	   1.1164487e+00	
   7.8045000e+01	  -9.2696531e-01	   1.1970928e+00	
   7.8100000e+01	  -1.4586744e+00	   1.0184732e+00	
   7.8155000e+01	  -1.2572138e+00	   1.0892535e+00	
   7.8210000e+01	  -3.3676502e-01	   1.3512336e+00	
   7.8265000e+01	  -1.0099034e+00	   1.4378631e+00	
   7.8320000e+01	  -8.7054314e-01	   1.5189228e+00	
   7.8375000e+01	  -9.0391620e-01	   1.4970432e+00	
   7.8430000e+01	  -7.7657672e-01	   1.5972551e+00	
   7.8485000e+01	  -6.2782314e-01	   1.4647434e+00	
   7.8540000e+01	  -8.6873338e-01	   1.4241695e+00	
   7.8595000e+01	  -9.3961843e-01	   1.1984325e+00	
   7.8650000e+01	  -1.2416806e+00	   1.0828647e+00	
   7.8705000e+01	  -9.3422058e-01	   1.2026322e+00	
   7.8760000e+01	  -1.4987394e+00	   1.2156905e+00	
   7.8815000e+01	  -1.7355775e+00	   1.0556446e+00	
   7.8870000e+01	  -1.3323287e+00	   1.2911132e+00	
   7.8925000e+01	  -5.2780538e-01	   1.7759179e+00	
   7.8980000e+01	  -5.6830166e-01	   1.5887157e+00	
   7.9035000e+01	  -1.0092312e+00	   1.4007160e+00	
   7.9090000e+01	  -3.7350677e-01	   1.6977634e+00	
   7.9145000e+01	  -5.8439091e-01	   1.7684469e+00	
   7.9200000e+01	  -5.0803956e-01	   1.7339622e+00	
   7.9255000e+01	  -1.0177499e+00	   1.4945974e+00	
   7.9310000e+01	  -8.8904741e-01	   1.3931515e+00	
   7.9365000e+01	  -8.7558932e-01	   1.5264681e+00	
   7.9420000e+01	  -1.2120466e+00	   1.2218722e+00	
   7.9475000e+01	  -1.2717997e+00	   1.2292718e+00	
   7.9530000e+01	  -1.7530265e+00	   9.9855514e-01	
   7.9585000e+01	  -2.0451721e+00	   1.1538917e+00	
   7.9640000e+01	  -1.2869932e+00	   1.4878226e+00	
   7.9695000e+01	  -1.0101799e+00	   1.6616198e+00	
   7.9750000e+01	  -1.4529403e+00	   1.3423941e+00	
   7.9805000e+01	  -1.6215751e+00	   1.6040757e+00	
   7.9860000e+01	  -8.8946634e-01	   1.8010395e+00	
   7.9915000e+01	  -5.8892435e-01	   1.6594969e+00	
   7.9970000e+01	  -1.3885877e+00	   1.5619470e+00	
   8.0025000e+01	  -1.4365934e+00	   1.5538643e+00	
   8.0080000e+01	  -1.0278242e+00	   1.4712313e+00	
   8.0135000e+01	  -1.1410184e+00	   1.4070459e+00	
   8.0190000e+01	  -1.3802696e+00	   1.4941201e+00	
   8.0245000e+01	  -1.7372613e+00	   1.4109357e+00	
   8.0300000e+01	  -1.4888566e+00	   1.4132557e+00	
   8.0355000e+01	  -1.5196478e+00	   1.5103081e+00	
   8.0410000e+01	  -1.1490795e+00	   1.5887845e+00	
   8.0465000e+01	  -9.0833776e-01	   1.6322816e+00	
   8.0520000e+01	  -6.4625759e-01	   1.7424977e+00	
   8.0575000e+01	  -5.2466967e-01	   1.8346420e+00	
   8.0630000e+01	  -6.7747252e-01	   1.6272902e+00	
   8.0685000e+01	  -4.2344550e-01	   1.6394189e+00	
   8.0740000e+01	  -5.4555676e-01	   1.8789224e+00	
   8.0795000e+01	  -9.0495201e-01	   1.6637781e+00	
   8.0850000e+01	  -8.6899048e-01	   1.3707837e+00	
   8.0905000e+01	  -8.3453090e-01	   1.3038451e+00	
   8.0960000e+01	  -9.8821024e-01	   1.2652443e+00	
   8.1015000e+01	  -9.5145446e-01	   1.3568571e+00	
   8.1070000e+01	  -5.6571144e-01	   1.3300704e+00	
   8.1125000e+01	  -6.9999454e-01	   1.4464488e+00	
   8.1180000e+01	  -8.5443722e-01	   1.7374908e+00	
   8.1235000e+01	  -3.0499070e-01	   1.8782286e+00	
   8.1290000e+01	  -4.8825841e-01	   1.6377702e+00	
   8.1345000e+01	  -9.2009281e-01	   1.4345418e+00	
   8.1400000e+01	  -7.5893766e-01	   1.6994302e+00	
   8.1455000e+01	  -2.4992116e-01	   1.7431051e+00	
   8.1510000e+01	  -7.5312474e-01	   1.6192408e+00	
   8.1565000e+01	  -7.2936518e-01	   1.4365021e+00	
   8.1620000e+01	  -1.0223131e+00	   1.3505437e+00	
   8.1675000e+01	  -6.4707680e-01	   1.4401646e+00	
   8.1730000e+01	  -9.6579508e-01	   1.1953471e+00	
   8.1785000e+01	  -3.3666378e-01	   1.3262057e+00	
   8.1840000e+01	  -4.4666650e-01	   1.5632573e+00	
   8.1895000e+01	  -5.2143460e-01	   1.6624565e+00	
   8.1950000e+01	  -2.7843643e-01	   1.6752084e+00	
   8.2005000e+01	  -7.9651950e-01	   1.6693924e+00	
   8.2060000e+01	  -5.3349496e-01	   1.5462734e+00	
   8.2115000e+01	  -4.5266208e-01	   1.4011832e+00	
   8.2170000e+01	  -4.3528546e-01	   1.4787720e+00	
   8.2225000e+01	  -6.9560555e-01	   1.4643840e+00	
   8.2280000e+01	  -6.4029277e-01	   1.2868267e+00	
   8.2335000e+01	  -8.7987539e-01	   1.2440572e+00	
   8.2390000e+01	  -3.2054841e-01	   1.4643813e+00	
   8.2445000e+01	  -8.8368230e-01	   1.4612349e+00	
   8.2500000e+01	  -9.9045432e-01	   1.2749031e+00	
   8.2555000e+01	  -8.7802843e-01	   1.5648628e+00	
   8.2610000e+01	  -2.0921862e-01	   1.7171537e+00	
   8.2665000e+01	  -2.9049011e-01	   1.8427098e+00	
   8.2720000e+01	  -3.6951042e-01	   1.5840138e+00	
   8.2775000e+01	  -5.6956254e-01	   1.6019007e+00	
   8.2830000e+01	  -7.8774342e-02	   1.7580582e+00	
   8.2885000e+01	  -5.7235999e-01	   1.4469681e+00	
   8.2940000e+01	  -6.6060730e-01	   1.1433496e+00	
   8.2995000e+01	  -4.5242381e-01	   1.4636790e+00	
   8.3050000e+01	  -6.9371892e-01	   1.3681133e+00	
   8.3105000e+01	  -6.1438787e-01	   1.4823250e+00	
   8.3160000e+01	  -8.2063547e-01	   1.1426177e+00	
   8.3215000e+01	  -9.0357123e-01	   1.3873633e+00	
   8.3270000e+01	  -1.3426886e-01	   1.4353620e+00	
   8.3325000e+01	  -1.3890173e-01	   1.7183331e+00	
   8.3380000e+01	  -2.0708666e-01	   1.7385300e+00	
   8.3435000e+01	  -4.4495520e-01	   1.4594185e+00	
   8.3490000e+01	   4.6852686e-02	   1.5485034e+00	
   8.3545000e+01	  -2.8794376e-01	   1.6971605e+00	
   8.3600000e+01	  -1.2994778e-01	   1.6472172e+00	
   8.3655000e+01	  -2.4898901e-01	   1.1658084e+00	
   8.3710000e+01	  -7.6716637e-01	   1.2493344e+00	
   8.3765000e+01	  -9.3927225e-01	   1.4883556e+00	
   8.3820000e+01	  -8.8364665e-01	   1.2571759e+00	
   8.3875000e+01	  -1.0311339e+00	   1.0984298e+00	
   8.3930000e+01	  -1.0779837e+00	   1.1474799e+00	
   8.3985000e+01	  -7.1767353e-01	   1.5180553e+00	
   8.4040000e+01	  -3.0655723e-01	   1.6492236e+00	
   8.4095000e+01	  -3.4235734e-01	   1.6735663e+00	
   8.4150000e+01	  -8.3562632e-01	   1.5454361e+00	
   8.4205000e+01	  -7.4979616e-01	   1.5251869e+00	
   8.4260000e+01	  -8.9904407e-01	   1.4264178e+00	
   8.4315000e+01	  -8.7378539e-01	   1.4028476e+00	
   8.4370000e+01	  -1.0098756e+00	   1.2428035e+00	
   8.4425000e+01	  -1.0518485e+00	   1.1665811e+00	
   8.4480000e+01	  -7.9109694e-01	   1.2190652e+00	
   8.4535000e+01	  -1.3430005e+00	   1.1310394e+00	
   8.4590000e+01	  -1.3895563e+00	   9.4482431e-01	
   8.4645000e+01	  -1.0042667e+00	   1.0402463e+00	
   8.4700000e+01	  -3.7778485e-01	   1.5802670e+00	
   8.4755000e+01	   4.1669269e-02	   1.4680441e+00	
   8.4810000e+01	  -1.5885130e-01	   1.6064929e+00	
   8.4865000e+01	  -5.7884388e-01	   1.2832357e+00	
   8.4920000e+01	  -5.9532695e-01	   1.2433507e+00	
   8.4975000e+01	  -1.0022754e-01	   1.5379569e+00	
   8.5030000e+01	  -3.7999015e-01	   1.3236754e+00	
   8.5085000e+01	  -3.8098201e-01	   1.3241622e+00	
   8.5140000e+01	  -4.6886910e-01	   1.3027654e+00	
   8.5195000e+01	   9.5720339e-03	   9.9705444e-01	
   8.5250000e+01	  -6.9253010e-01	   1.0759058e+00	
   8.5305000e+01	  -1.2545906e+00	   8.9891972e-01	
   8.5360000e+01	  -5.2356486e-01	   1.0849246e+00	
   8.5415000e+01	  -4.9186695e-01	   1.2773671e+00	
   8.5470000e+01	  -3.0616314e-01	   1.3661337e+00	
   8.5525000e+01	  -4.3682573e-01	   1.1902127e+00	
   8.5580000e+01	  -1.8199640e-01	   1.3723052e+00	
   8.5635000e+01	  -1.4089470e-01	   1.4016527e+00	
   8.5690000e+01	  -3.2729820e-01	   1.2553018e+00	
   8.5745000e+01	  -9.7275370e-01	   1.0331596e+00	
   8.5800000e+01	  -5.7752753e-01	   1.0449850e+00	
   8.5855000e+01	  -7.7952520e-01	   1.0814808e+00	
   8.5910000e+01	  -6.1942728e-01	   1.1552862e+00	
   8.5965000e+01	  -1.1012375e+00	   9.9946712e-01	
   8.6020000e+01	  -1.2744301e+00	   8.0110528e-01	
   8.6075000e+01	  -3.6758295e-01	   1.3456321e+00	
   8.6130000e+01	  -2.5215518e-01	   1.5163215e+00	
   8.6185000e+01	  -8.1895194e-01	   1.2433507e+00	
   8.6240000e+01	  -7.1130209e-01	   1.2527818e+00	
   8.6295000e+01	  -5.5173937e-01	   1.3330194e+00	
   8.6350000e+01	   5.5321617e-02	   1.5236151e+00	
   8.6405000e+01	  -4.3571094e-01	   1.1391433e+00	
   8.6460000e+01	  -8.5778924e-01	   1.1870460e+00	
   8.6515000e+01	  -8.2692699e-01	   1.1873251e+00	
   8.6570000e+01	  -3.2139070e-01	   1.3387472e+00	
   8.6625000e+01	  -4.7757362e-01	   1.1279303e+00	
   8.6680000e+01	  -1.3683981e+00	   9.1345055e-01	
   8.6735000e+01	  -8.4111353e-01	   1.1784701e+00	
   8.6790000e+01	  -2.7770521e-01	   1.1169475e+00	
   8.6845000e+01	  -2.7793881e-01	   1.4663146e+00	
   8.6900000e+01	  -2.5584232e-01	   1.2816673e+00	
   8.6955000e+01	  -2.6859512e-01	   1.5451074e+00	
   8.7010000e+01	  -5.8212791e-01	   1.5809291e+00	
   8.7065000e+01	  -1.0322526e-01	   1.5892721e+00	
   8.7120000e+01	  -2.9147398e-02	   1.3643236e+00	
   8.7175000e+01	  -4.2351728e-01	   1.2183525e+00	
   8.7230000e+01	  -4.8416126e-01	   1.2682336e+00	
   8.7285000e+01	  -1.1030267e+00	   1.1809890e+00	
   8.7340000e+01	  -1.3801469e+00	   1.0766219e+00	
   8.7395000e+01	  -1.5726138e+00	   9.9304747e-01	
   8.7450000e+01	  -1.3485977e+00	   8.9999363e-01	
   8.7505000e+01	  -3.7121107e-01	   1.5153713e+00	
   8.7560000e+01	  -6.0203540e-01	   1.3442066e+00	
   8.7615000e+01	  -9.9689794e-01	   1.5989050e+00	
   8.7670000e+01	  -7.0162781e-01	   1.4106756e+00	
   8.7725000e+01	  -3.8580654e-01	   1.6760706e+00	
   8.7780000e+01	  -3.5174186e-01	   1.5980569e+00	
   8.7835000e+01	  -1.0213970e+00	   1.2634436e+00	
   8.7890000e+01	  -9.1254392e-01	   1.3214189e+00	
   8.7945000e+01	  -9.9124903e-01	   1.4122830e+00	
   8.8000000e+01	  -9.0772181e-01	   1.4088745e+00	
   8.8055000e+01	  -1.2121626e+00	   1.1048953e+00	
   8.8110000e+01	  -1.3342465e+00	   1.1741795e+00	
   8.8165000e+01	  -1.1693165e+00	   1.2204971e+00	
   8.8220000e+01	  -9.5482354e-01	   1.2496829e+00	
   8.8275000e+01	  -5.8052493e-01	   1.2689541e+00	
   8.8330000e+01	  -8.7068180e-01	   1.6393150e+00	
   8.8385000e+01	  -5.2060495e-01	   1.6862756e+00	
   8.8440000e+01	  -3.5960854e-01	   1.7027405e+00	
   8.8495000e+01	  -8.7186930e-01	   1.4725647e+00	
   8.8550000e+01	  -9.3423088e-01	   1.4691230e+00	
   8.8605000e+01	  -2.5344567e-01	   1.5925818e+00	
   8.8660000e+01	  -5.4121269e-01	   1.4085840e+00	
   8.8715000e+01	  -7.1138406e-01	   1.5696495e+00	
   8.8770000e+01	  -1.5669137e+00	   9.7090727e-01	
   8.8825000e+01	  -1.1290851e+00	   1.3081713e+00	
   8.8880000e+01	  -1.1266890e+00	   9.2592869e-01	
   8.8935000e+01	  -1.2007041e+00	   1.0292431e+00	
   8.8990000e+01	  -6.8629345e-01	   1.2856825e+00	
   8.9045000e+01	  -8.8528481e-01	   1.4826752e+00	
   8.9100000e+01	  -6.9973276e-01	   1.6037347e+00	
   8.9155000e+01	  -4.0193860e-01	   1.3791962e+00	
   8.9210000e+01	  -7.7318971e-01	   1.3449739e+00	
   8.9265000e+01	  -1.0280816e+00	   1.2246516e+00	
   8.9320000e+01	  -5.7036103e-01	   1.3609547e+00	
   8.9375000e+01	  -1.3185955e+00	   1.3619670e+00	
   8.9430000e+01	  -1.2462553e+00	   1.2301048e+00	
   8.9485000e+01	  -1.5833596e+00	   1.0806766e+00	
   8.9540000e+01	  -1.2308843e+00	   1.1927290e+00	
   8.9595000e+01	  -1.4618841e+00	   9.7272683e-01	
   8.9650000e+01	  -1.4478768e+00	   1.0680285e+00	
   8.9705000e+01	  -1.1027878e+00	   1.2557201e+00	
   8.9760000e+01	  -1.1389382e+00	   1.4500228e+00	
   8.9815000e+01	  -7.7439765e-01	   1.4505743e+00	
   8.9870000e+01	  -6.9378863e-01	   1.3914487e+00	
   8.9925000e+01	  -5.0052598e-01	   1.3902251e+00	
   8.9980000e+01	  -1.1466022e+00	   1.4353620e+00	
   9.0035000e+01	  -1.0550808e+00	   1.2614882e+00	
   9.0090000e+01	  -1.1882837e+00	   1.2201260e+00	
   9.0145000e+01	  -1.1927336e+00	   1.0461772e+00	
   9.0200000e+01	  -1.5972281e+00	   1.0009087e+00	
   9.0255000e+01	  -1.3313839e+00	   1.1442424e+00	
   9.0310000e+01	  -1.6595855e+00	   9.4532476e-01	
   9.0365000e+01	  -1.9058131e+00	   8.3425262e-01	
   9.0420000e+01	  -1.3521865e+00	   1.0807188e+00	
   9.0475000e+01	  -5.8902770e-01	   1.4747458e+00	
   9.0530000e+01	  -1.3033194e+00	   1.2494994e+00	
   9.0585000e+01	  -9.5920747e-01	   1.2031905e+00	
   9.0640000e+01	  -1.2504097e+00	   1.2873114e+00	
   9.0695000e+01	  -1.3743388e+00	   1.4946582e+00	
   9.0750000e+01	  -1.4596537e+00	   1.2210964e+00	
   9.0805000e+01	  -1.6376264e+00	   1.1225340e+00	
   9.0860000e+01	  -1.8589454e+00	   1.1144394e+00	
   9.0915000e+01	  -1.7257407e+00	   1.0334564e+00	
   9.0970000e+01	  -1.4352291e+00	   1.2212924e+00	
   9.1025000e+01	  -2.0738978e+00	   1.2019251e+00	
   9.1080000e+01	  -2.5118629e+00	   8.6917017e-01	
   9.1135000e+01	  -1.8576565e+00	   1.0034283e+00	
   9.1190000e+01	  -1.3639329e+00	   1.3642411e+00	
   9.1245000e+01	  -1.8376418e+00	   1.2790495e+00	
   9.1300000e+01	  -1.7341082e+00	   1.5043886e+00	
   9.1355000e+01	  -1.2221212e+00	   1.3059673e+00	
   9.1410000e+01	  -1.2586446e+00	   1.4192084e+00	
   9.1465000e+01	  -1.6745779e+00	   1.3776318e+00	
   9.1520000e+01	  -1.3963472e+00	   1.2169538e+00	
   9.1575000e+01	  -1.8296188e+00	   9.7700153e-01	
   9.1630000e+01	  -1.9340837e+00	   1.1632811e+00	
   9.1685000e+01	  -1.9250581e+00	   1.0051111e+00	
   9.1740000e+01	  -2.0399383e+00	   9.7593116e-01	
   9.1795000e+01	  -2.0393115e+00	   9.2780766e-01	
   9.1850000e+01	  -2.1001025e+00	   9.2010227e-01	
   9.1905000e+01	  -1.5732841e+00	   1.3482412e+00	
   9.1960000e+01	  -1.2005672e+00	   1.3172943e+00	
   9.2015000e+01	  -1.2941434e+00	   1.2700023e+00	
   9.2070000e+01	  -9.4800386e-01	   1.1732078e+00	
   9.2125000e+01	  -7.8822311e-01	   1.5177969e+00	
   9.2180000e+01	  -3.1479867e-01	   1.2880825e+00	
   9.2235000e+01	  -8.7243688e-01	   1.3942785e+00	
   9.2290000e+01	  -1.6373207e+00	   1.0638302e+00	
   9.2345000e+01	  -1.1414259e+00	   1.0648398e+00	
   9.2400000e+01	  -7.4458265e-01	   1.2766364e+00	
   9.2455000e+01	  -1.2240705e+00	   9.8870977e-01	
   9.2510000e+01	  -1.4742427e+00	   8.2702257e-01	
   9.2565000e+01	  -1.6406048e+00	   9.7227687e-01	
   9.2620000e+01	  -5.6893036e-01	   1.2187187e+00	
   9.2675000e+01	  -8.4414436e-01	   1.0573633e+00	
   9.2730000e+01	  -1.1302938e+00	   1.2280821e+00	
   9.2785000e+01	  -8.9495686e-01	   1.1227801e+00	
   9.2840000e+01	  -8.3747817e-01	   1.2418557e+00	
   9.2895000e+01	  -6.5893907e-01	   1.2906947e+00	
   9.2950000e+01	  -1.0986238e+00	   1.1412249e+00	
   9.3005000e+01	  -1.3689230e+00	   1.1301127e+00	
   9.3060000e+01	  -9.0477995e-01	   1.1731564e+00	
   9.3115000e+01	  -1.3974633e+00	   1.0411869e+00	
   9.3170000e+01	  -1.5332084e+00	   9.8703575e-01	
   9.3225000e+01	  -2.1318558e+00	   8.5131763e-01	
   9.3280000e+01	  -1.1914618e+00	   1.0600851e+00	
   9.3335000e+01	  -1.3108221e+00	   1.0882095e+00	
   9.3390000e+01	  -1.4016752e+00	   1.1074002e+00	
   9.3445000e+01	  -1.2491762e+00	   1.1924491e+00	
   9.3500000e+01	  -9.6696719e-01	   1.3019987e+00	
   9.3555000e+01	  -9.6490286e-01	   1.3218875e+00	
   9.3610000e+01	  -9.4676240e-01	   1.2058938e+00	
   9.3665000e+01	  -1.6334030e+00	   8.4830513e-01	
   9.3720000e+01	  -1.2835821e+00	   9.9306754e-01	
   9.3775000e+01	  -1.3342449e+00	   1.2101688e+00	
   9.3830000e+01	  -1.6478986e+00	   7.7438567e-01	
   9.3885000e+01	  -1.9034981e+00	   8.0486766e-01	
   9.3940000e+01	  -1.9533544e+00	   8.8239297e-01	
   9.3995000e+01	  -9.9326686e-01	   1.1164723e+00	
   9.4050000e+01	  -1.1026407e+00	   1.2843277e+00	
   9.4105000e+01	  -8.8368612e-01	   1.2227191e+00	
   9.4160000e+01	  -8.1969801e-01	   1.2443794e+00	
   9.4215000e+01	  -1.0228742e+00	   1.1676339e+00	
   9.4270000e+01	  -6.1481791e-01	   1.3681637e+00	
   9.4325000e+01	  -1.3359408e+00	   1.2137428e+00	
   9.4380000e+01	  -1.1214612e+00	   1.0944936e+00	
   9.4435000e+01	  -1.0390225e+00	   1.1106482e+00	
   9.4490000e+01	  -1.6407698e+00	   1.0714776e+00	
   9.4545000e+01	  -1.7437230e+00	   7.5415193e-01	
   9.4600000e+01	  -1.6781822e+00	   8.8472833e-01	
   9.4655000e+01	  -1.4284024e+00	   1.2029462e+00	
   9.4710000e+01	  -1.3630590e+00	   1.2042095e+00	
   9.4765000e+01	  -1.0648479e+00	   1.2757739e+00	
   9.4820000e+01	  -8.9247704e-01	   1.1799985e+00	
   9.4875000e+01	  -9.0625276e-01	   1.3039434e+00	
   9.4930000e+01	  -7.9210734e-01	   1.4442934e+00	
   9.4985000e+01	  -7.5052337e-01	   1.3861828e+00	
   9.5040000e+01	  -1.0665265e+00	   1.0970727e+00	
   9.5095000e+01	  -9.4647508e-01	   1.0044138e+00	
   9.5150000e+01	  -7.7162787e-01	   1.2102629e+00	
   9.5205000e+01	  -6.6165090e-01	   1.1488140e+00	
   9.5260000e+01	  -1.3003460e+00	   9.7729292e-01	
   9.5315000e+01	  -1.8556744e+00	   8.1111460e-01	
   9.5370000e+01	  -4.5857482e-01	   1.2121431e+00	
   9.5425000e+01	  -1.0334928e+00	   1.0799822e+00	
   9.5480000e+01	  -9.1447788e-01	   1.2138046e+00	
   9.5535000e+01	  -7.4864097e-01	   1.2206682e+00	
   9.5590000e+01	  -8.3171435e-01	   1.3877768e+00	
   9.5645000e+01	  -8.2141650e-01	   1.4206438e+00	
   9.5700000e+01	  -6.6818273e-01	   1.3079378e+00	
   9.5755000e+01	  -7.7805504e-01	   1.0509505e+00	
   9.5810000e+01	  -6.8115553e-01	   1.0885926e+00	
   9.5865000e+01	  -9.4244988e-01	   1.0702747e+00	
   9.5920000e+01	  -5.7032513e-01	   1.0695529e+00	
   9.5975000e+01	  -1.2476786e+00	   8.3615124e-01	
   9.6030000e+01	  -8.6899357e-01	   1.1211090e+00	
   9.6085000e+01	  -7.4731155e-01	   1.1171318e+00	
   9.6140000e+01	  -8.9801472e-01	   1.2996878e+00	
   9.6195000e+01	  -1.0975999e+00	   1.0090502e+00	
   9.6250000e+01	  -8.1116249e-01	   1.0743011e+00	
   9.6305000e+01	  -6.4831694e-01	   1.2354079e+00	
   9.6360000e+01	  -6.5952954e-01	   1.2367133e+00	
   9.6415000e+01	  -8.6611290e-01	   1.1792396e+00	
   9.6470000e+01	  -6.7181577e-01	   1.2037683e+00	
   9.6525000e+01	  -6.2795257e-01	   1.2804587e+00	
   9.6580000e+01	  -1.0354513e+00	   8.2797049e-01	
   9.6635000e+01	  -1.2029708e+00	   8.2027306e-01	
   9.6690000e+01	  -1.0489751e+00	   7.6651473e-01	
   9.6745000e+01	  -9.8124147e-01	   8.8921019e-01	
   9.6800000e+01	  -7.0332998e-01	   8.7687162e-01	
   9.6855000e+01	  -9.0829796e-01	   9.3270853e-01	
   9.6910000e+01	  -7.0907630e-01	   1.1361712e+00	
   9.6965000e+01	  -4.1464425e-01	   1.3133279e+00	
   9.7020000e+01	  -6.1981527e-01	   1.2316240e+00	
   9.7075000e+01	  -8.3321370e-01	   8.9745612e-01	
   9.7130000e+01	  -8.9661449e-01	   1.1427831e+00	
   9.7185000e+01	  -7.8455640e-01	   8.7719785e-01	
   9.7240000e+01	  -6.4608009e-01	   9.4060574e-01	
   9.7295000e+01	  -6.2973441e-01	   9.5166626e-01	
   9.7350000e+01	  -1.4854894e+00	   5.9225414e-01	
   9.7405000e+01	  -1.0600557e+00	   7.7343696e-01	
   9.7460000e+01	  -1.0591219e+00	   6.7616949e-01	
   9.7515000e+01	  -5.2945307e-01	   1.0303386e+00	
   9.7570000e+01	  -5.5488471e-01	   9.2963584e-01	
   9.7625000e+01	  -8.4481004e-01	   9.0611018e-01	
   9.7680000e+01	  -8.5742371e-01	   9.5983976e-01	
   9.7735000e+01	  -2.8846827e-01	   9.2820247e-01	
   9.7790000e+01	  -6.7876744e-01	   1.0056628e+00	
   9.7845000e+01	  -1.0951727e+00	   7.5531351e-01	
   9.7900000e+01	  -7.3075259e-01	   8.0280975e-01	
   9.7955000e+01	  -9.3108600e-01	   8.3884097e-01	
   9.8010000e+01	  -1.1660157e+00	   7.4613837e-01	
   9.8065000e+01	  -1.3212731e+00	   5.9914166e-01	
   9.8120000e+01	  -1.3042878e+00	   5.5022585e-01	
   9.8175000e+01	  -1.0697152e+00	   7.2662180e-01	
   9.8230000e+01	  -1.2704647e+00	   8.4376592e-01	
   9.8285000e+01	  -1.2185563e+00	   6.8612975e-01	
   9.8340000e+01	  -1.1174555e+00	   7.9491235e-01	
   9.8395000e+01	  -5.4812090e-01	   8.2308517e-01	
   9.8450000e+01	  -6.3298252e-01	   1.0791627e+00	
   9.8505000e+01	  -9.8911212e-01	   4.5098088e-01	
   9.8560000e+01	  -8.6120256e-01	   8.9920378e-01	
   9.8615000e+01	  -3.6336843e-01	   6.6905525e-01	
   9.8670000e+01	  -1.2796957e+00	   6.9211531e-01	
   9.8725000e+01	  -1.4320782e+00	   5.7509254e-01	
   9.8780000e+01	  -1.0239010e+00	   4.2410413e-01	
   9.8835000e+01	  -1.0445860e+00	   4.1442088e-01	
   9.8890000e+01	  -8.6705033e-01	   8.5975606e-01	
   9.8945000e+01	  -9.3809590e-01	   7.0401166e-01	
   9.9000000e+01	  -1.0003547e+00	   5.8593825e-01	
   9.9055000e+01	  -4.8166628e-01	   9.7438417e-01	
   9.9110000e+01	  -6.2620523e-01	   8.9315108e-01	
   9.9165000e+01	  -5.3461074e-01	   6.8200047e-01	
   9.9220000e+01	  -2.4667617e-01	   6.6113919e-01	
   9.9275000e+01	  -7.1897411e-01	   7.2966022e-01	
   9.9330000e+01	  -7.2314240e-01	   8.3390294e-01	
   9.9385000e+01	  -6.5064490e-01	   5.2691312e-01	
   9.9440000e+01	  -1.0064472e+00	   3.3606145e-01	
   9.9495000e+01	  -1.5891874e+00	   2.8199085e-01	
   9.9550000e+01	  -6.9636982e-01	   4.8519652e-01	
   9.9605000e+01	  -1.0518525e+00	   6.7530540e-01	
   9.9660000e+01	  -1.0162489e+00	   9.4953281e-01	
   9.9715000e+01	  -8.5372793e-01	   7.0058911e-01	
   9.9770000e+01	  -9.8869140e-01	   9.3657158e-01	
   9.9825000e+01	  -3.6395456e-01	   8.6996064e-01	
   9.9880000e+01	  -1.0283549e+00	   7.6119254e-01	
   9.9935000e+01	  -1.3616162e+00	   7.9406541e-01	
   9.9990000e+01	  -6.0334731e-01	   8.2283226e-01	
   1.0004500e+02	  -1.1924588e+00	   7.7084618e-01	
   1.0010000e+02	  -1.4574122e+00	   5.0786182e-01	
   1.0015500e+02	  -1.7302081e+00	   4.5501210e-01	
   1.0021000e+02	  -1.4312586e+00	   4.2832103e-01	
   1.0026500e+02	  -1.2064529e+00	   6.4544825e-01	
   1.0032000e+02	  -1.0278412e+00	   6.3074386e-01	
   1.0037500e+02	  -7.7276965e-01	   7.4496196e-01	
   1.0043000e+02	  -5.7845593e-01	   8.4253532e-01	
   1.0048500e+02	  -7.0626816e-01	   7.8262758e-01	
   1.0054000e+02	  -7.8626790e-01	   7.7867092e-01	
   1.0059500e+02	  -9.5642932e-01	   8.2584219e-01	
   1.0065000e+02	  -1.4533813e+00	   7.8150793e-01	
   1.0070500e+02	  -5.5188857e-01	   8.0657580e-01	
   1.0076000e+02	  -1.3421969e+00	   8.1939052e-01	
   1.0081500e+02	  -9.1013823e-01	   5.1300824e-01	
   1.0087000e+02	  -1.3351274e+00	   6.0314930e-01	
   1.0092500e+02	  -1.3559057e+00	   4.8433726e-01	
   1.0098000e+02	  -1.0086726e+00	   5.4155036e-01	
   1.0103500e+02	  -1.4972268e+00	   7.1723153e-01	
   1.0109000e+02	  -9.5668592e-01	   9.4823882e-01	
   1.0114500e+02	  -7.9969790e-01	   9.0072590e-01	
   1.0120000e+02	  -8.1805901e-01	   9.4172250e-01	
   1.0125500e+02	  -8.8908971e-01	   1.0228617e+00	
   1.0131000e+02	  -1.2635733e+00	   7.3941268e-01	
   1.0136500e+02	  -1.2370168e+00	   5.9419970e-01	
   1.0142000e+02	  -8.8374647e-01	   7.6815516e-01	
   1.0147500e+02	  -1.0242785e+00	   5.6116677e-01	
   1.0153000e+02	  -1.7535448e+00	   6.7167073e-01	
   1.0158500e+02	  -1.6697131e+00	   5.6302156e-01	
   1.0164000e+02	  -1.0191117e+00	   7.8712206e-01	
   1.0169500e+02	  -8.7595393e-01	   8.7228243e-01	
   1.0175000e+02	  -8.2578545e-01	   8.4672736e-01	
   1.0180500e+02	  -9.3920620e-01	   9.6869915e-01	
   1.0186000e+02	  -9.5900226e-01	   9.6368811e-01	
   1.0191500e+02	  -1.0496734e+00	   1.1297880e+00	
   1.0197000e+02	  -1.1179912e+00	   9.1956849e-01	
   1.0202500e+02	  -1.0074555e+00	   8.7868679e-01	
   1.0208000e+02	  -7.0387970e-01	   7.4749305e-01	
   1.0213500e+02	  -1.5205634e+00	   7.4730050e-01	
   1.0219000e+02	  -1.7927706e+00	   5.7480476e-01	
   1.0224500e+02	  -1.7658050e+00	   4.4173381e-01	
   1.0230000e+02	  -1.5988862e+00	   7.3567871e-01	
   1.0235500e+02	  -1.3212296e+00	   1.0862676e+00	
   1.0241000e+02	  -1.6525841e+00	   9.1053038e-01	
   1.0246500e+02	  -1.1523983e+00	   8.0836818e-01	
   1.0252000e+02	  -1.2376369e+00	   8.9533419e-01	
   1.0257500e+02	  -1.0663342e+00	   1.0898772e+00	
   1.0263000e+02	  -1.2573382e+00	   1.2434483e+00	
   1.0268500e+02	  -1.5486699e+00	   7.3014394e-01	
   1.0274000e+02	  -1.9098332e+00	   8.3766130e-01	
   1.0279500e+02	  -1.1775708e+00	   1.0457726e+00	
   1.0285000e+02	  -1.7334707e+00	   7.2041314e-01	
   1.0290500e+02	  -2.1427238e+00	   7.9492622e-01	
   1.0296000e+02	  -1.7192465e+00	   6.5931943e-01	
   1.0301500e+02	  -1.5527262e+00	   1.2602771e+00	
   1.0307000e+02	  -1.3425730e+00	   1.3081884e+00	
   1.0312500e+02	  -1.6087741e+00	   9.2162616e-01	
   1.0318000e+02	  -1.2930689e+00	   1.3142503e+00	
   1.0323500e+02	  -1.0126168e+00	   1.2497525e+00	
   1.0329000e+02	  -5.6130629e-01	   1.3250108e+00	
   1.0334500e+02	  -1.1923587e+00	   1.0832354e+00	
   1.0340000e+02	  -1.2317569e+00	   8.7446750e-01	
   1.0345500e+02	  -1.2485554e+00	   1.0122699e+00	
   1.0351000e+02	  -1.5895179e+00	   1.1225411e+00	
   1.0356500e+02	  -1.6614848e+00	   7.0542619e-01	
   1.0362000e+02	  -1.9640809e+00	   6.6440025e-01	
   1.0367500e+02	  -1.6539507e+00	   1.1705391e+00	
   1.0373000e+02	  -1.0618339e+00	   1.2755636e+00	
   1.0378500e+02	  -1.1718365e+00	   1.1829113e+00	
   1.0384000e+02	  -1.6804520e+00	   1.0853160e+00	
   1.0389500e+02	  -1.1498772e+00	   1.1180274e+00	
   1.0395000e+02	  -1.0394608e+00	   1.5218217e+00	
   1.0400500e+02	  -1.2303881e+00	   1.1738784e+00	
   1.0406000e+02	  -1.2376962e+00	   1.0848681e+00	
   1.0411500e+02	  -1.1171742e+00	   9.3770747e-01	
   1.0417000e+02	  -1.0870674e+00	   9.5922443e-01	
   1.0422500e+02	  -1.3243636e+00	   9.2305060e-01	
   1.0428000e+02	  -1.3171778e+00	   8.1375501e-01	
   1.0433500e+02	  -1.4978716e+00	   8.4485801e-01	
   1.0439000e+02	  -1.0546820e+00	   1.3696837e+00	
   1.0444500e+02	  -7.0459162e-01	   1.4235851e+00	
   1.0450000e+02	  -1.7982002e+00	   1.1067433e+00	
   1.0455500e+02	  -1.0779696e+00	   1.2432998e+00	
   1.0461000e+02	  -1.2751548e+00	   1.2747011e+00	
   1.0466500e+02	  -1.1513336e+00	   1.3938594e+00	
   1.0472000e+02	  -1.3836131e+00	   8.8965504e-01	
   1.0477500e+02	  -1.6058970e+00	   1.1584506e+00	
   1.0483000e+02	  -1.5705212e+00	   1.1021039e+00	
   1.0488500e+02	  -2.0562596e+00	   8.2742006e-01	
   1.0494000e+02	  -1.7887745e+00	   9.2071131e-01	
   1.0499500e+02	  -1.8505883e+00	   9.5039556e-01	
   1.0505000e+02	  -1.7836641e+00	   1.3620893e+00	
   1.0510500e+02	  -1.4659042e+00	   1.5845187e+00	
   1.0516000e+02	  -1.2352849e+00	   1.2796702e+00	
   1.0521500e+02	  -1.3947183e+00	   1.2146632e+00	
   1.0527000e+02	  -1.3403749e+00	   1.2474080e+00	
   1.0532500e+02	  -7.9707588e-01	   1.1686827e+00	
   1.0538000e+02	  -1.0905531e+00	   1.1428197e+00	
   1.0543500e+02	  -1.4864298e+00	   9.6516603e-01	
   1.0549000e+02	  -1.5954547e+00	   8.5239710e-01	
   1.0554500e+02	  -1.6386548e+00	   1.0941786e+00	
   1.0560000e+02	  -1.6605929e+00	   1.0732290e+00	
   1.0565500e+02	  -1.5262640e+00	   1.5015400e+00	
   1.0571000e+02	  -1.5506637e+00	   1.3923656e+00	
   1.0576500e+02	  -1.0735377e+00	   1.5776754e+00	
   1.0582000e+02	  -1.1133369e+00	   1.5118256e+00	
   1.0587500e+02	  -1.5992812e+00	   1.6372356e+00	
   1.0593000e+02	  -1.4488537e+00	   1.2062502e+00	
   1.0598500e+02	  -1.4894104e+00	   1.5297978e+00	
   1.0604000e+02	  -1.5481147e+00	   1.3354453e+00	
   1.0609500e+02	  -1.8448583e+00	   1.3731882e+00	
   1.0615000e+02	  -1.7185006e+00	   1.1329695e+00	
   1.0620500e+02	  -1.8750746e+00	   1.0534205e+00	
   1.0626000e+02	  -1.3972334e+00	   1.1622595e+00	
   1.0631500e+02	  -1.1120727e+00	   1.4489727e+00	
   1.0637000e+02	  -1.4645439e+00	   1.3527548e+00	
   1.0642500e+02	  -1.3558877e+00	   1.5728724e+00	
   1.0648000e+02	  -1.4041510e+00	   1.6195557e+00	
   1.0653500e+02	  -1.5543221e+00	   1.5409422e+00	
   1.0659000e+02	  -1.1772080e+00	   1.3888392e+00	
   1.0664500e+02	  -1.4930899e+00	   1.5179204e+00	
   1.0670000e+02	  -1.0685634e+00	   1.4940327e+00	
   1.0675500e+02	  -1.5645975e+00	   1.3978461e+00	
   1.0681000e+02	  -1.9041727e+00	   1.4520544e+00	
   1.0686500e+02	  -1.5327058e+00	   1.1641094e+00	
   1.0692000e+02	  -1.8315213e+00	   1.3006265e+00	
   1.0697500e+02	  -2.0253356e+00	   1.0545769e+00	
   1.0703000e+02	  -1.1732646e+00	   1.1151725e+00	
   1.0708500e+02	  -1.1461153e+00	   1.4056938e+00	
   1.0714000e+02	  -1.0734051e+00	   1.6209871e+00	
   1.0719500e+02	  -1.1132702e+00	   1.6337070e+00	
   1.0725000e+02	  -1.6368873e+00	   1.6329606e+00	
   1.0730500e+02	  -1.6253464e+00	   1.4985289e+00	
   1.0736000e+02	  -1.4110776e+00	   1.4776212e+00	
   1.0741500e+02	  -1.3954207e+00	   1.5145746e+00	
   1.0747000e+02	  -1.2585698e+00	   1.4610033e+00	
   1.0752500e+02	  -1.4703527e+00	   1.3116480e+00	
   1.0758000e+02	  -1.5739608e+00	   1.3830757e+00	
   1.0763500e+02	  -1.7798965e+00	   1.1373534e+00	
   1.0769000e+02	  -1.9045219e+00	   1.2465057e+00	
   1.0774500e+02	  -1.5574954e+00	   1.1352744e+00	
   1.0780000e+02	  -1.6681907e+00	   1.3388684e+00	
   1.0785500e+02	  -1.1775424e+00	   1.2901238e+00	
   1.0791000e+02	  -1.1593368e+00	   1.8080067e+00	
   1.0796500e+02	  -1.2669284e+00	   1.5731882e+00	
   1.0802000e+02	  -1.5734565e+00	   1.3235237e+00	
   1.0807500e+02	  -1.7190664e+00	   1.5021625e+00	
   1.0813000e+02	  -1.1777684e+00	   1.3456160e+00	
   1.0818500e+02	  -1.6316902e+00	   1.3677646e+00	
   1.0824000e+02	  -1.7589664e+00	   1.2208732e+00	
   1.0829500e+02	  -1.2931705e+00	   1.2791298e+00	
   1.0835000e+02	  -1.7075601e+00	   1.1573321e+00	
   1.0840500e+02	  -1.8691138e+00	   1.0242593e+00	
   1.0846000e+02	  -2.3202136e+00	   1.1121061e+00	
   1.0851500e+02	  -1.8419586e+00	   1.3004693e+00	
   1.0857000e+02	  -1.6520321e+00	   1.4616329e+00	
   1.0862500e+02	  -1.5506826e+00	   1.4090358e+00	
   1.0868000e+02	  -1.6193761e+00	   1.3695865e+00	
   1.0873500e+02	  -1.7598605e+00	   1.4333416e+00	
   1.0879000e+02	  -1.5898575e+00	   1.2630422e+00	
   1.0884500e+02	  -1.4241820e+00	   1.4036052e+00	
   1.0890000e+02	  -1.1807937e+00	   1.4624777e+00	
   1.0895500e+02	  -2.1671214e+00	   1.0526265e+00	
   1.0901000e+02	  -1.2360067e+00	   1.0899275e+00	
   1.0906500e+02	  -1.9969972e+00	   1.0499329e+00	
   1.0912000e+02	  -2.3618037e+00	   9.9086839e-01	
   1.0917500e+02	  -2.0697090e+00	   1.1865478e+00	
   1.0923000e+02	  -1.2956963e+00	   1.4478518e+00	
   1.0928500e+02	  -1.3978935e+00	   1.5083283e+00	
   1.0934000e+02	  -1.8116795e+00	   1.4009158e+00	
   1.0939500e+02	  -1.8229542e+00	   1.2421433e+00	
   1.0945000e+02	  -1.7972644e+00	   1.2988351e+00	
   1.0950500e+02	  -1.6754092e+00	   1.3288001e+00	
   1.0956000e+02	  -1.9138017e+00	   1.1476964e+00	
   1.0961500e+02	  -1.9765541e+00	   1.0420287e+00	
   1.0967000e+02	  -1.7369715e+00	   1.1419481e+00	
   1.0972500e+02	  -2.0582557e+00	   8.9296537e-01	
   1.0978000e+02	  -1.9086009e+00	   8.9274121e-01	
   1.0983500e+02	  -1.8888682e+00	   1.2734488e+00	
   1.0989000e+02	  -1.7186037e+00	   1.3160840e+00	
   1.0994500e+02	  -1.5057738e+00	   1.4503543e+00	
   1.1000000e+02	  -1.6182051e+00	   1.2092379e+00	
   1.1005500e+02	  -1.7153090e+00	   1.0342757e+00	
   1.1011000e+02	  -1.2299043e+00	   1.1913539e+00	
   1.1016500e+02	  -1.5416686e+00	   1.4129425e+00	
   1.1022000e+02	  -1.3675168e+00	   1.3588756e+00	
   1.1027500e+02	  -2.0933175e+00	   1.3097441e+00	
   1.1033000e+02	  -2.1227773e+00	   9.4170945e-01	
   1.1038500e+02	  -1.5993400e+00	   6.8949155e-01	
   1.1044000e+02	  -1.7363700e+00	   9.6473270e-01	
   1.1049500e+02	  -1.7788420e+00	   1.1151243e+00	
   1.1055000e+02	  -1.9121319e+00	   1.0497275e+00	
   1.1060500e+02	  -1.9195207e+00	   1.1209065e+00	
   1.1066000e+02	  -1.1851516e+00	   1.5561826e+00	
   1.1071500e+02	  -1.2186004e+00	   1.3663890e+00	
   1.1077000e+02	  -1.6618487e+00	   1.0948789e+00	
   1.1082500e+02	  -1.3531882e+00	   1.1734253e+00	
   1.1088000e+02	  -1.2823459e+00	   1.1859610e+00	
   1.1093500e+02	  -1.6588556e+00	   1.3284801e+00	
   1.1099000e+02	  -2.0247740e+00	   1.0210582e+00	
   1.1104500e+02	  -1.9435598e+00	   8.8597143e-01	
   1.1110000e+02	  -1.8910145e+00	   1.1796841e+00	
   1.1115500e+02	  -1.8557430e+00	   8.2694928e-01	
   1.1121000e+02	  -2.2292251e+00	   5.1763359e-01	
   1.1126500e+02	  -1.7408318e+00	   9.8264936e-01	
   1.1132000e+02	  -1.1858508e+00	   1.3149435e+00	
   1.1137500e+02	  -9.7352472e-01	   1.2745315e+00	
   1.1143000e+02	  -1.4444647e+00	   1.3594273e+00	
   1.1148500e+02	  -1.9863766e+00	   1.0456601e+00	
   1.1154000e+02	  -1.6026040e+00	   1.0342067e+00	
   1.1159500e+02	  -1.6151882e+00	   1.0804395e+00	
   1.1165000e+02	  -1.4837773e+00	   1.1783789e+00	
   1.1170500e+02	  -1.4688314e+00	   9.2739733e-01	
   1.1176000e+02	  -1.6840237e+00	   8.7442194e-01	
   1.1181500e+02	  -1.7306218e+00	   9.2982523e-01	
   1.1187000e+02	  -1.6584697e+00	   7.6947964e-01	
   1.1192500e+02	  -2.3649270e+00	   5.5964894e-01	
   1.1198000e+02	  -1.7150564e+00	   8.2905403e-01	
   1.1203500e+02	  -1.2728055e+00	   1.0926522e+00	
   1.1209000e+02	  -1.6745669e+00	   1.1020140e+00	
   1.1214500e+02	  -2.2719068e+00	   9.8762296e-01	
   1.1220000e+02	  -1.3106138e+00	   1.1173303e+00	
   1.1225500e+02	  -1.4147700e+00	   1.0626507e+00	
   1.1231000e+02	  -8.8235512e-01	   1.1353247e+00	
   1.1236500e+02	  -1.6503521e+00	   9.2384495e-01	
   1.1242000e+02	  -1.7257570e+00	   8.7850309e-01	
   1.1247500e+02	  -2.2108863e+00	   7.2769342e-01	
   1.1253000e+02	  -2.0554667e+00	   7.3614224e-01	
   1.1258500e+02	  -2.1446445e+00	   6.4512550e-01	
   1.1264000e+02	  -2.3219317e+00	   5.7090037e-01	
   1.1269500e+02	  -1.6647627e+00	   9.1045385e-01	
   1.1275000e+02	  -1.5229840e+00	   1.0108904e+00	
   1.1280500e+02	  -1.4655089e+00	   8.2837079e-01	
   1.1286000e+02	  -1.9720738e+00	   7.1258536e-01	
   1.1291500e+02	  -1.7202373e+00	   9.6824572e-01	
   1.1297000e+02	  -1.4804004e+00	   1.0645039e+00	
   1.1302500e+02	  -2.0269679e+00	   7.5106662e-01	
   1.1308000e+02	  -1.8250898e+00	   7.0243709e-01	
   1.1313500e+02	  -2.0941363e+00	   5.4672811e-01	
   1.1319000e+02	  -1.7180567e+00	   5.6362070e-01	
   1.1324500e+02	  -2.0944979e+00	   4.7741738e-01	
   1.1330000e+02	  -1.7466816e+00	   5.8354694e-01	
   1.1335500e+02	  -1.6921914e+00	   9.2820247e-01	
   1.1341000e+02	  -1.7278197e+00	   8.5777788e-01	
   1.1346500e+02	  -1.2270915e+00	   1.0854328e+00	
   1.1352000e+02	  -2.0455664e+00	   7.8522996e-01	
   1.1357500e+02	  -1.8134575e+00	   8.7259263e-01	
   1.1363000e+02	  -1.5570794e+00	   8.1755324e-01	
   1.1368500e+02	  -1.4168253e+00	   1.0194074e+00	
   1.1374000e+02	  -1.7885575e+00	   5.6615878e-01	
   1.1379500e+02	  -2.3648144e+00	   5.9812132e-01	
   1.1385000e+02	  -2.5753319e+00	   6.0911978e-01	
   1.1390500e+02	  -2.6554854e+00	   6.8816089e-01	
   1.1396000e+02	  -1.6029636e+00	   5.9674628e-01	
   1.1401500e+02	  -2.1243079e+00	   6.9257561e-01	
   1.1407000e+02	  -1.5433069e+00	   9.8743013e-01	
   1.1412500e+02	  -1.2070468e+00	   9.4741713e-01	
   1.1418000e+02	  -1.4186823e+00	   1.0449815e+00	
   1.1423500e+02	  -2.1182838e+00	   6.9320730e-01	
   1.1429000e+02	  -1.7100888e+00	   6.9320730e-01	
   1.1434500e+02	  -1.3278221e+00	   9.7236329e-01	
   1.1440000e+02	  -1.3177915e+00	   9.1650518e-01	
   1.1445500e+02	  -1.6948766e+00	   6.9298879e-01	
   1.1451000e+02	  -1.6292719e+00	   7.0554081e-01	
   1.1456500e+02	  -1.7718169e+00	   5.5701664e-01	
   1.1462000e+02	  -2.1060606e+00	   5.9700029e-01	
   1.1467500e+02	  -2.3207241e+00	   4.3884032e-01	
   1.1473000e+02	  -2.2796259e+00	   3.8441408e-01	
   1.1478500e+02	  -1.6044800e+00	   8.1832132e-01	
   1.1484000e+02	  -1.1856287e+00	   7.8441019e-01	
   1.1489500e+02	  -1.2514033e+00	   9.0761160e-01	
   1.1495000e+02	  -1.7389925e+00	   1.0884073e+00	
   1.1500500e+02	  -1.8216043e+00	   1.0094244e+00	
   1.1506000e+02	  -1.5661326e+00	   8.7069210e-01	
   1.1511500e+02	  -1.2472836e+00	   7.8777083e-01	
   1.1517000e+02	  -1.6460658e+00	   7.4044144e-01	
   1.1522500e+02	  -1.3652433e+00	   6.9981465e-01	
   1.1528000e+02	  -1.4440799e+00	   7.2095573e-01	
   1.1533500e+02	  -2.2563731e+00	   5.1837377e-01	
   1.1539000e+02	  -1.8972983e+00	   5.5350432e-01	
   1.1544500e+02	  -2.4021419e+00	   3.1904852e-01	
   1.1550000e+02	  -1.7925695e+00	   5.7198818e-01	
   1.1555500e+02	  -1.2812298e+00	   8.1233758e-01	
   1.1561000e+02	  -1.5078878e+00	   8.8888677e-01	
   1.1566500e+02	  -1.4843173e+00	   8.3496215e-01	
   1.1572000e+02	  -8.7976005e-01	   1.0816579e+00	
   1.1577500e+02	  -1.5586041e+00	   9.0400727e-01	
   1.1583000e+02	  -1.2669826e+00	   9.3876514e-01	
   1.1588500e+02	  -1.0997854e+00	   7.4350274e-01	
   1.1594000e+02	  -8.8782888e-01	   9.1950367e-01	
   1.1599500e+02	  -1.0315921e+00	   7.1168514e-01	
   1.1605000e+02	  -1.6687520e+00	   6.4558313e-01	
   1.1610500e+02	  -1.9938092e+00	   5.3186733e-01	
   1.1616000e+02	  -1.8482221e+00	   6.6906739e-01	
   1.1621500e+02	  -2.2551846e+00	   6.0544525e-01	
   1.1627000e+02	  -1.7921826e+00	   5.6690778e-01	
   1.1632500e+02	  -1.9227540e+00	   6.1081502e-01	
   1.1638000e+02	  -1.5804595e+00	   8.4561075e-01	
   1.1643500e+02	  -1.1653713e+00	   8.9059921e-01	
   1.1649000e+02	  -1.4910489e+00	   8.6701206e-01	
   1.1654500e+02	  -1.6011045e+00	   5.5353496e-01	
   1.1660000e+02	  -1.6107803e+00	   8.3990759e-01	
   1.1665500e+02	  -1.5179312e+00	   7.7896152e-01	
   1.1671000e+02	  -1.7721496e+00	   7.5152383e-01	
   1.1676500e+02	  -1.5758546e+00	   4.7268809e-01	
   1.1682000e+02	  -1.9543954e+00	   5.9690202e-01	
   1.1687500e+02	  -2.1118779e+00	   5.1250930e-01	
   1.1693000e+02	  -2.2078074e+00	   3.7340642e-01	
   1.1698500e+02	  -2.3347766e+00	   4.2995099e-01	
   1.1704000e+02	  -2.0825137e+00	   6.3002658e-01	
   1.1709500e+02	  -1.6762561e+00	   9.1640002e-01	
   1.1715000e+02	  -1.7897850e+00	   9.8615360e-01	
   1.1720500e+02	  -1.4896090e+00	   7.3714752e-01	
   1.1726000e+02	  -1.9337982e+00	   4.1579641e-01	
   1.1731500e+02	  -1.4515577e+00	   6.9685484e-01	
   1.1737000e+02	  -1.8382834e+00	   5.3371874e-01	
   1.1742500e+02	  -2.0450172e+00	   4.3904611e-01	
   1.1748000e+02	  -2.1178996e+00	   4.3661982e-01	
   1.1753500e+02	  -2.0028416e+00	   4.2184856e-01	
   1.1759000e+02	  -1.4864820e+00	   5.8266688e-01	
   1.1764500e+02	  -1.8874901e+00	   3.3951909e-01	
   1.1770000e+02	  -2.0017616e+00	   2.9765123e-01	
   1.1775500e+02	  -1.7170328e+00	   6.0328616e-01	
   1.1781000e+02	  -1.5992173e+00	   7.1339898e-01	
   1.1786500e+02	  -1.3224576e+00	   6.8208513e-01	
   1.1792000e+02	  -1.7102572e+00	   7.1067039e-01	
   1.1797500e+02	  -1.7590979e+00	   5.6114279e-01	
   1.1803000e+02	  -1.3754735e+00	   6.5984502e-01	
   1.1808500e+02	  -1.5964586e+00	   7.1965156e-01	
   1.1814000e+02	  -1.7054768e+00	   3.5261012e-01	
   1.1819500e+02	  -2.0807063e+00	   1.4557184e-01	
   1.1825000e+02	  -1.9915792e+00	   5.7449469e-01	
   1.1830500e+02	  -2.1743563e+00	   3.1608458e-01	
   1.1836000e+02	  -2.2636083e+00	   2.2434596e-01	
   1.1841500e+02	  -2.1718326e+00	   2.0446923e-01	
   1.1847000e+02	  -1.5596781e+00	   6.5631731e-01	
   1.1852500e+02	  -1.2988920e+00	   1.0352298e+00	
   1.1858000e+02	  -1.9580269e+00	   5.3150785e-01	
   1.1863500e+02	  -1.6774374e+00	   7.0907333e-01	
   1.1869000e+02	  -1.5897583e+00	   6.6593436e-01	
   1.1874500e+02	  -1.3855505e+00	   7.7631217e-01	
   1.1880000e+02	  -1.3987867e+00	   6.1972352e-01	
   1.1885500e+02	  -1.8270208e+00	   6.1285276e-01	
   1.1891000e+02	  -1.7187092e+00	   2.7536170e-01	
   1.1896500e+02	  -1.8627132e+00	   5.9390065e-01	
   1.1902000e+02	  -1.5003278e+00	   5.0180668e-01	
   1.1907500e+02	  -2.1810646e+00	   2.3400599e-01	
   1.1913000e+02	  -1.7883513e+00	   4.5421332e-01	
   1.1918500e+02	  -1.2488613e+00	   7.1414189e-01	
   1.1924000e+02	  -1.5455628e+00	   8.1311663e-01	
   1.1929500e+02	  -1.4410564e+00	   7.6631486e-01	
   1.1935000e+02	  -1.6043285e+00	   5.4430123e-01	
   1.1940500e+02	  -1.3628821e+00	   7.0317408e-01	
   1.1946000e+02	  -1.4908474e+00	   9.0902542e-01	
   1.1951500e+02	  -1.6541440e+00	   7.2821936e-01	
   1.1957000e+02	  -1.7380021e+00	   2.7555269e-01	
   1.1962500e+02	  -1.6512887e+00	   5.8857548e-01	
   1.1968000e+02	  -1.5760999e+00	   6.7347616e-01	
   1.1973500e+02	  -2.0784818e+00	   5.4407831e-01	
   1.1979000e+02	  -2.0282821e+00	   2.5994897e-01	
   1.1984500e+02	  -1.4898270e+00	   6.2786052e-01	
   1.1990000e+02	  -1.2671331e+00	   5.8395408e-01	
   1.1995500e+02	  -1.1824984e+00	   7.3743369e-01	
   1.2001000e+02	  -1.1418024e+00	   8.2819180e-01	
   1.2006500e+02	  -5.8194093e-01	   6.4836537e-01	
   1.2012000e+02	  -3.9499719e-01	   8.9298837e-01	
   1.2017500e+02	  -7.8144264e-01	   7.7051362e-01	
   1.2023000e+02	  -9.2184298e-01	   7.0249296e-01	
   1.2028500e+02	  -1.0717499e+00	   4.7844906e-01	
   1.2034000e+02	  -6.1627279e-01	   5.7322568e-01	
   1.2039500e+02	  -9.5414286e-01	   5.4393351e-01	
   1.2045000e+02	  -1.0252506e+00	   4.8414384e-01	
   1.2050500e+02	  -9.4866432e-01	   4.6015227e-01	
   1.2056000e+02	  -9.8602485e-01	   8.1257936e-01	
   1.2061500e+02	  -9.3028136e-01	   8.2275127e-01	
   1.2067000e+02	  -6.4285061e-01	   5.5208907e-01	
   1.2072500e+02	  -8.4533067e-01	   6.0213695e-01	
   1.2078000e+02	  -7.5645039e-01	   7.1102595e-01	
   1.2083500e+02	  -6.1838776e-01	   8.7133490e-01	
   1.2089000e+02	  -7.2581901e-01	   5.4591135e-01	
   1.2094500e+02	  -1.5566761e+00	   3.0159234e-01	
   1.2100000e+02	  -1.1777912e+00	   4.8079447e-01	
   1.2105500e+02	  -1.1157302e+00	   6.1674698e-01	
   1.2111000e+02	  -1.1412792e+00	   7.0411085e-01	
   1.2116500e+02	  -6.6784493e-01	   7.4772665e-01	
   1.2122000e+02	  -5.4626808e-01	   9.6273171e-01	
   1.2127500e+02	  -5.1450701e-01	   1.1209837e+00	
   1.2133000e+02	  -5.2018201e-01	   9.2022653e-01	
   1.2138500e+02	  -4.4957227e-01	   8.1480928e-01	
   1.2144000e+02	  -6.9027807e-01	   8.1619760e-01	
   1.2149500e+02	  -8.5715169e-01	   8.8942912e-01	
   1.2155000e+02	  -7.3486013e-01	   7.3596868e-01	
   1.2160500e+02	  -7.7716838e-01	   7.5051337e-01	
   1.2166000e+02	  -9.2580924e-01	   5.7816123e-01	
   1.2171500e+02	  -1.2296348e+00	   6.6488154e-01	
   1.2177000e+02	  -5.2102459e-01	   7.9480056e-01	
   1.2182500e+02	  -3.3176848e-01	   1.0127127e+00	
   1.2188000e+02	  -1.3565980e+00	   9.7212495e-01	
   1.2193500e+02	  -7.4490474e-01	   8.3352112e-01	
   1.2199000e+02	  -6.2693919e-01	   9.9691089e-01	
   1.2204500e+02	  -1.0241207e+00	   8.3308480e-01	
   1.2210000e+02	  -9.6247050e-01	   7.6052578e-01	
   1.2215500e+02	  -9.3496362e-01	   6.7264251e-01	
   1.2221000e+02	  -8.0444126e-01	   8.0677458e-01	
   1.2226500e+02	  -1.3231095e+00	   8.7729355e-01	
   1.2232000e+02	  -1.3319197e+00	   5.5262411e-01	
   1.2237500e+02	  -1.0507908e+00	   7.8730780e-01	
   1.2243000e+02	  -6.5001011e-01	   8.6421307e-01	
   1.2248500e+02	  -1.0355196e+00	   9.6352242e-01	
   1.2254000e+02	  -1.2667574e+00	   1.0885571e+00	
   1.2259500e+02	  -1.2380057e+00	   9.0035751e-01	
   1.2265000e+02	  -9.3978046e-01	   9.0489707e-01	
   1.2270500e+02	  -9.6055023e-01	   1.0129157e+00	
   1.2276000e+02	  -1.2491974e+00	   8.8637088e-01	
   1.2281500e+02	  -1.2934574e+00	   6.3358270e-01	
   1.2287000e+02	  -1.4042812e+00	   8.4624154e-01	
   1.2292500e+02	  -1.0383941e+00	   9.0797409e-01	
   1.2298000e+02	  -1.4143008e+00	   7.7693853e-01	
   1.2303500e+02	  -1.5075009e+00	   7.3568730e-01	
   1.2309000e+02	  -5.6436065e-01	   6.6498667e-01	
   1.2314500e+02	  -8.4772788e-01	   9.7734974e-01	
   1.2320000e+02	  -5.2884177e-01	   1.2949314e+00	
   1.2325500e+02	   9.1868391e-02	   1.0926750e+00	
   1.2331000e+02	  -2.0704225e-01	   7.2651083e-01	
   1.2336500e+02	  -1.4164814e-01	   1.1917234e+00	
   1.2342000e+02	  -1.7168404e-01	   1.0399974e+00	
   1.2347500e+02	  -9.8034371e-01	   9.7721086e-01	
   1.2353000e+02	  -3.5074955e-01	   8.7585125e-01	
   1.2358500e+02	  -7.4170874e-01	   9.0703299e-01	
   1.2364000e+02	  -1.0688514e+00	   9.1370612e-01	
   1.2369500e+02	  -1.6225508e+00	   3.8594553e-01	
   1.2375000e+02	  -1.8167736e+00	   5.8379660e-01	
   1.2380500e+02	  -3.3451206e-01	   9.5665340e-01	
   1.2386000e+02	  -7.1729564e-01	   1.1464131e+00	
   1.2391500e+02	  -4.7268193e-01	   1.1913599e+00	
   1.2397000e+02	  -9.4721722e-01	   8.5185634e-01	
   1.2402500e+02	  -7.2550578e-01	   1.0604313e+00	
   1.2408000e+02	  -9.0600573e-02	   7.9525236e-01	
   1.2413500e+02	  -5.2849136e-01	   8.1847859e-01	
   1.2419000e+02	  -2.6770422e-01	   7.8384999e-01	
   1.2424500e+02	  -6.2644404e-01	   8.9773050e-01	
   1.2430000e+02	  -1.9838570e-01	   8.9323209e-01	
   1.2435500e+02	  -7.1718542e-01	   7.1837265e-01	
   1.2441000e+02	  -6.9016663e-01	   6.7857382e-01	
   1.2446500e+02	  -4.7586885e-01	   9.8472314e-01	
   1.2452000e+02	   1.5271909e-01	   1.1090805e+00	
   1.2457500e+02	  -3.8877041e-01	   1.0235936e+00	
   1.2463000e+02	  -9.0892609e-01	   1.0098756e+00	
   1.2468500e+02	  -6.2098793e-01	   8.2279829e-01	
   1.2474000e+02	  -4.3697925e-01	   9.8160548e-01	
   1.2479500e+02	  -6.4777650e-01	   8.0585477e-01	
   1.2485000e+02	  -7.8532555e-01	   6.7546739e-01	
   1.2490500e+02	  -6.4016885e-01	   7.2086312e-01	
   1.2496000e+02	  -6.6195420e-01	   7.6764047e-01	
   1.2501500e+02	  -1.0776246e+00	   6.3427248e-01	
   1.2507000e+02	  -7.2896422e-01	   6.1420837e-01	
   1.2512500e+02	  -4.9810950e-01	   1.0990355e+00	
   1.2518000e+02	  -6.4921818e-01	   1.0061865e+00	
   1.2523500e+02	  -3.5871761e-01	   9.0125137e-01	
   1.2529000e+02	  -6.3230258e-01	   9.5922443e-01	
   1.2534500e+02	  -6.3904931e-01	   8.6942159e-01	
   1.2540000e+02	  -7.9765830e-01	   7.4913051e-01	
   1.2545500e+02	  -6.3675645e-01	   1.0750270e+00	
   1.2551000e+02	  -3.6070166e-01	   8.3866720e-01	
   1.2556500e+02	  -7.6074297e-01	   4.9759588e-01	
   1.2562000e+02	  -1.2543122e+00	   6.2901852e-01	
   1.2567500e+02	  -1.2580644e+00	   6.9826121e-01	
   1.2573000e+02	  -1.4764614e+00	   5.3808467e-01	
   1.2578500e+02	  -1.0538254e+00	   5.4416047e-01	
   1.2584000e+02	  -9.9052659e-01	   8.2139405e-01	
   1.2589500e+02	  -1.1215109e+00	   1.0463766e+00	
   1.2595000e+02	  -9.1639914e-01	   1.0000595e+00	
   1.2600500e+02	  -1.4742637e+00	   9.2004940e-01	
   1.2606000e+02	  -1.7286985e+00	   8.2731385e-01	
   1.2611500e+02	  -1.0057392e+00	   1.0546893e+00	
   1.2617000e+02	  -8.1756156e-01	   1.0171900e+00	
   1.2622500e+02	  -1.7354555e+00	   7.9875699e-01	
   1.2628000e+02	  -1.6667805e+00	   7.1680659e-01	
   1.2633500e+02	  -1.4552696e+00	   5.9951825e-01	
   1.2639000e+02	  -1.7276505e+00	   6.0740156e-01	
   1.2644500e+02	  -2.1581044e+00	   5.1230578e-01	
   1.2650000e+02	  -1.4132277e+00	   8.8169490e-01	
   1.2655500e+02	  -1.3586910e+00	   9.1989849e-01	
   1.2661000e+02	  -1.4172892e+00	   1.0655268e+00	
   1.2666500e+02	  -1.6394602e+00	   1.0196441e+00	
   1.2672000e+02	  -1.6421772e+00	   7.9826113e-01	
   1.2677500e+02	  -1.4861565e+00	   9.5257873e-01	
   1.2683000e+02	  -1.2948776e+00	   1.0075652e+00	
