	
0   3   6
   0.0000000e+00	   2.4184283e+00	  -1.7229922e-02	
   5.5000000e-02	   2.3681490e+00	  -3.9144503e-02	
   1.1000000e-01	   2.3200220e+00	  -6.0788247e-02	
   1.6500000e-01	   2.2746929e+00	  -8.1879337e-02	
   2.2000000e-01	   2.2327163e+00	  -1.0215371e-01	
   2.7500000e-01	   2.1945378e+00	  -1.2137210e-01	
   3.3000000e-01	   2.1604855e+00	  -1.3932705e-01	
   3.8500000e-01	   2.1307701e+00	  -1.5584934e-01	
   4.4000000e-01	   2.1054934e+00	  -1.7081198e-01	
   4.9500000e-01	   2.0846596e+00	  -1.8413047e-01	
   5.5000000e-01	   2.0681864e+00	  -1.9575857e-01	
   6.0500000e-01	   2.0559169e+00	  -2.0568067e-01	
   6.6000000e-01	   2.0476325e+00	  -2.1390322e-01	
   7.1500000e-01	   2.0430667e+00	  -2.2044788e-01	
   7.7000000e-01	   2.0419162e+00	  -2.2534747e-01	
   8.2500000e-01	   2.0438491e+00	  -2.2864452e-01	
   8.8000000e-01	   2.0485112e+00	  -2.3039195e-01	
   9.3500000e-01	   2.0555306e+00	  -2.3065559e-01	
   9.9000000e-01	   2.0645263e+00	  -2.2951740e-01	
   1.0450000e+00	   2.0751189e+00	  -2.2707786e-01	
   1.1000000e+00	   2.0869457e+00	  -2.2345517e-01	
   1.1550000e+00	   2.0996742e+00	  -2.1877938e-01	
   1.2100000e+00	   2.1130130e+00	  -2.1318238e-01	
   1.2650000e+00	   2.1267174e+00	  -2.0678639e-01	
   1.3200000e+00	   2.1405895e+00	  -1.9969479e-01	
   1.3750000e+00	   2.1544732e+00	  -1.9198677e-01	
   1.4300000e+00	   2.1682483e+00	  -1.8371653e-01	
   1.4850000e+00	   2.1818249e+00	  -1.7491681e-01	
   1.5400000e+00	   2.1951390e+00	  -1.6560592e-01	
   1.5950000e+00	   2.2081496e+00	  -1.5579687e-01	
   1.6500000e+00	   2.2208338e+00	  -1.4550706e-01	
   1.7050000e+00	   2.2331838e+00	  -1.3476622e-01	
   1.7600000e+00	   2.2452077e+00	  -1.2361936e-01	
   1.8150000e+00	   2.2569365e+00	  -1.1212311e-01	
   1.8700000e+00	   2.2684351e+00	  -1.0033714e-01	
   1.9250000e+00	   2.2798119e+00	  -8.8314267e-02	
   1.9800000e+00	   2.2912214e+00	  -7.6092943e-02	
   2.0350000e+00	   2.3028570e+00	  -6.3694099e-02	
   2.0900000e+00	   2.3149355e+00	  -5.1123515e-02	
   2.1450000e+00	   2.3276742e+00	  -3.8378886e-02	
   2.2000000e+00	   2.3412678e+00	  -2.5459378e-02	
   2.2550000e+00	   2.3558652e+00	  -1.2375406e-02	
   2.3100000e+00	   2.3715510e+00	   8.4335062e-04	
   2.3650000e+00	   2.3883336e+00	   1.4143649e-02	
   2.4200000e+00	   2.4061412e+00	   2.7449631e-02	
   2.4750000e+00	   2.4248293e+00	   4.0669127e-02	
   2.5300000e+00	   2.4441960e+00	   5.3703951e-02	
   2.5850000e+00	   2.4640041e+00	   6.6462049e-02	
   2.6400000e+00	   2.4840027e+00	   7.8868854e-02	
   2.6950000e+00	   2.5039465e+00	   9.0874967e-02	
   2.7500000e+00	   2.5236097e+00	   1.0245809e-01	
   2.8050000e+00	   2.5427926e+00	   1.1361914e-01	
   2.8600000e+00	   2.5613220e+00	   1.2437405e-01	
   2.9150000e+00	   2.5790473e+00	   1.3474309e-01	
   2.9700000e+00	   2.5958324e+00	   1.4473900e-01	
   3.0250000e+00	   2.6115487e+00	   1.5435556e-01	
   3.0800000e+00	   2.6260683e+00	   1.6355963e-01	
   3.1350000e+00	   2.6392594e+00	   1.7228901e-01	
   3.1900000e+00	   2.6509876e+00	   1.8045693e-01	
   3.2450000e+00	   2.6611203e+00	   1.8796306e-01	
   3.3000000e+00	   2.6695356e+00	   1.9470898e-01	
   3.3550000e+00	   2.6761329e+00	   2.0061427e-01	
   3.4100000e+00	   2.6808435e+00	   2.0562879e-01	
   3.4650000e+00	   2.6836385e+00	   2.0973958e-01	
   3.5200000e+00	   2.6845331e+00	   2.1297281e-01	
   3.5750000e+00	   2.6835866e+00	   2.1539128e-01	
   3.6300000e+00	   2.6808967e+00	   2.1708746e-01	
   3.6850000e+00	   2.6765898e+00	   2.1817273e-01	
   3.7400000e+00	   2.6708087e+00	   2.1876508e-01	
   3.7950000e+00	   2.6637020e+00	   2.1897730e-01	
   3.8500000e+00	   2.6554189e+00	   2.1890882e-01	
   3.9050000e+00	   2.6461080e+00	   2.1864316e-01	
   3.9600000e+00	   2.6359240e+00	   2.1825104e-01	
   4.0150000e+00	   2.6250363e+00	   2.1779638e-01	
   4.0700000e+00	   2.6136387e+00	   2.1734207e-01	
   4.1250000e+00	   2.6019547e+00	   2.1695377e-01	
   4.1800000e+00	   2.5902393e+00	   2.1670121e-01	
   4.2350000e+00	   2.5787740e+00	   2.1665671e-01	
   4.2900000e+00	   2.5678591e+00	   2.1689095e-01	
   4.3450000e+00	   2.5578018e+00	   2.1746680e-01	
   4.4000000e+00	   2.5489021e+00	   2.1843260e-01	
   4.4550000e+00	   2.5414384e+00	   2.1981609e-01	
   4.5100000e+00	   2.5356549e+00	   2.2162009e-01	
   4.5650000e+00	   2.5317526e+00	   2.2382174e-01	
   4.6200000e+00	   2.5298879e+00	   2.2637720e-01	
   4.6750000e+00	   2.5301762e+00	   2.2923094e-01	
   4.7300000e+00	   2.5326983e+00	   2.3232555e-01	
   4.7850000e+00	   2.5375055e+00	   2.3560880e-01	
   4.8400000e+00	   2.5446210e+00	   2.3903756e-01	
   4.8950000e+00	   2.5540398e+00	   2.4257867e-01	
   4.9500000e+00	   2.5657250e+00	   2.4620664e-01	
   5.0050000e+00	   2.5796026e+00	   2.4989863e-01	
   5.0600000e+00	   2.5955564e+00	   2.5362746e-01	
   5.1150000e+00	   2.6134210e+00	   2.5735374e-01	
   5.1700000e+00	   2.6329737e+00	   2.6101810e-01	
   5.2250000e+00	   2.6539260e+00	   2.6453577e-01	
   5.2800000e+00	   2.6759192e+00	   2.6779602e-01	
   5.3350000e+00	   2.6985294e+00	   2.7066802e-01	
   5.3900000e+00	   2.7212823e+00	   2.7301200e-01	
   5.4450000e+00	   2.7436757e+00	   2.7469267e-01	
   5.5000000e+00	   2.7652036e+00	   2.7559118e-01	
   5.5550000e+00	   2.7853797e+00	   2.7561369e-01	
   5.6100000e+00	   2.8037526e+00	   2.7469527e-01	
   5.6650000e+00	   2.8199136e+00	   2.7279942e-01	
   5.7200000e+00	   2.8334957e+00	   2.6991398e-01	
   5.7750000e+00	   2.8441689e+00	   2.6604418e-01	
   5.8300000e+00	   2.8516337e+00	   2.6120405e-01	
   5.8850000e+00	   2.8556161e+00	   2.5540804e-01	
   5.9400000e+00	   2.8558660e+00	   2.4866547e-01	
   5.9950000e+00	   2.8521639e+00	   2.4097926e-01	
   6.0500000e+00	   2.8443347e+00	   2.3234945e-01	
   6.1050000e+00	   2.8322694e+00	   2.2278130e-01	
   6.1600000e+00	   2.8159514e+00	   2.1229577e-01	
   6.2150000e+00	   2.7954828e+00	   2.0093930e-01	
   6.2700000e+00	   2.7711057e+00	   1.8878980e-01	
   6.3250000e+00	   2.7432164e+00	   1.7595836e-01	
   6.3800000e+00	   2.7123720e+00	   1.6258753e-01	
   6.4350000e+00	   2.6792924e+00	   1.4884679e-01	
   6.4900000e+00	   2.6448549e+00	   1.3492494e-01	
   6.5450000e+00	   2.6100808e+00	   1.2101967e-01	
   6.6000000e+00	   2.5761151e+00	   1.0732571e-01	
   6.6550000e+00	   2.5442010e+00	   9.4023934e-02	
   6.7100000e+00	   2.5156469e+00	   8.1273931e-02	
   6.7650000e+00	   2.4917822e+00	   6.9211413e-02	
   6.8200000e+00	   2.4739019e+00	   5.7950378e-02	
   6.8750000e+00	   2.4631982e+00	   4.7588531e-02	
   6.9300000e+00	   2.4606760e+00	   3.8213052e-02	
   6.9850000e+00	   2.4670487e+00	   2.9904446e-02	
   7.0400000e+00	   2.4826140e+00	   2.2738183e-02	
   7.0950000e+00	   2.5071141e+00	   1.6784363e-02	
   7.1500000e+00	   2.5396025e+00	   1.2104799e-02	
   7.2050000e+00	   2.5783573e+00	   8.7472095e-03	
   7.2600000e+00	   2.6208876e+00	   6.7377018e-03	
   7.3150000e+00	   2.6640337e+00	   6.0736120e-03	
   7.3700000e+00	   2.7041221e+00	   6.7186369e-03	
   7.4250000e+00	   2.7371382e+00	   8.6021355e-03	
   7.4800000e+00	   2.7589003e+00	   1.1623791e-02	
   7.5350000e+00	   2.7652312e+00	   1.5662546e-02	
   7.5900000e+00	   2.7521230e+00	   2.0586758e-02	
   7.6450000e+00	   2.7158931e+00	   2.6262974e-02	
   7.7000000e+00	   2.6533314e+00	   3.2562345e-02	
   7.7550000e+00	   2.5618360e+00	   3.9364094e-02	
   7.8100000e+00	   2.4395374e+00	   4.6555659e-02	
   7.8650000e+00	   2.2854067e+00	   5.4030312e-02	
   7.9200000e+00	   2.0993489e+00	   6.1684267e-02	
   7.9750000e+00	   1.8822829e+00	   6.9415154e-02	
   8.0300000e+00	   1.6362073e+00	   7.7123174e-02	
   8.0850000e+00	   1.3642481e+00	   8.4716046e-02	
   8.1400000e+00	   1.0706785e+00	   9.2117833e-02	
   8.1950000e+00	   7.6090340e-01	   9.9279477e-02	
   8.2500000e+00	   4.4139380e-01	   1.0618760e-01	
   8.3050000e+00	   1.1956340e-01	   1.1286898e-01	
   8.3600000e+00	  -1.9642337e-01	   1.1938979e-01	
   8.4150000e+00	  -4.9791691e-01	   1.2584937e-01	
   8.4700000e+00	  -7.7612407e-01	   1.3236955e-01	
   8.5250000e+00	  -1.0225135e+00	   1.3908192e-01	
   8.5800000e+00	  -1.2292449e+00	   1.4611572e-01	
   8.6350000e+00	  -1.3895683e+00	   1.5358746e-01	
   8.6900000e+00	  -1.4981496e+00	   1.6159309e-01	
   8.7450000e+00	  -1.5513107e+00	   1.7020364e-01	
   8.8000000e+00	  -1.5471821e+00	   1.7946542e-01	
   8.8550000e+00	  -1.4857728e+00	   1.8940347e-01	
   8.9100000e+00	  -1.3689617e+00	   2.0002533e-01	
   8.9650000e+00	  -1.2004165e+00	   2.1132361e-01	
   9.0200000e+00	  -9.8544083e-01	   2.2327733e-01	
   9.0750000e+00	  -7.3074457e-01	   2.3585256e-01	
   9.1300000e+00	  -4.4413490e-01	   2.4900190e-01	
   9.1850000e+00	  -1.3413910e-01	   2.6266260e-01	
   9.2400000e+00	   1.9040241e-01	   2.7675424e-01	
   9.2950000e+00	   5.2072121e-01	   2.9117813e-01	
   9.3500000e+00	   8.4844811e-01	   3.0581995e-01	
   9.4050000e+00	   1.1658734e+00	   3.2055648e-01	
   9.4600000e+00	   1.4661452e+00	   3.3526519e-01	
   9.5150000e+00	   1.7434127e+00	   3.4983409e-01	
   9.5700000e+00	   1.9929167e+00	   3.6416852e-01	
   9.6250000e+00	   2.2110318e+00	   3.7819379e-01	
   9.6800000e+00	   2.3952702e+00	   3.9185401e-01	
   9.7350000e+00	   2.5442559e+00	   4.0510881e-01	
   9.7900000e+00	   2.6576794e+00	   4.1792853e-01	
   9.8450000e+00	   2.7362329e+00	   4.3028823e-01	
   9.9000000e+00	   2.7815298e+00	   4.4216132e-01	
   9.9550000e+00	   2.7960058e+00	   4.5351466e-01	
   1.0010000e+01	   2.7828052e+00	   4.6430737e-01	
   1.0065000e+01	   2.7456536e+00	   4.7449449e-01	
   1.0120000e+01	   2.6887208e+00	   4.8403445e-01	
   1.0175000e+01	   2.6164735e+00	   4.9289734e-01	
   1.0230000e+01	   2.5335162e+00	   5.0107090e-01	
   1.0285000e+01	   2.4444144e+00	   5.0856177e-01	
   1.0340000e+01	   2.3534975e+00	   5.1539195e-01	
   1.0395000e+01	   2.2646590e+00	   5.2159130e-01	
   1.0450000e+01	   2.1811967e+00	   5.2718838e-01	
   1.0505000e+01	   2.1057399e+00	   5.3220213e-01	
   1.0560000e+01	   2.0402605e+00	   5.3663698e-01	
   1.0615000e+01	   1.9861229e+00	   5.4048323e-01	
   1.0670000e+01	   1.9441293e+00	   5.4372327e-01	
   1.0725000e+01	   1.9145349e+00	   5.4634147e-01	
   1.0780000e+01	   1.8970311e+00	   5.4833446e-01	
   1.0835000e+01	   1.8906947e+00	   5.4971838e-01	
   1.0890000e+01	   1.8939221e+00	   5.5053129e-01	
   1.0945000e+01	   1.9043947e+00	   5.5083069e-01	
   1.1000000e+01	   1.9191244e+00	   5.5068768e-01	
   1.1055000e+01	   1.9345969e+00	   5.5017935e-01	
   1.1110000e+01	   1.9469728e+00	   5.4938111e-01	
   1.1165000e+01	   1.9522987e+00	   5.4836041e-01	
   1.1220000e+01	   1.9466955e+00	   5.4717394e-01	
   1.1275000e+01	   1.9265143e+00	   5.4586996e-01	
   1.1330000e+01	   1.8884574e+00	   5.4449430e-01	
   1.1385000e+01	   1.8296596e+00	   5.4309652e-01	
   1.1440000e+01	   1.7477251e+00	   5.4173281e-01	
   1.1495000e+01	   1.6407219e+00	   5.4046414e-01	
   1.1550000e+01	   1.5071544e+00	   5.3935002e-01	
   1.1605000e+01	   1.3459567e+00	   5.3843948e-01	
   1.1660000e+01	   1.1565510e+00	   5.3776192e-01	
   1.1715000e+01	   9.3897369e-01	   5.3732055e-01	
   1.1770000e+01	   6.9402529e-01	   5.3708939e-01	
   1.1825000e+01	   4.2339262e-01	   5.3701467e-01	
   1.1880000e+01	   1.2971299e-01	   5.3702103e-01	
   1.1935000e+01	  -1.8343473e-01	   5.3702171e-01	
   1.1990000e+01	  -5.1162344e-01	   5.3692984e-01	
   1.2045000e+01	  -8.4976168e-01	   5.3666798e-01	
   1.2100000e+01	  -1.1923573e+00	   5.3617459e-01	
   1.2155000e+01	  -1.5338222e+00	   5.3540662e-01	
   1.2210000e+01	  -1.8687635e+00	   5.3433825e-01	
   1.2265000e+01	  -2.1922226e+00	   5.3295629e-01	
   1.2320000e+01	  -2.4998482e+00	   5.3125371e-01	
   1.2375000e+01	  -2.7880083e+00	   5.2922267e-01	
   1.2430000e+01	  -3.0538484e+00	   5.2684896e-01	
   1.2485000e+01	  -3.2953042e+00	   5.2410996e-01	
   1.2540000e+01	  -3.5110742e+00	   5.2097747e-01	
   1.2595000e+01	  -3.7005634e+00	   5.1742519e-01	
   1.2650000e+01	  -3.8638086e+00	   5.1343789e-01	
   1.2705000e+01	  -4.0013950e+00	   5.0901920e-01	
   1.2760000e+01	  -4.1143713e+00	   5.0419581e-01	
   1.2815000e+01	  -4.2041634e+00	   4.9901749e-01	
   1.2870000e+01	  -4.2724929e+00	   4.9355319e-01	
   1.2925000e+01	  -4.3213032e+00	   4.8788367e-01	
   1.2980000e+01	  -4.3526924e+00	   4.8209242e-01	
   1.3035000e+01	  -4.3688505e+00	   4.7625722e-01	
   1.3090000e+01	  -4.3719979e+00	   4.7044370e-01	
   1.3145000e+01	  -4.3643294e+00	   4.6470206e-01	
   1.3200000e+01	  -4.3479611e+00	   4.5906780e-01	
   1.3255000e+01	  -4.3248813e+00	   4.5356651e-01	
   1.3310000e+01	  -4.2969092e+00	   4.4822070e-01	
   1.3365000e+01	  -4.2656652e+00	   4.4305600e-01	
   1.3420000e+01	  -4.2325522e+00	   4.3810433e-01	
   1.3475000e+01	  -4.1987465e+00	   4.3340283e-01	
   1.3530000e+01	  -4.1651968e+00	   4.2898848e-01	
   1.3585000e+01	  -4.1326303e+00	   4.2488979e-01	
   1.3640000e+01	  -4.1015670e+00	   4.2111816e-01	
   1.3695000e+01	  -4.0723385e+00	   4.1766105e-01	
   1.3750000e+01	  -4.0451123e+00	   4.1447791e-01	
   1.3805000e+01	  -4.0199182e+00	   4.1149936e-01	
   1.3860000e+01	  -3.9966749e+00	   4.0863035e-01	
   1.3915000e+01	  -3.9752128e+00	   4.0575782e-01	
   1.3970000e+01	  -3.9552921e+00	   4.0276153e-01	
   1.4025000e+01	  -3.9366175e+00	   3.9952544e-01	
   1.4080000e+01	  -3.9188510e+00	   3.9594760e-01	
   1.4135000e+01	  -3.9016239e+00	   3.9194784e-01	
   1.4190000e+01	  -3.8845480e+00	   3.8747233e-01	
   1.4245000e+01	  -3.8672300e+00	   3.8249428e-01	
   1.4300000e+01	  -3.8492840e+00	   3.7701032e-01	
   1.4355000e+01	  -3.8303450e+00	   3.7103329e-01	
   1.4410000e+01	  -3.8100807e+00	   3.6458343e-01	
   1.4465000e+01	  -3.7882054e+00	   3.5767907e-01	
   1.4520000e+01	  -3.7644962e+00	   3.5032839e-01	
   1.4575000e+01	  -3.7388084e+00	   3.4252379e-01	
   1.4630000e+01	  -3.7110864e+00	   3.3424037e-01	
   1.4685000e+01	  -3.6813657e+00	   3.2543960e-01	
   1.4740000e+01	  -3.6497662e+00	   3.1607834e-01	
   1.4795000e+01	  -3.6164766e+00	   3.0612088e-01	
   1.4850000e+01	  -3.5817373e+00	   2.9554998e-01	
   1.4905000e+01	  -3.5458242e+00	   2.8437398e-01	
   1.4960000e+01	  -3.5090350e+00	   2.7262974e-01	
   1.5015000e+01	  -3.4716797e+00	   2.6038240e-01	
   1.5070000e+01	  -3.4340738e+00	   2.4772186e-01	
   1.5125000e+01	  -3.3965378e+00	   2.3475555e-01	
   1.5180000e+01	  -3.3594008e+00	   2.2159845e-01	
   1.5235000e+01	  -3.3230031e+00	   2.0836173e-01	
   1.5290000e+01	  -3.2876959e+00	   1.9514114e-01	
   1.5345000e+01	  -3.2538367e+00	   1.8200649e-01	
   1.5400000e+01	  -3.2217804e+00	   1.6899461e-01	
   1.5455000e+01	  -3.1918638e+00	   1.5610795e-01	
   1.5510000e+01	  -3.1643886e+00	   1.4331916e-01	
   1.5565000e+01	  -3.1396042e+00	   1.3058007e-01	
   1.5620000e+01	  -3.1176959e+00	   1.1783292e-01	
   1.5675000e+01	  -3.0987750e+00	   1.0502165e-01	
   1.5730000e+01	  -3.0828737e+00	   9.2100994e-02	
   1.5785000e+01	  -3.0699473e+00	   7.9041755e-02	
   1.5840000e+01	  -3.0598837e+00	   6.5831689e-02	
   1.5895000e+01	  -3.0525186e+00	   5.2472691e-02	
   1.5950000e+01	  -3.0476508e+00	   3.8974784e-02	
   1.6005000e+01	  -3.0450582e+00	   2.5347753e-02	
   1.6060000e+01	  -3.0445099e+00	   1.1591906e-02	
   1.6115000e+01	  -3.0457735e+00	  -2.3098078e-03	
   1.6170000e+01	  -3.0486183e+00	  -1.6395827e-02	
   1.6225000e+01	  -3.0528163e+00	  -3.0724242e-02	
   1.6280000e+01	  -3.0581449e+00	  -4.5364757e-02	
   1.6335000e+01	  -3.0643906e+00	  -6.0385973e-02	
   1.6390000e+01	  -3.0713515e+00	  -7.5841316e-02	
   1.6445000e+01	  -3.0788391e+00	  -9.1757097e-02	
   1.6500000e+01	  -3.0866800e+00	  -1.0812490e-01	
   1.6555000e+01	  -3.0947183e+00	  -1.2489911e-01	
   1.6610000e+01	  -3.1028172e+00	  -1.4199971e-01	
   1.6665000e+01	  -3.1108614e+00	  -1.5931998e-01	
   1.6720000e+01	  -3.1187587e+00	  -1.7673767e-01	
   1.6775000e+01	  -3.1264400e+00	  -1.9412723e-01	
   1.6830000e+01	  -3.1338570e+00	  -2.1137039e-01	
   1.6885000e+01	  -3.1409781e+00	  -2.2836298e-01	
   1.6940000e+01	  -3.1477836e+00	  -2.4501641e-01	
   1.6995000e+01	  -3.1542576e+00	  -2.6125388e-01	
   1.7050000e+01	  -3.1603811e+00	  -2.7700345e-01	
   1.7105000e+01	  -3.1661262e+00	  -2.9219155e-01	
   1.7160000e+01	  -3.1714538e+00	  -3.0673911e-01	
   1.7215000e+01	  -3.1763132e+00	  -3.2056160e-01	
   1.7270000e+01	  -3.1806458e+00	  -3.3357353e-01	
   1.7325000e+01	  -3.1843916e+00	  -3.4569670e-01	
   1.7380000e+01	  -3.1874979e+00	  -3.5686982e-01	
   1.7435000e+01	  -3.1899279e+00	  -3.6705755e-01	
   1.7490000e+01	  -3.1916689e+00	  -3.7625806e-01	
   1.7545000e+01	  -3.1927390e+00	  -3.8450843e-01	
   1.7600000e+01	  -3.1931894e+00	  -3.9188644e-01	
   1.7655000e+01	  -3.1930995e+00	  -3.9850745e-01	
   1.7710000e+01	  -3.1925677e+00	  -4.0451575e-01	
   1.7765000e+01	  -3.1916999e+00	  -4.1007091e-01	
   1.7820000e+01	  -3.1905977e+00	  -4.1533097e-01	
   1.7875000e+01	  -3.1893451e+00	  -4.2043543e-01	
   1.7930000e+01	  -3.1879970e+00	  -4.2549107e-01	
   1.7985000e+01	  -3.1865707e+00	  -4.3056225e-01	
   1.8040000e+01	  -3.1850425e+00	  -4.3566608e-01	
   1.8095000e+01	  -3.1833482e+00	  -4.4077340e-01	
   1.8150000e+01	  -3.1813913e+00	  -4.4581615e-01	
   1.8205000e+01	  -3.1790553e+00	  -4.5070067e-01	
   1.8260000e+01	  -3.1762208e+00	  -4.5532451e-01	
   1.8315000e+01	  -3.1727798e+00	  -4.5959355e-01	
   1.8370000e+01	  -3.1686471e+00	  -4.6343704e-01	
   1.8425000e+01	  -3.1637653e+00	  -4.6681902e-01	
   1.8480000e+01	  -3.1581039e+00	  -4.6974440e-01	
   1.8535000e+01	  -3.1516561e+00	  -4.7225779e-01	
   1.8590000e+01	  -3.1444347e+00	  -4.7443462e-01	
   1.8645000e+01	  -3.1364709e+00	  -4.7636689e-01	
   1.8700000e+01	  -3.1278122e+00	  -4.7814674e-01	
   1.8755000e+01	  -3.1185172e+00	  -4.7985130e-01	
   1.8810000e+01	  -3.1086500e+00	  -4.8153140e-01	
   1.8865000e+01	  -3.0982748e+00	  -4.8320589e-01	
   1.8920000e+01	  -3.0874560e+00	  -4.8486180e-01	
   1.8975000e+01	  -3.0762604e+00	  -4.8645954e-01	
   1.9030000e+01	  -3.0647597e+00	  -4.8794244e-01	
   1.9085000e+01	  -3.0530336e+00	  -4.8924956e-01	
   1.9140000e+01	  -3.0411739e+00	  -4.9032971e-01	
   1.9195000e+01	  -3.0292911e+00	  -4.9115413e-01	
   1.9250000e+01	  -3.0175199e+00	  -4.9172519e-01	
   1.9305000e+01	  -3.0060210e+00	  -4.9207917e-01	
   1.9360000e+01	  -2.9949760e+00	  -4.9228156e-01	
   1.9415000e+01	  -2.9845737e+00	  -4.9241582e-01	
   1.9470000e+01	  -2.9749937e+00	  -4.9256913e-01	
   1.9525000e+01	  -2.9663907e+00	  -4.9281918e-01	
   1.9580000e+01	  -2.9588845e+00	  -4.9322462e-01	
   1.9635000e+01	  -2.9525548e+00	  -4.9381996e-01	
   1.9690000e+01	  -2.9474402e+00	  -4.9461549e-01	
   1.9745000e+01	  -2.9435421e+00	  -4.9560163e-01	
   1.9800000e+01	  -2.9408310e+00	  -4.9675554e-01	
   1.9855000e+01	  -2.9392559e+00	  -4.9804810e-01	
   1.9910000e+01	  -2.9387523e+00	  -4.9945028e-01	
   1.9965000e+01	  -2.9392499e+00	  -5.0093930e-01	
   2.0020000e+01	  -2.9406758e+00	  -5.0250372e-01	
   2.0075000e+01	  -2.9429546e+00	  -5.0414572e-01	
   2.0130000e+01	  -2.9460055e+00	  -5.0587901e-01	
   2.0185000e+01	  -2.9497397e+00	  -5.0772274e-01	
   2.0240000e+01	  -2.9540608e+00	  -5.0969313e-01	
   2.0295000e+01	  -2.9588650e+00	  -5.1179533e-01	
   2.0350000e+01	  -2.9640404e+00	  -5.1401746e-01	
   2.0405000e+01	  -2.9694671e+00	  -5.1632812e-01	
   2.0460000e+01	  -2.9750195e+00	  -5.1867744e-01	
   2.0515000e+01	  -2.9805727e+00	  -5.2100127e-01	
   2.0570000e+01	  -2.9860101e+00	  -5.2322853e-01	
   2.0625000e+01	  -2.9912298e+00	  -5.2529107e-01	
   2.0680000e+01	  -2.9961478e+00	  -5.2713415e-01	
   2.0735000e+01	  -3.0006947e+00	  -5.2872415e-01	
   2.0790000e+01	  -3.0048087e+00	  -5.3005105e-01	
   2.0845000e+01	  -3.0084264e+00	  -5.3112486e-01	
   2.0900000e+01	  -3.0114736e+00	  -5.3196727e-01	
   2.0955000e+01	  -3.0138555e+00	  -5.3260122e-01	
   2.1010000e+01	  -3.0154492e+00	  -5.3304130e-01	
   2.1065000e+01	  -3.0161018e+00	  -5.3328753e-01	
   2.1120000e+01	  -3.0156362e+00	  -5.3332331e-01	
   2.1175000e+01	  -3.0138640e+00	  -5.3311711e-01	
   2.1230000e+01	  -3.0106032e+00	  -5.3262741e-01	
   2.1285000e+01	  -3.0056962e+00	  -5.3181003e-01	
   2.1340000e+01	  -2.9990253e+00	  -5.3062627e-01	
   2.1395000e+01	  -2.9905196e+00	  -5.2904911e-01	
   2.1450000e+01	  -2.9801542e+00	  -5.2706552e-01	
   2.1505000e+01	  -2.9679433e+00	  -5.2467411e-01	
   2.1560000e+01	  -2.9539287e+00	  -5.2187869e-01	
   2.1615000e+01	  -2.9381670e+00	  -5.1867997e-01	
   2.1670000e+01	  -2.9207167e+00	  -5.1506843e-01	
   2.1725000e+01	  -2.9016289e+00	  -5.1102052e-01	
   2.1780000e+01	  -2.8809431e+00	  -5.0649886e-01	
   2.1835000e+01	  -2.8586899e+00	  -5.0145540e-01	
   2.1890000e+01	  -2.8348956e+00	  -4.9583692e-01	
   2.1945000e+01	  -2.8095893e+00	  -4.8959226e-01	
   2.2000000e+01	  -2.7828125e+00	  -4.8268101e-01	
   2.2055000e+01	  -2.7546308e+00	  -4.7508211e-01	
   2.2110000e+01	  -2.7251482e+00	  -4.6680148e-01	
   2.2165000e+01	  -2.6945188e+00	  -4.5787755e-01	
   2.2220000e+01	  -2.6629528e+00	  -4.4838277e-01	
   2.2275000e+01	  -2.6307129e+00	  -4.3841870e-01	
   2.2330000e+01	  -2.5981016e+00	  -4.2810470e-01	
   2.2385000e+01	  -2.5654415e+00	  -4.1756378e-01	
   2.2440000e+01	  -2.5330554e+00	  -4.0691046e-01	
   2.2495000e+01	  -2.5012463e+00	  -3.9624347e-01	
   2.2550000e+01	  -2.4702840e+00	  -3.8564418e-01	
   2.2605000e+01	  -2.4403959e+00	  -3.7517993e-01	
   2.2660000e+01	  -2.4117653e+00	  -3.6491073e-01	
   2.2715000e+01	  -2.3845340e+00	  -3.5489697e-01	
   2.2770000e+01	  -2.3588078e+00	  -3.4520715e-01	
   2.2825000e+01	  -2.3346652e+00	  -3.3592486e-01	
   2.2880000e+01	  -2.3121658e+00	  -3.2715349e-01	
   2.2935000e+01	  -2.2913574e+00	  -3.1901690e-01	
   2.2990000e+01	  -2.2722769e+00	  -3.1165533e-01	
   2.3045000e+01	  -2.2549465e+00	  -3.0521662e-01	
   2.3100000e+01	  -2.2393632e+00	  -2.9984390e-01	
   2.3155000e+01	  -2.2254837e+00	  -2.9566168e-01	
   2.3210000e+01	  -2.2132123e+00	  -2.9276311e-01	
   2.3265000e+01	  -2.2023963e+00	  -2.9120033e-01	
   2.3320000e+01	  -2.1928314e+00	  -2.9097857e-01	
   2.3375000e+01	  -2.1842724e+00	  -2.9205428e-01	
   2.3430000e+01	  -2.1764476e+00	  -2.9433780e-01	
   2.3485000e+01	  -2.1690738e+00	  -2.9770048e-01	
   2.3540000e+01	  -2.1618703e+00	  -3.0198535e-01	
   2.3595000e+01	  -2.1545742e+00	  -3.0701943e-01	
   2.3650000e+01	  -2.1469537e+00	  -3.1262690e-01	
   2.3705000e+01	  -2.1388190e+00	  -3.1864186e-01	
   2.3760000e+01	  -2.1300304e+00	  -3.2491857e-01	
   2.3815000e+01	  -2.1205014e+00	  -3.3133666e-01	
   2.3870000e+01	  -2.1101964e+00	  -3.3780000e-01	
   2.3925000e+01	  -2.0991216e+00	  -3.4423024e-01	
   2.3980000e+01	  -2.0873106e+00	  -3.5055785e-01	
   2.4035000e+01	  -2.0748062e+00	  -3.5671325e-01	
   2.4090000e+01	  -2.0616429e+00	  -3.6262067e-01	
   2.4145000e+01	  -2.0478345e+00	  -3.6819659e-01	
   2.4200000e+01	  -2.0333703e+00	  -3.7335295e-01	
   2.4255000e+01	  -2.0182185e+00	  -3.7800403e-01	
   2.4310000e+01	  -2.0023345e+00	  -3.8207459e-01	
   2.4365000e+01	  -1.9856703e+00	  -3.8550830e-01	
   2.4420000e+01	  -1.9681841e+00	  -3.8827527e-01	
   2.4475000e+01	  -1.9498481e+00	  -3.9037813e-01	
   2.4530000e+01	  -1.9306521e+00	  -3.9185602e-01	
   2.4585000e+01	  -1.9106061e+00	  -3.9278606e-01	
   2.4640000e+01	  -1.8897393e+00	  -3.9328120e-01	
   2.4695000e+01	  -1.8680971e+00	  -3.9348246e-01	
   2.4750000e+01	  -1.8457362e+00	  -3.9354535e-01	
   2.4805000e+01	  -1.8227184e+00	  -3.9362295e-01	
   2.4860000e+01	  -1.7991073e+00	  -3.9384976e-01	
   2.4915000e+01	  -1.7749657e+00	  -3.9432896e-01	
   2.4970000e+01	  -1.7503548e+00	  -3.9512452e-01	
   2.5025000e+01	  -1.7253361e+00	  -3.9625918e-01	
   2.5080000e+01	  -1.6999752e+00	  -3.9771872e-01	
   2.5135000e+01	  -1.6743480e+00	  -3.9946104e-01	
   2.5190000e+01	  -1.6485488e+00	  -4.0142835e-01	
   2.5245000e+01	  -1.6226978e+00	  -4.0356026e-01	
   2.5300000e+01	  -1.5969478e+00	  -4.0580457e-01	
   2.5355000e+01	  -1.5714867e+00	  -4.0812263e-01	
   2.5410000e+01	  -1.5465345e+00	  -4.1048859e-01	
   2.5465000e+01	  -1.5223345e+00	  -4.1288400e-01	
   2.5520000e+01	  -1.4991398e+00	  -4.1529059e-01	
   2.5575000e+01	  -1.4771997e+00	  -4.1768356e-01	
   2.5630000e+01	  -1.4567484e+00	  -4.2002767e-01	
   2.5685000e+01	  -1.4379972e+00	  -4.2227743e-01	
   2.5740000e+01	  -1.4211289e+00	  -4.2438065e-01	
   2.5795000e+01	  -1.4062920e+00	  -4.2628372e-01	
   2.5850000e+01	  -1.3935954e+00	  -4.2793747e-01	
   2.5905000e+01	  -1.3831028e+00	  -4.2930315e-01	
   2.5960000e+01	  -1.3748301e+00	  -4.3035755e-01	
   2.6015000e+01	  -1.3687422e+00	  -4.3109607e-01	
   2.6070000e+01	  -1.3647506e+00	  -4.3153219e-01	
   2.6125000e+01	  -1.3627119e+00	  -4.3169207e-01	
   2.6180000e+01	  -1.3624282e+00	  -4.3160441e-01	
   2.6235000e+01	  -1.3636488e+00	  -4.3128778e-01	
   2.6290000e+01	  -1.3660750e+00	  -4.3073914e-01	
   2.6345000e+01	  -1.3693674e+00	  -4.2992704e-01	
   2.6400000e+01	  -1.3731588e+00	  -4.2879061e-01	
   2.6455000e+01	  -1.3770714e+00	  -4.2724392e-01	
   2.6510000e+01	  -1.3807372e+00	  -4.2518456e-01	
   2.6565000e+01	  -1.3838199e+00	  -4.2250553e-01	
   2.6620000e+01	  -1.3860358e+00	  -4.1910924e-01	
   2.6675000e+01	  -1.3871706e+00	  -4.1492176e-01	
   2.6730000e+01	  -1.3870907e+00	  -4.0990604e-01	
   2.6785000e+01	  -1.3857496e+00	  -4.0407284e-01	
   2.6840000e+01	  -1.3831891e+00	  -3.9748771e-01	
   2.6895000e+01	  -1.3795307e+00	  -3.9027038e-01	
   2.6950000e+01	  -1.3749575e+00	  -3.8258464e-01	
   2.7005000e+01	  -1.3696901e+00	  -3.7462029e-01	
   2.7060000e+01	  -1.3639596e+00	  -3.6657040e-01	
   2.7115000e+01	  -1.3579831e+00	  -3.5860800e-01	
   2.7170000e+01	  -1.3519442e+00	  -3.5086602e-01	
   2.7225000e+01	  -1.3459806e+00	  -3.4342434e-01	
   2.7280000e+01	  -1.3401789e+00	  -3.3630540e-01	
   2.7335000e+01	  -1.3345714e+00	  -3.2947794e-01	
   2.7390000e+01	  -1.3291385e+00	  -3.2286758e-01	
   2.7445000e+01	  -1.3238166e+00	  -3.1637351e-01	
   2.7500000e+01	  -1.3185152e+00	  -3.0988904e-01	
   2.7555000e+01	  -1.3131389e+00	  -3.0332313e-01	
   2.7610000e+01	  -1.3076109e+00	  -2.9661968e-01	
   2.7665000e+01	  -1.3018944e+00	  -2.8977213e-01	
   2.7720000e+01	  -1.2960060e+00	  -2.8283072e-01	
   2.7775000e+01	  -1.2900187e+00	  -2.7590078e-01	
   2.7830000e+01	  -1.2840539e+00	  -2.6913235e-01	
   2.7885000e+01	  -1.2782657e+00	  -2.6270327e-01	
   2.7940000e+01	  -1.2728200e+00	  -2.5679931e-01	
   2.7995000e+01	  -1.2678713e+00	  -2.5159479e-01	
   2.8050000e+01	  -1.2635399e+00	  -2.4723627e-01	
   2.8105000e+01	  -1.2598913e+00	  -2.4383094e-01	
   2.8160000e+01	  -1.2569256e+00	  -2.4143970e-01	
   2.8215000e+01	  -1.2545729e+00	  -2.4007439e-01	
   2.8270000e+01	  -1.2526976e+00	  -2.3969870e-01	
   2.8325000e+01	  -1.2511080e+00	  -2.4023313e-01	
   2.8380000e+01	  -1.2495703e+00	  -2.4156384e-01	
   2.8435000e+01	  -1.2478258e+00	  -2.4355457e-01	
   2.8490000e+01	  -1.2456089e+00	  -2.4606020e-01	
   2.8545000e+01	  -1.2426649e+00	  -2.4894056e-01	
   2.8600000e+01	  -1.2387710e+00	  -2.5207235e-01	
   2.8655000e+01	  -1.2337548e+00	  -2.5535687e-01	
   2.8710000e+01	  -1.2275099e+00	  -2.5872194e-01	
   2.8765000e+01	  -1.2200029e+00	  -2.6211852e-01	
   2.8820000e+01	  -1.2112721e+00	  -2.6551320e-01	
   2.8875000e+01	  -1.2014155e+00	  -2.6887899e-01	
   2.8930000e+01	  -1.1905736e+00	  -2.7218703e-01	
   2.8985000e+01	  -1.1789123e+00	  -2.7540120e-01	
   2.9040000e+01	  -1.1666096e+00	  -2.7847614e-01	
   2.9095000e+01	  -1.1538475e+00	  -2.8135811e-01	
   2.9150000e+01	  -1.1408089e+00	  -2.8398826e-01	
   2.9205000e+01	  -1.1276787e+00	  -2.8630826e-01	
   2.9260000e+01	  -1.1146462e+00	  -2.8826830e-01	
   2.9315000e+01	  -1.1019065e+00	  -2.8983611e-01	
   2.9370000e+01	  -1.0896600e+00	  -2.9100475e-01	
   2.9425000e+01	  -1.0781091e+00	  -2.9179694e-01	
   2.9480000e+01	  -1.0674495e+00	  -2.9226429e-01	
   2.9535000e+01	  -1.0578568e+00	  -2.9248024e-01	
   2.9590000e+01	  -1.0494705e+00	  -2.9252777e-01	
   2.9645000e+01	  -1.0423863e+00	  -2.9248536e-01	
   2.9700000e+01	  -1.0366591e+00	  -2.9241541e-01	
   2.9755000e+01	  -1.0323137e+00	  -2.9235729e-01	
   2.9810000e+01	  -1.0293553e+00	  -2.9232468e-01	
   2.9865000e+01	  -1.0277751e+00	  -2.9230651e-01	
   2.9920000e+01	  -1.0275506e+00	  -2.9227058e-01	
   2.9975000e+01	  -1.0286424e+00	  -2.9216989e-01	
   3.0030000e+01	  -1.0309879e+00	  -2.9195071e-01	
   3.0085000e+01	  -1.0344961e+00	  -2.9156131e-01	
   3.0140000e+01	  -1.0390455e+00	  -2.9095985e-01	
   3.0195000e+01	  -1.0444865e+00	  -2.9011989e-01	
   3.0250000e+01	  -1.0506447e+00	  -2.8903134e-01	
   3.0305000e+01	  -1.0573233e+00	  -2.8769605e-01	
   3.0360000e+01	  -1.0643037e+00	  -2.8611986e-01	
   3.0415000e+01	  -1.0713454e+00	  -2.8430380e-01	
   3.0470000e+01	  -1.0781860e+00	  -2.8223714e-01	
   3.0525000e+01	  -1.0845434e+00	  -2.7989369e-01	
   3.0580000e+01	  -1.0901255e+00	  -2.7723223e-01	
   3.0635000e+01	  -1.0946434e+00	  -2.7420101e-01	
   3.0690000e+01	  -1.0978284e+00	  -2.7074556e-01	
   3.0745000e+01	  -1.0994488e+00	  -2.6681920e-01	
   3.0800000e+01	  -1.0993268e+00	  -2.6239436e-01	
   3.0855000e+01	  -1.0973521e+00	  -2.5747237e-01	
   3.0910000e+01	  -1.0934904e+00	  -2.5208964e-01	
   3.0965000e+01	  -1.0877834e+00	  -2.4631872e-01	
   3.1020000e+01	  -1.0803418e+00	  -2.4026302e-01	
   3.1075000e+01	  -1.0713305e+00	  -2.3404404e-01	
   3.1130000e+01	  -1.0609476e+00	  -2.2778283e-01	
   3.1185000e+01	  -1.0494035e+00	  -2.2158045e-01	
   3.1240000e+01	  -1.0369026e+00	  -2.1550204e-01	
   3.1295000e+01	  -1.0236322e+00	  -2.0956686e-01	
   3.1350000e+01	  -1.0097538e+00	  -2.0374464e-01	
   3.1405000e+01	  -9.9540076e-01	  -1.9795809e-01	
   3.1460000e+01	  -9.8068117e-01	  -1.9209132e-01	
   3.1515000e+01	  -9.6568718e-01	  -1.8600279e-01	
   3.1570000e+01	  -9.5050937e-01	  -1.7954134e-01	
   3.1625000e+01	  -9.3525315e-01	  -1.7256429e-01	
   3.1680000e+01	  -9.2005274e-01	  -1.6495672e-01	
   3.1735000e+01	  -9.0507897e-01	  -1.5665003e-01	
   3.1790000e+01	  -8.9053886e-01	  -1.4763715e-01	
   3.1845000e+01	  -8.7666679e-01	  -1.3798137e-01	
   3.1900000e+01	  -8.6370812e-01	  -1.2781649e-01	
   3.1955000e+01	  -8.5189690e-01	  -1.1733707e-01	
   3.2010000e+01	  -8.4143111e-01	  -1.0677933e-01	
   3.2065000e+01	  -8.3244953e-01	  -9.6396248e-02	
   3.2120000e+01	  -8.2501394e-01	  -8.6431561e-02	
   3.2175000e+01	  -8.1909823e-01	  -7.7096763e-02	
   3.2230000e+01	  -8.1458541e-01	  -6.8553316e-02	
   3.2285000e+01	  -8.1127287e-01	  -6.0901186e-02	
   3.2340000e+01	  -8.0888514e-01	  -5.4174616e-02	
   3.2395000e+01	  -8.0709178e-01	  -4.8345325e-02	
   3.2450000e+01	  -8.0552874e-01	  -4.3332609e-02	
   3.2505000e+01	  -8.0382294e-01	  -3.9019476e-02	
   3.2560000e+01	  -8.0161909e-01	  -3.5272987e-02	
   3.2615000e+01	  -7.9860551e-01	  -3.1965130e-02	
   3.2670000e+01	  -7.9453472e-01	  -2.8990307e-02	
   3.2725000e+01	  -7.8923719e-01	  -2.6277733e-02	
   3.2780000e+01	  -7.8262995e-01	  -2.3798744e-02	
   3.2835000e+01	  -7.7472049e-01	  -2.1568553e-02	
   3.2890000e+01	  -7.6560382e-01	  -1.9641384e-02	
   3.2945000e+01	  -7.5545244e-01	  -1.8099146e-02	
   3.3000000e+01	  -7.4450165e-01	  -1.7035728e-02	
   3.3055000e+01	  -7.3303310e-01	  -1.6539869e-02	
   3.3110000e+01	  -7.2135678e-01	  -1.6679481e-02	
   3.3165000e+01	  -7.0979096e-01	  -1.7489987e-02	
   3.3220000e+01	  -6.9864155e-01	  -1.8968524e-02	
   3.3275000e+01	  -6.8818566e-01	  -2.1074515e-02	
   3.3330000e+01	  -6.7866310e-01	  -2.3735991e-02	
   3.3385000e+01	  -6.7027541e-01	  -2.6860263e-02	
   3.3440000e+01	  -6.6318808e-01	  -3.0347007e-02	
   3.3495000e+01	  -6.5753284e-01	  -3.4101329e-02	
   3.3550000e+01	  -6.5340918e-01	  -3.8044981e-02	
   3.3605000e+01	  -6.5088713e-01	  -4.2125170e-02	
   3.3660000e+01	  -6.5001347e-01	  -4.6320700e-02	
   3.3715000e+01	  -6.5081949e-01	  -5.0644187e-02	
   3.3770000e+01	  -6.5332549e-01	  -5.5138452e-02	
   3.3825000e+01	  -6.5753905e-01	  -5.9866483e-02	
   3.3880000e+01	  -6.6344860e-01	  -6.4896794e-02	
   3.3935000e+01	  -6.7101549e-01	  -7.0287540e-02	
   3.3990000e+01	  -6.8016756e-01	  -7.6072520e-02	
   3.4045000e+01	  -6.9079632e-01	  -8.2251250e-02	
   3.4100000e+01	  -7.0275750e-01	  -8.8784332e-02	
   3.4155000e+01	  -7.1587291e-01	  -9.5594246e-02	
   3.4210000e+01	  -7.2993181e-01	  -1.0257079e-01	
   3.4265000e+01	  -7.4469361e-01	  -1.0958027e-01	
   3.4320000e+01	  -7.5989425e-01	  -1.1647754e-01	
   3.4375000e+01	  -7.7525730e-01	  -1.2311933e-01	
   3.4430000e+01	  -7.9050835e-01	  -1.2937687e-01	
   3.4485000e+01	  -8.0539076e-01	  -1.3514711e-01	
   3.4540000e+01	  -8.1968012e-01	  -1.4036218e-01	
   3.4595000e+01	  -8.3319549e-01	  -1.4499589e-01	
   3.4650000e+01	  -8.4580604e-01	  -1.4906494e-01	
   3.4705000e+01	  -8.5743329e-01	  -1.5262370e-01	
   3.4760000e+01	  -8.6804954e-01	  -1.5575354e-01	
   3.4815000e+01	  -8.7767200e-01	  -1.5854877e-01	
   3.4870000e+01	  -8.8635307e-01	  -1.6110151e-01	
   3.4925000e+01	  -8.9416881e-01	  -1.6348791e-01	
   3.4980000e+01	  -9.0120913e-01	  -1.6575865e-01	
   3.5035000e+01	  -9.0757115e-01	  -1.6793471e-01	
   3.5090000e+01	  -9.1335504e-01	  -1.7000829e-01	
   3.5145000e+01	  -9.1866176e-01	  -1.7194802e-01	
   3.5200000e+01	  -9.2359402e-01	  -1.7370771e-01	
   3.5255000e+01	  -9.2826058e-01	  -1.7523690e-01	
   3.5310000e+01	  -9.3278057e-01	  -1.7649141e-01	
   3.5365000e+01	  -9.3728359e-01	  -1.7744249e-01	
   3.5420000e+01	  -9.4190360e-01	  -1.7808339e-01	
   3.5475000e+01	  -9.4676736e-01	  -1.7843191e-01	
   3.5530000e+01	  -9.5197934e-01	  -1.7852713e-01	
   3.5585000e+01	  -9.5760580e-01	  -1.7842084e-01	
   3.5640000e+01	  -9.6366072e-01	  -1.7816662e-01	
   3.5695000e+01	  -9.7009589e-01	  -1.7780969e-01	
   3.5750000e+01	  -9.7679585e-01	  -1.7737944e-01	
   3.5805000e+01	  -9.8357775e-01	  -1.7688596e-01	
   3.5860000e+01	  -9.9019765e-01	  -1.7632107e-01	
   3.5915000e+01	  -9.9636453e-01	  -1.7566327e-01	
   3.5970000e+01	  -1.0017613e+00	  -1.7488506e-01	
   3.6025000e+01	  -1.0060681e+00	  -1.7396117e-01	
   3.6080000e+01	  -1.0089835e+00	  -1.7287694e-01	
   3.6135000e+01	  -1.0102414e+00	  -1.7163625e-01	
   3.6190000e+01	  -1.0096248e+00	  -1.7026756e-01	
   3.6245000e+01	  -1.0069768e+00	  -1.6882556e-01	
   3.6300000e+01	  -1.0022083e+00	  -1.6738644e-01	
   3.6355000e+01	  -9.9529952e-01	  -1.6603644e-01	
   3.6410000e+01	  -9.8629607e-01	  -1.6485580e-01	
   3.6465000e+01	  -9.7529777e-01	  -1.6390193e-01	
   3.6520000e+01	  -9.6244578e-01	  -1.6319610e-01	
   3.6575000e+01	  -9.4791041e-01	  -1.6271618e-01	
   3.6630000e+01	  -9.3188080e-01	  -1.6239602e-01	
   3.6685000e+01	  -9.1455649e-01	  -1.6213103e-01	
   3.6740000e+01	  -8.9614104e-01	  -1.6178892e-01	
   3.6795000e+01	  -8.7683794e-01	  -1.6122379e-01	
   3.6850000e+01	  -8.5684847e-01	  -1.6029143e-01	
   3.6905000e+01	  -8.3637102e-01	  -1.5886495e-01	
   3.6960000e+01	  -8.1560119e-01	  -1.5684986e-01	
   3.7015000e+01	  -7.9473156e-01	  -1.5419613e-01	
   3.7070000e+01	  -7.7394975e-01	  -1.5090383e-01	
   3.7125000e+01	  -7.5343479e-01	  -1.4702007e-01	
   3.7180000e+01	  -7.3335443e-01	  -1.4262799e-01	
   3.7235000e+01	  -7.1386479e-01	  -1.3783108e-01	
   3.7290000e+01	  -6.9511163e-01	  -1.3273667e-01	
   3.7345000e+01	  -6.7723081e-01	  -1.2744185e-01	
   3.7400000e+01	  -6.6034639e-01	  -1.2202380e-01	
   3.7455000e+01	  -6.4456690e-01	  -1.1653542e-01	
   3.7510000e+01	  -6.2998180e-01	  -1.1100623e-01	
   3.7565000e+01	  -6.1665961e-01	  -1.0544760e-01	
   3.7620000e+01	  -6.0464786e-01	  -9.9861436e-02	
   3.7675000e+01	  -5.9397512e-01	  -9.4250731e-02	
   3.7730000e+01	  -5.8465518e-01	  -8.8629712e-02	
   3.7785000e+01	  -5.7669304e-01	  -8.3031763e-02	
   3.7840000e+01	  -5.7009102e-01	  -7.7514423e-02	
   3.7895000e+01	  -5.6485306e-01	  -7.2160600e-02	
   3.7950000e+01	  -5.6098383e-01	  -6.7074560e-02	
   3.8005000e+01	  -5.5848085e-01	  -6.2372201e-02	
   3.8060000e+01	  -5.5732185e-01	  -5.8167573e-02	
   3.8115000e+01	  -5.5745234e-01	  -5.4558685e-02	
   3.8170000e+01	  -5.5877671e-01	  -5.1615037e-02	
   3.8225000e+01	  -5.6115368e-01	  -4.9368636e-02	
   3.8280000e+01	  -5.6439717e-01	  -4.7810075e-02	
   3.8335000e+01	  -5.6828333e-01	  -4.6890296e-02	
   3.8390000e+01	  -5.7256303e-01	  -4.6527151e-02	
   3.8445000e+01	  -5.7697619e-01	  -4.6615441e-02	
   3.8500000e+01	  -5.8126504e-01	  -4.7039743e-02	
   3.8555000e+01	  -5.8518515e-01	  -4.7689175e-02	
   3.8610000e+01	  -5.8851387e-01	  -4.8472013e-02	
   3.8665000e+01	  -5.9105532e-01	  -4.9326938e-02	
   3.8720000e+01	  -5.9264128e-01	  -5.0227510e-02	
   3.8775000e+01	  -5.9312813e-01	  -5.1177777e-02	
   3.8830000e+01	  -5.9239184e-01	  -5.2200025e-02	
   3.8885000e+01	  -5.9032408e-01	  -5.3318695e-02	
   3.8940000e+01	  -5.8683100e-01	  -5.4545453e-02	
   3.8995000e+01	  -5.8183476e-01	  -5.5869227e-02	
   3.9050000e+01	  -5.7527648e-01	  -5.7253071e-02	
   3.9105000e+01	  -5.6711947e-01	  -5.8637543e-02	
   3.9160000e+01	  -5.5735319e-01	  -5.9948949e-02	
   3.9215000e+01	  -5.4599824e-01	  -6.1110243e-02	
   3.9270000e+01	  -5.3311196e-01	  -6.2052166e-02	
   3.9325000e+01	  -5.1879319e-01	  -6.2722415e-02	
   3.9380000e+01	  -5.0318521e-01	  -6.3091325e-02	
   3.9435000e+01	  -4.8647377e-01	  -6.3152986e-02	
   3.9490000e+01	  -4.6887692e-01	  -6.2921071e-02	
   3.9545000e+01	  -4.5062649e-01	  -6.2420169e-02	
   3.9600000e+01	  -4.3194793e-01	  -6.1675555e-02	
   3.9655000e+01	  -4.1304656e-01	  -6.0704717e-02	
   3.9710000e+01	  -3.9410204e-01	  -5.9512073e-02	
   3.9765000e+01	  -3.7526726e-01	  -5.8086628e-02	
   3.9820000e+01	  -3.5666786e-01	  -5.6402363e-02	
   3.9875000e+01	  -3.3840255e-01	  -5.4422072e-02	
   3.9930000e+01	  -3.2054469e-01	  -5.2104608e-02	
   3.9985000e+01	  -3.0314401e-01	  -4.9413798e-02	
   4.0040000e+01	  -2.8622745e-01	  -4.6326912e-02	
   4.0095000e+01	  -2.6980090e-01	  -4.2841359e-02	
   4.0150000e+01	  -2.5385387e-01	  -3.8978273e-02	
   4.0205000e+01	  -2.3836441e-01	  -3.4781504e-02	
   4.0260000e+01	  -2.2330038e-01	  -3.0311537e-02	
   4.0315000e+01	  -2.0861578e-01	  -2.5635418e-02	
   4.0370000e+01	  -1.9424520e-01	  -2.0814747e-02	
   4.0425000e+01	  -1.8010009e-01	  -1.5894303e-02	
   4.0480000e+01	  -1.6606858e-01	  -1.0894036e-02	
   4.0535000e+01	  -1.5201798e-01	  -5.8060506e-03	
   4.0590000e+01	  -1.3779850e-01	  -5.9670640e-04	
   4.0645000e+01	  -1.2324845e-01	   4.7866642e-03	
   4.0700000e+01	  -1.0820359e-01	   1.0404982e-02	
   4.0755000e+01	  -9.2511622e-02	   1.6313939e-02	
   4.0810000e+01	  -7.6050265e-02	   2.2549966e-02	
   4.0865000e+01	  -5.8745841e-02	   2.9117592e-02	
   4.0920000e+01	  -4.0590239e-02	   3.5979631e-02	
   4.0975000e+01	  -2.1652696e-02	   4.3052033e-02	
   4.1030000e+01	  -2.0813746e-03	   5.0205622e-02	
   4.1085000e+01	   1.7908532e-02	   5.7275690e-02	
   4.1140000e+01	   3.8058746e-02	   6.4077847e-02	
   4.1195000e+01	   5.8098349e-02	   7.0426783e-02	
   4.1250000e+01	   7.7774150e-02	   7.6154691e-02	
   4.1305000e+01	   9.6875485e-02	   8.1126885e-02	
   4.1360000e+01	   1.1524929e-01	   8.5252676e-02	
   4.1415000e+01	   1.3280392e-01	   8.8490151e-02	
   4.1470000e+01	   1.4950356e-01	   9.0844197e-02	
   4.1525000e+01	   1.6535643e-01	   9.2358125e-02	
   4.1580000e+01	   1.8039892e-01	   9.3100301e-02	
   4.1635000e+01	   1.9467766e-01	   9.3148113e-02	
   4.1690000e+01	   2.0823266e-01	   9.2572369e-02	
   4.1745000e+01	   2.2108447e-01	   9.1425025e-02	
   4.1800000e+01	   2.3322535e-01	   8.9731572e-02	
   4.1855000e+01	   2.4461442e-01	   8.7488190e-02	
   4.1910000e+01	   2.5517934e-01	   8.4664252e-02	
   4.1965000e+01	   2.6482842e-01	   8.1210792e-02	
   4.2020000e+01	   2.7347085e-01	   7.7073581e-02	
   4.2075000e+01	   2.8103818e-01	   7.2207550e-02	
   4.2130000e+01	   2.8750030e-01	   6.6589482e-02	
   4.2185000e+01	   2.9287432e-01	   6.0227292e-02	
   4.2240000e+01	   2.9722589e-01	   5.3164864e-02	
   4.2295000e+01	   3.0066243e-01	   4.5481685e-02	
   4.2350000e+01	   3.0331875e-01	   3.7287481e-02	
   4.2405000e+01	   3.0533941e-01	   2.8712836e-02	
   4.2460000e+01	   3.0686263e-01	   1.9897077e-02	
   4.2515000e+01	   3.0800747e-01	   1.0975072e-02	
   4.2570000e+01	   3.0886397e-01	   2.0649451e-03	
   4.2625000e+01	   3.0948630e-01	  -6.7416180e-03	
   4.2680000e+01	   3.0989012e-01	  -1.5385148e-02	
   4.2735000e+01	   3.1005514e-01	  -2.3838834e-02	
   4.2790000e+01	   3.0993386e-01	  -3.2102727e-02	
   4.2845000e+01	   3.0946625e-01	  -4.0192575e-02	
   4.2900000e+01	   3.0859767e-01	  -4.8126290e-02	
   4.2955000e+01	   3.0729450e-01	  -5.5911990e-02	
   4.3010000e+01	   3.0555245e-01	  -6.3540622e-02	
   4.3065000e+01	   3.0339537e-01	  -7.0984303e-02	
   4.3120000e+01	   3.0086660e-01	  -7.8199900e-02	
   4.3175000e+01	   2.9801690e-01	  -8.5136532e-02	
   4.3230000e+01	   2.9489298e-01	  -9.1745075e-02	
   4.3285000e+01	   2.9152999e-01	  -9.7987494e-02	
   4.3340000e+01	   2.8794857e-01	  -1.0384432e-01	
   4.3395000e+01	   2.8415570e-01	  -1.0931953e-01	
   4.3450000e+01	   2.8014777e-01	  -1.1444206e-01	
   4.3505000e+01	   2.7591583e-01	  -1.1926310e-01	
   4.3560000e+01	   2.7145294e-01	  -1.2384914e-01	
   4.3615000e+01	   2.6676206e-01	  -1.2827195e-01	
   4.3670000e+01	   2.6186285e-01	  -1.3259753e-01	
   4.3725000e+01	   2.5679682e-01	  -1.3687564e-01	
   4.3780000e+01	   2.5163073e-01	  -1.4113143e-01	
   4.3835000e+01	   2.4645774e-01	  -1.4536064e-01	
   4.3890000e+01	   2.4139559e-01	  -1.4952938e-01	
   4.3945000e+01	   2.3658119e-01	  -1.5357885e-01	
   4.4000000e+01	   2.3216063e-01	  -1.5743474e-01	
   4.4055000e+01	   2.2827455e-01	  -1.6102025e-01	
   4.4110000e+01	   2.2504127e-01	  -1.6427049e-01	
   4.4165000e+01	   2.2254091e-01	  -1.6714492e-01	
   4.4220000e+01	   2.2080224e-01	  -1.6963561e-01	
   4.4275000e+01	   2.1979344e-01	  -1.7177003e-01	
   4.4330000e+01	   2.1941877e-01	  -1.7360843e-01	
   4.4385000e+01	   2.1952397e-01	  -1.7523573e-01	
   4.4440000e+01	   2.1991141e-01	  -1.7674940e-01	
   4.4495000e+01	   2.2036198e-01	  -1.7824603e-01	
   4.4550000e+01	   2.2065793e-01	  -1.7980903e-01	
   4.4605000e+01	   2.2060245e-01	  -1.8149944e-01	
   4.4660000e+01	   2.2003384e-01	  -1.8335083e-01	
   4.4715000e+01	   2.1883364e-01	  -1.8536918e-01	
   4.4770000e+01	   2.1692899e-01	  -1.8753770e-01	
   4.4825000e+01	   2.1429071e-01	  -1.8982526e-01	
   4.4880000e+01	   2.1092879e-01	  -1.9219629e-01	
   4.4935000e+01	   2.0688683e-01	  -1.9462080e-01	
   4.4990000e+01	   2.0223513e-01	  -1.9708308e-01	
   4.5045000e+01	   1.9706130e-01	  -1.9958743e-01	
   4.5100000e+01	   1.9145872e-01	  -2.0215927e-01	
   4.5155000e+01	   1.8551501e-01	  -2.0484061e-01	
   4.5210000e+01	   1.7930454e-01	  -2.0768024e-01	
   4.5265000e+01	   1.7288722e-01	  -2.1072026e-01	
   4.5320000e+01	   1.6631243e-01	  -2.1398222e-01	
   4.5375000e+01	   1.5962403e-01	  -2.1745682e-01	
   4.5430000e+01	   1.5286403e-01	  -2.2109952e-01	
   4.5485000e+01	   1.4607621e-01	  -2.2483222e-01	
   4.5540000e+01	   1.3931152e-01	  -2.2854967e-01	
   4.5595000e+01	   1.3263381e-01	  -2.3212906e-01	
   4.5650000e+01	   1.2612343e-01	  -2.3544196e-01	
   4.5705000e+01	   1.1987751e-01	  -2.3836682e-01	
   4.5760000e+01	   1.1400722e-01	  -2.4080075e-01	
   4.5815000e+01	   1.0863237e-01	  -2.4267025e-01	
   4.5870000e+01	   1.0387344e-01	  -2.4394044e-01	
   4.5925000e+01	   9.9842241e-02	  -2.4462008e-01	
   4.5980000e+01	   9.6633269e-02	  -2.4475942e-01	
   4.6035000e+01	   9.4317299e-02	  -2.4444055e-01	
   4.6090000e+01	   9.2938293e-02	  -2.4376362e-01	
   4.6145000e+01	   9.2515350e-02	  -2.4283280e-01	
   4.6200000e+01	   9.3050730e-02	  -2.4174490e-01	
   4.6255000e+01	   9.4540837e-02	  -2.4058213e-01	
   4.6310000e+01	   9.6984983e-02	  -2.3940917e-01	
   4.6365000e+01	   1.0038961e-01	  -2.3827332e-01	
   4.6420000e+01	   1.0476832e-01	  -2.3720696e-01	
   4.6475000e+01	   1.1013797e-01	  -2.3623264e-01	
   4.6530000e+01	   1.1651104e-01	  -2.3537137e-01	
   4.6585000e+01	   1.2388584e-01	  -2.3465302e-01	
   4.6640000e+01	   1.3223728e-01	  -2.3412598e-01	
   4.6695000e+01	   1.4151035e-01	  -2.3386245e-01	
   4.6750000e+01	   1.5161789e-01	  -2.3395727e-01	
   4.6805000e+01	   1.6244279e-01	  -2.3451976e-01	
   4.6860000e+01	   1.7384390e-01	  -2.3565969e-01	
   4.6915000e+01	   1.8566338e-01	  -2.3747056e-01	
   4.6970000e+01	   1.9773393e-01	  -2.4001446e-01	
   4.7025000e+01	   2.0988530e-01	  -2.4331125e-01	
   4.7080000e+01	   2.2194973e-01	  -2.4733291e-01	
   4.7135000e+01	   2.3376430e-01	  -2.5200340e-01	
   4.7190000e+01	   2.4516912e-01	  -2.5720459e-01	
   4.7245000e+01	   2.5600306e-01	  -2.6278782e-01	
   4.7300000e+01	   2.6610013e-01	  -2.6858886e-01	
   4.7355000e+01	   2.7528717e-01	  -2.7444447e-01	
   4.7410000e+01	   2.8338188e-01	  -2.8020889e-01	
   4.7465000e+01	   2.9019198e-01	  -2.8576810e-01	
   4.7520000e+01	   2.9551814e-01	  -2.9104877e-01	
   4.7575000e+01	   2.9916177e-01	  -2.9602010e-01	
   4.7630000e+01	   3.0093722e-01	  -3.0068807e-01	
   4.7685000e+01	   3.0068724e-01	  -3.0508344e-01	
   4.7740000e+01	   2.9830011e-01	  -3.0924636e-01	
   4.7795000e+01	   2.9372483e-01	  -3.1321239e-01	
   4.7850000e+01	   2.8698082e-01	  -3.1700309e-01	
   4.7905000e+01	   2.7816124e-01	  -3.2062180e-01	
   4.7960000e+01	   2.6743113e-01	  -3.2405349e-01	
   4.8015000e+01	   2.5502180e-01	  -3.2726676e-01	
   4.8070000e+01	   2.4122057e-01	  -3.3021709e-01	
   4.8125000e+01	   2.2635567e-01	  -3.3285125e-01	
   4.8180000e+01	   2.1077831e-01	  -3.3511320e-01	
   4.8235000e+01	   1.9484467e-01	  -3.3695088e-01	
   4.8290000e+01	   1.7890004e-01	  -3.3832220e-01	
   4.8345000e+01	   1.6326814e-01	  -3.3919834e-01	
   4.8400000e+01	   1.4824835e-01	  -3.3956187e-01	
   4.8455000e+01	   1.3411924e-01	  -3.3939930e-01	
   4.8510000e+01	   1.2114324e-01	  -3.3868988e-01	
   4.8565000e+01	   1.0956891e-01	  -3.3739438e-01	
   4.8620000e+01	   9.9631495e-02	  -3.3544665e-01	
   4.8675000e+01	   9.1551885e-02	  -3.3275055e-01	
   4.8730000e+01	   8.5531490e-02	  -3.2918377e-01	
   4.8785000e+01	   8.1741634e-02	  -3.2460847e-01	
   4.8840000e+01	   8.0309728e-02	  -3.1888685e-01	
   4.8895000e+01	   8.1306784e-02	  -3.1189913e-01	
   4.8950000e+01	   8.4738804e-02	  -3.0356183e-01	
   4.9005000e+01	   9.0541945e-02	  -2.9384386e-01	
   4.9060000e+01	   9.8581835e-02	  -2.8277751e-01	
   4.9115000e+01	   1.0865900e-01	  -2.7046162e-01	
   4.9170000e+01	   1.2052211e-01	  -2.5705611e-01	
   4.9225000e+01	   1.3388917e-01	  -2.4276880e-01	
   4.9280000e+01	   1.4847443e-01	  -2.2783653e-01	
   4.9335000e+01	   1.6401632e-01	  -2.1250411e-01	
   4.9390000e+01	   1.8029971e-01	  -1.9700454e-01	
   4.9445000e+01	   1.9716828e-01	  -1.8154329e-01	
   4.9500000e+01	   2.1452646e-01	  -1.6628790e-01	
   4.9555000e+01	   2.3233189e-01	  -1.5136302e-01	
   4.9610000e+01	   2.5057953e-01	  -1.3685104e-01	
   4.9665000e+01	   2.6928019e-01	  -1.2279774e-01	
   4.9720000e+01	   2.8843829e-01	  -1.0922192e-01	
   4.9775000e+01	   3.0803303e-01	  -9.6126986e-02	
   4.9830000e+01	   3.2800596e-01	  -8.3512399e-02	
   4.9885000e+01	   3.4825578e-01	  -7.1383302e-02	
   4.9940000e+01	   3.6864110e-01	  -5.9756471e-02	
   4.9995000e+01	   3.8899135e-01	  -4.8660918e-02	
   5.0050000e+01	   4.0912387e-01	  -3.8132754e-02	
   5.0105000e+01	   4.2886345e-01	  -2.8205397e-02	
   5.0160000e+01	   4.4805984e-01	  -1.8897512e-02	
   5.0215000e+01	   4.6660106e-01	  -1.0202265e-02	
   5.0270000e+01	   4.8442148e-01	  -2.0811112e-03	
   5.0325000e+01	   5.0150470e-01	   5.5368095e-03	
   5.0380000e+01	   5.1788045e-01	   1.2750818e-02	
   5.0435000e+01	   5.3361501e-01	   1.9681850e-02	
   5.0490000e+01	   5.4879598e-01	   2.6463174e-02	
   5.0545000e+01	   5.6351398e-01	   3.3228624e-02	
   5.0600000e+01	   5.7784626e-01	   4.0098921e-02	
   5.0655000e+01	   5.9184698e-01	   4.7167951e-02	
   5.0710000e+01	   6.0554529e-01	   5.4491927e-02	
   5.0765000e+01	   6.1894939e-01	   6.2084476e-02	
   5.0820000e+01	   6.3205455e-01	   6.9919282e-02	
   5.0875000e+01	   6.4485355e-01	   7.7939400e-02	
   5.0930000e+01	   6.5734736e-01	   8.6069964e-02	
   5.0985000e+01	   6.6955324e-01	   9.4230924e-02	
   5.1040000e+01	   6.8150831e-01	   1.0234807e-01	
   5.1095000e+01	   6.9326931e-01	   1.1036145e-01	
   5.1150000e+01	   7.0490812e-01	   1.1822984e-01	
   5.1205000e+01	   7.1650322e-01	   1.2593041e-01	
   5.1260000e+01	   7.2812825e-01	   1.3345436e-01	
   5.1315000e+01	   7.3983991e-01	   1.4080090e-01	
   5.1370000e+01	   7.5166635e-01	   1.4797086e-01	
   5.1425000e+01	   7.6359560e-01	   1.5496051e-01	
   5.1480000e+01	   7.7556590e-01	   1.6175604e-01	
   5.1535000e+01	   7.8746205e-01	   1.6833119e-01	
   5.1590000e+01	   7.9912191e-01	   1.7465048e-01	
   5.1645000e+01	   8.1035223e-01	   1.8067791e-01	
   5.1700000e+01	   8.2094919e-01	   1.8638867e-01	
   5.1755000e+01	   8.3071876e-01	   1.9177981e-01	
   5.1810000e+01	   8.3949315e-01	   1.9687728e-01	
   5.1865000e+01	   8.4714164e-01	   2.0173728e-01	
   5.1920000e+01	   8.5357583e-01	   2.0644134e-01	
   5.1975000e+01	   8.5875051e-01	   2.1108632e-01	
   5.2030000e+01	   8.6266043e-01	   2.1577164e-01	
   5.2085000e+01	   8.6533289e-01	   2.2058657e-01	
   5.2140000e+01	   8.6681651e-01	   2.2559937e-01	
   5.2195000e+01	   8.6716948e-01	   2.3084951e-01	
   5.2250000e+01	   8.6645050e-01	   2.3634358e-01	
   5.2305000e+01	   8.6471449e-01	   2.4205577e-01	
   5.2360000e+01	   8.6201386e-01	   2.4793370e-01	
   5.2415000e+01	   8.5840566e-01	   2.5390929e-01	
   5.2470000e+01	   8.5396099e-01	   2.5991249e-01	
   5.2525000e+01	   8.4877115e-01	   2.6588454e-01	
   5.2580000e+01	   8.4294796e-01	   2.7178789e-01	
   5.2635000e+01	   8.3662023e-01	   2.7761161e-01	
   5.2690000e+01	   8.2992959e-01	   2.8337125e-01	
   5.2745000e+01	   8.2302763e-01	   2.8910291e-01	
   5.2800000e+01	   8.1607457e-01	   2.9485229e-01	
   5.2855000e+01	   8.0923844e-01	   3.0066150e-01	
   5.2910000e+01	   8.0269205e-01	   3.0655545e-01	
   5.2965000e+01	   7.9660563e-01	   3.1252956e-01	
   5.3020000e+01	   7.9113554e-01	   3.1854055e-01	
   5.3075000e+01	   7.8641219e-01	   3.2450253e-01	
   5.3130000e+01	   7.8253080e-01	   3.3029036e-01	
   5.3185000e+01	   7.7954708e-01	   3.3575033e-01	
   5.3240000e+01	   7.7747893e-01	   3.4071677e-01	
   5.3295000e+01	   7.7631434e-01	   3.4503189e-01	
   5.3350000e+01	   7.7602303e-01	   3.4856504e-01	
   5.3405000e+01	   7.7656661e-01	   3.5122786e-01	
   5.3460000e+01	   7.7790231e-01	   3.5298298e-01	
   5.3515000e+01	   7.7998034e-01	   3.5384569e-01	
   5.3570000e+01	   7.8273867e-01	   3.5387954e-01	
   5.3625000e+01	   7.8609840e-01	   3.5318680e-01	
   5.3680000e+01	   7.8996011e-01	   3.5189470e-01	
   5.3735000e+01	   7.9420074e-01	   3.5013930e-01	
   5.3790000e+01	   7.9867119e-01	   3.4804862e-01	
   5.3845000e+01	   8.0319504e-01	   3.4572674e-01	
   5.3900000e+01	   8.0756866e-01	   3.4324072e-01	
   5.3955000e+01	   8.1156439e-01	   3.4061292e-01	
   5.4010000e+01	   8.1493953e-01	   3.3782093e-01	
   5.4065000e+01	   8.1745221e-01	   3.3480590e-01	
   5.4120000e+01	   8.1888220e-01	   3.3148779e-01	
   5.4175000e+01	   8.1905231e-01	   3.2778469e-01	
   5.4230000e+01	   8.1784596e-01	   3.2363225e-01	
   5.4285000e+01	   8.1521717e-01	   3.1899895e-01	
   5.4340000e+01	   8.1119159e-01	   3.1389447e-01	
   5.4395000e+01	   8.0585927e-01	   3.0837152e-01	
   5.4450000e+01	   7.9936138e-01	   3.0252244e-01	
   5.4505000e+01	   7.9187398e-01	   2.9647191e-01	
   5.4560000e+01	   7.8359041e-01	   2.9036632e-01	
   5.4615000e+01	   7.7470408e-01	   2.8436093e-01	
   5.4670000e+01	   7.6539304e-01	   2.7860573e-01	
   5.4725000e+01	   7.5580746e-01	   2.7323117e-01	
   5.4780000e+01	   7.4606055e-01	   2.6833447e-01	
   5.4835000e+01	   7.3622299e-01	   2.6396860e-01	
   5.4890000e+01	   7.2632146e-01	   2.6013611e-01	
   5.4945000e+01	   7.1634243e-01	   2.5678942e-01	
   5.5000000e+01	   7.0624272e-01	   2.5383802e-01	
   5.5055000e+01	   6.9596598e-01	   2.5116195e-01	
   5.5110000e+01	   6.8546290e-01	   2.4862933e-01	
   5.5165000e+01	   6.7471045e-01	   2.4611394e-01	
   5.5220000e+01	   6.6372594e-01	   2.4350960e-01	
   5.5275000e+01	   6.5257358e-01	   2.4073986e-01	
   5.5330000e+01	   6.4136402e-01	   2.3776282e-01	
   5.5385000e+01	   6.3024799e-01	   2.3457080e-01	
   5.5440000e+01	   6.1940429e-01	   2.3118528e-01	
   5.5495000e+01	   6.0902294e-01	   2.2764764e-01	
   5.5550000e+01	   5.9928545e-01	   2.2400694e-01	
   5.5605000e+01	   5.9034496e-01	   2.2030625e-01	
   5.5660000e+01	   5.8230779e-01	   2.1656902e-01	
   5.5715000e+01	   5.7521856e-01	   2.1278869e-01	
   5.5770000e+01	   5.6905274e-01	   2.0892422e-01	
   5.5825000e+01	   5.6371973e-01	   2.0490344e-01	
   5.5880000e+01	   5.5907595e-01	   2.0063409e-01	
   5.5935000e+01	   5.5494389e-01	   1.9602019e-01	
   5.5990000e+01	   5.5113324e-01	   1.9097950e-01	
   5.6045000e+01	   5.4746056e-01	   1.8545840e-01	
   5.6100000e+01	   5.4376534e-01	   1.7944237e-01	
   5.6155000e+01	   5.3992281e-01	   1.7296145e-01	
   5.6210000e+01	   5.3585429e-01	   1.6609111e-01	
   5.6265000e+01	   5.3153549e-01	   1.5894878e-01	
   5.6320000e+01	   5.2700014e-01	   1.5168612e-01	
   5.6375000e+01	   5.2233620e-01	   1.4447734e-01	
   5.6430000e+01	   5.1767351e-01	   1.3750438e-01	
   5.6485000e+01	   5.1316541e-01	   1.3094012e-01	
   5.6540000e+01	   5.0896865e-01	   1.2493138e-01	
   5.6595000e+01	   5.0522605e-01	   1.1958450e-01	
   5.6650000e+01	   5.0205458e-01	   1.1495723e-01	
   5.6705000e+01	   4.9953916e-01	   1.1105926e-01	
   5.6760000e+01	   4.9773167e-01	   1.0786191e-01	
   5.6815000e+01	   4.9665397e-01	   1.0531373e-01	
   5.6870000e+01	   4.9630303e-01	   1.0335775e-01	
   5.6925000e+01	   4.9665638e-01	   1.0194625e-01	
   5.6980000e+01	   4.9767686e-01	   1.0105088e-01	
   5.7035000e+01	   4.9931597e-01	   1.0066770e-01	
   5.7090000e+01	   5.0151511e-01	   1.0081656e-01	
   5.7145000e+01	   5.0420422e-01	   1.0153509e-01	
   5.7200000e+01	   5.0729909e-01	   1.0286882e-01	
   5.7255000e+01	   5.1069991e-01	   1.0485921e-01	
   5.7310000e+01	   5.1429365e-01	   1.0753206e-01	
   5.7365000e+01	   5.1795859e-01	   1.1088751e-01	
   5.7420000e+01	   5.2156796e-01	   1.1489282e-01	
   5.7475000e+01	   5.2499190e-01	   1.1947993e-01	
   5.7530000e+01	   5.2810197e-01	   1.2454992e-01	
   5.7585000e+01	   5.3078071e-01	   1.2998452e-01	
   5.7640000e+01	   5.3293399e-01	   1.3566129e-01	
   5.7695000e+01	   5.3450089e-01	   1.4146852e-01	
   5.7750000e+01	   5.3545958e-01	   1.4731759e-01	
   5.7805000e+01	   5.3583080e-01	   1.5315187e-01	
   5.7860000e+01	   5.3567981e-01	   1.5895049e-01	
   5.7915000e+01	   5.3511480e-01	   1.6472625e-01	
   5.7970000e+01	   5.3428071e-01	   1.7051799e-01	
   5.8025000e+01	   5.3334818e-01	   1.7637984e-01	
   5.8080000e+01	   5.3249796e-01	   1.8236820e-01	
   5.8135000e+01	   5.3190200e-01	   1.8852780e-01	
   5.8190000e+01	   5.3170520e-01	   1.9487850e-01	
   5.8245000e+01	   5.3201249e-01	   2.0140607e-01	
   5.8300000e+01	   5.3288434e-01	   2.0805926e-01	
   5.8355000e+01	   5.3434045e-01	   2.1475452e-01	
   5.8410000e+01	   5.3636931e-01	   2.2138818e-01	
   5.8465000e+01	   5.3894066e-01	   2.2785407e-01	
   5.8520000e+01	   5.4201724e-01	   2.3406243e-01	
   5.8575000e+01	   5.4556353e-01	   2.3995544e-01	
   5.8630000e+01	   5.4955103e-01	   2.4551663e-01	
   5.8685000e+01	   5.5396159e-01	   2.5077405e-01	
   5.8740000e+01	   5.5879017e-01	   2.5579768e-01	
   5.8795000e+01	   5.6404674e-01	   2.6069130e-01	
   5.8850000e+01	   5.6975542e-01	   2.6558024e-01	
   5.8905000e+01	   5.7594942e-01	   2.7059663e-01	
   5.8960000e+01	   5.8266138e-01	   2.7586389e-01	
   5.9015000e+01	   5.8991119e-01	   2.8148098e-01	
   5.9070000e+01	   5.9769544e-01	   2.8750779e-01	
   5.9125000e+01	   6.0598141e-01	   2.9395420e-01	
   5.9180000e+01	   6.1470744e-01	   3.0077595e-01	
   5.9235000e+01	   6.2378935e-01	   3.0787885e-01	
   5.9290000e+01	   6.3313158e-01	   3.1513099e-01	
   5.9345000e+01	   6.4264053e-01	   3.2238084e-01	
   5.9400000e+01	   6.5223676e-01	   3.2947781e-01	
   5.9455000e+01	   6.6186315e-01	   3.3629090e-01	
   5.9510000e+01	   6.7148847e-01	   3.4272260e-01	
   5.9565000e+01	   6.8110791e-01	   3.4871622e-01	
   5.9620000e+01	   6.9074163e-01	   3.5425667e-01	
   5.9675000e+01	   7.0043001e-01	   3.5936515e-01	
   5.9730000e+01	   7.1022362e-01	   3.6408885e-01	
   5.9785000e+01	   7.2016921e-01	   3.6848754e-01	
   5.9840000e+01	   7.3029539e-01	   3.7261921e-01	
   5.9895000e+01	   7.4060104e-01	   3.7652626e-01	
   5.9950000e+01	   7.5104762e-01	   3.8022349e-01	
   6.0005000e+01	   7.6155555e-01	   3.8369034e-01	
   6.0060000e+01	   7.7200581e-01	   3.8687001e-01	
   6.0115000e+01	   7.8224721e-01	   3.8967647e-01	
   6.0170000e+01	   7.9210898e-01	   3.9200843e-01	
   6.0225000e+01	   8.0141747e-01	   3.9376753e-01	
   6.0280000e+01	   8.1001412e-01	   3.9487668e-01	
   6.0335000e+01	   8.1777164e-01	   3.9529460e-01	
   6.0390000e+01	   8.2460694e-01	   3.9502433e-01	
   6.0445000e+01	   8.3049048e-01	   3.9411543e-01	
   6.0500000e+01	   8.3545110e-01	   3.9266076e-01	
   6.0555000e+01	   8.3957518e-01	   3.9078848e-01	
   6.0610000e+01	   8.4299987e-01	   3.8865017e-01	
   6.0665000e+01	   8.4590036e-01	   3.8640600e-01	
   6.0720000e+01	   8.4847149e-01	   3.8420851e-01	
   6.0775000e+01	   8.5090531e-01	   3.8218665e-01	
   6.0830000e+01	   8.5336912e-01	   3.8043240e-01	
   6.0885000e+01	   8.5598888e-01	   3.7899220e-01	
   6.0940000e+01	   8.5884071e-01	   3.7786530e-01	
   6.0995000e+01	   8.6195019e-01	   3.7701001e-01	
   6.1050000e+01	   8.6529703e-01	   3.7635668e-01	
   6.1105000e+01	   8.6882353e-01	   3.7582408e-01	
   6.1160000e+01	   8.7244646e-01	   3.7533447e-01	
   6.1215000e+01	   8.7607196e-01	   3.7482398e-01	
   6.1270000e+01	   8.7961055e-01	   3.7424706e-01	
   6.1325000e+01	   8.8298935e-01	   3.7357635e-01	
   6.1380000e+01	   8.8615888e-01	   3.7280020e-01	
   6.1435000e+01	   8.8909376e-01	   3.7191904e-01	
   6.1490000e+01	   8.9178774e-01	   3.7094075e-01	
   6.1545000e+01	   8.9424501e-01	   3.6987522e-01	
   6.1600000e+01	   8.9647061e-01	   3.6872900e-01	
   6.1655000e+01	   8.9846325e-01	   3.6750111e-01	
   6.1710000e+01	   9.0021297e-01	   3.6618120e-01	
   6.1765000e+01	   9.0170418e-01	   3.6475115e-01	
   6.1820000e+01	   9.0292259e-01	   3.6319165e-01	
   6.1875000e+01	   9.0386297e-01	   3.6149301e-01	
   6.1930000e+01	   9.0453474e-01	   3.5966760e-01	
   6.1985000e+01	   9.0496565e-01	   3.5776029e-01	
   6.2040000e+01	   9.0520509e-01	   3.5585461e-01	
   6.2095000e+01	   9.0532718e-01	   3.5407334e-01	
   6.2150000e+01	   9.0543073e-01	   3.5257250e-01	
   6.2205000e+01	   9.0563395e-01	   3.5152951e-01	
   6.2260000e+01	   9.0606488e-01	   3.5112804e-01	
   6.2315000e+01	   9.0685093e-01	   3.5154236e-01	
   6.2370000e+01	   9.0810955e-01	   3.5292161e-01	
   6.2425000e+01	   9.0994050e-01	   3.5537494e-01	
   6.2480000e+01	   9.1242044e-01	   3.5895956e-01	
   6.2535000e+01	   9.1559988e-01	   3.6367488e-01	
   6.2590000e+01	   9.1950184e-01	   3.6946406e-01	
   6.2645000e+01	   9.2412282e-01	   3.7622287e-01	
   6.2700000e+01	   9.2943823e-01	   3.8381488e-01	
   6.2755000e+01	   9.3541452e-01	   3.9209081e-01	
   6.2810000e+01	   9.4202574e-01	   4.0090718e-01	
   6.2865000e+01	   9.4926852e-01	   4.1013993e-01	
   6.2920000e+01	   9.5716998e-01	   4.1969096e-01	
   6.2975000e+01	   9.6578746e-01	   4.2948839e-01	
   6.3030000e+01	   9.7520222e-01	   4.3948181e-01	
   6.3085000e+01	   9.8550885e-01	   4.4963434e-01	
   6.3140000e+01	   9.9680248e-01	   4.5991390e-01	
   6.3195000e+01	   1.0091669e+00	   4.7028475e-01	
   6.3250000e+01	   1.0226656e+00	   4.8069954e-01	
   6.3305000e+01	   1.0373359e+00	   4.9109222e-01	
   6.3360000e+01	   1.0531829e+00	   5.0137306e-01	
   6.3415000e+01	   1.0701747e+00	   5.1142766e-01	
   6.3470000e+01	   1.0882385e+00	   5.2112189e-01	
   6.3525000e+01	   1.1072615e+00	   5.3031267e-01	
   6.3580000e+01	   1.1270967e+00	   5.3886258e-01	
   6.3635000e+01	   1.1475729e+00	   5.4665559e-01	
   6.3690000e+01	   1.1685036e+00	   5.5361110e-01	
   6.3745000e+01	   1.1896897e+00	   5.5969352e-01	
   6.3800000e+01	   1.2109170e+00	   5.6491523e-01	
   6.3855000e+01	   1.2319535e+00	   5.6933344e-01	
   6.3910000e+01	   1.2525528e+00	   5.7304287e-01	
   6.3965000e+01	   1.2724620e+00	   5.7616610e-01	
   6.4020000e+01	   1.2914323e+00	   5.7884205e-01	
   6.4075000e+01	   1.3092282e+00	   5.8121313e-01	
   6.4130000e+01	   1.3256337e+00	   5.8341195e-01	
   6.4185000e+01	   1.3404569e+00	   5.8554866e-01	
   6.4240000e+01	   1.3535352e+00	   5.8770092e-01	
   6.4295000e+01	   1.3647409e+00	   5.8990859e-01	
   6.4350000e+01	   1.3739879e+00	   5.9217489e-01	
   6.4405000e+01	   1.3812358e+00	   5.9447312e-01	
   6.4460000e+01	   1.3864918e+00	   5.9675681e-01	
   6.4515000e+01	   1.3898099e+00	   5.9897066e-01	
   6.4570000e+01	   1.3912892e+00	   6.0106022e-01	
   6.4625000e+01	   1.3910678e+00	   6.0297892e-01	
   6.4680000e+01	   1.3893140e+00	   6.0469230e-01	
   6.4735000e+01	   1.3862142e+00	   6.0617919e-01	
   6.4790000e+01	   1.3819614e+00	   6.0742969e-01	
   6.4845000e+01	   1.3767455e+00	   6.0844010e-01	
   6.4900000e+01	   1.3707435e+00	   6.0920522e-01	
   6.4955000e+01	   1.3641115e+00	   6.0970984e-01	
   6.5010000e+01	   1.3569781e+00	   6.0992151e-01	
   6.5065000e+01	   1.3494402e+00	   6.0978757e-01	
   6.5120000e+01	   1.3415629e+00	   6.0923787e-01	
   6.5175000e+01	   1.3333860e+00	   6.0819371e-01	
   6.5230000e+01	   1.3249373e+00	   6.0658083e-01	
   6.5285000e+01	   1.3162473e+00	   6.0434331e-01	
   6.5340000e+01	   1.3073628e+00	   6.0145476e-01	
   6.5395000e+01	   1.2983533e+00	   5.9792501e-01	
   6.5450000e+01	   1.2893107e+00	   5.9380127e-01	
   6.5505000e+01	   1.2803450e+00	   5.8916380e-01	
   6.5560000e+01	   1.2715781e+00	   5.8411640e-01	
   6.5615000e+01	   1.2631352e+00	   5.7877325e-01	
   6.5670000e+01	   1.2551366e+00	   5.7324468e-01	
   6.5725000e+01	   1.2476914e+00	   5.6762366e-01	
   6.5780000e+01	   1.2408909e+00	   5.6197419e-01	
   6.5835000e+01	   1.2348001e+00	   5.5632329e-01	
   6.5890000e+01	   1.2294501e+00	   5.5065924e-01	
   6.5945000e+01	   1.2248349e+00	   5.4493762e-01	
   6.6000000e+01	   1.2209158e+00	   5.3909343e-01	
   6.6055000e+01	   1.2176290e+00	   5.3305609e-01	
   6.6110000e+01	   1.2148975e+00	   5.2676448e-01	
   6.6165000e+01	   1.2126414e+00	   5.2017943e-01	
   6.6220000e+01	   1.2107845e+00	   5.1329173e-01	
   6.6275000e+01	   1.2092553e+00	   5.0612465e-01	
   6.6330000e+01	   1.2079842e+00	   4.9873117e-01	
   6.6385000e+01	   1.2068987e+00	   4.9118697e-01	
   6.6440000e+01	   1.2059196e+00	   4.8357974e-01	
   6.6495000e+01	   1.2049609e+00	   4.7599651e-01	
   6.6550000e+01	   1.2039309e+00	   4.6851098e-01	
   6.6605000e+01	   1.2027320e+00	   4.6117239e-01	
   6.6660000e+01	   1.2012578e+00	   4.5399600e-01	
   6.6715000e+01	   1.1993873e+00	   4.4695550e-01	
   6.6770000e+01	   1.1969809e+00	   4.3997906e-01	
   6.6825000e+01	   1.1938825e+00	   4.3295142e-01	
   6.6880000e+01	   1.1899287e+00	   4.2572348e-01	
   6.6935000e+01	   1.1849675e+00	   4.1812881e-01	
   6.6990000e+01	   1.1788800e+00	   4.1000443e-01	
   6.7045000e+01	   1.1716033e+00	   4.0121140e-01	
   6.7100000e+01	   1.1631475e+00	   3.9165113e-01	
   6.7155000e+01	   1.1536032e+00	   3.8127535e-01	
   6.7210000e+01	   1.1431386e+00	   3.7008980e-01	
   6.7265000e+01	   1.1319882e+00	   3.5815309e-01	
   6.7320000e+01	   1.1204347e+00	   3.4557113e-01	
   6.7375000e+01	   1.1087900e+00	   3.3248733e-01	
   6.7430000e+01	   1.0973734e+00	   3.1906903e-01	
   6.7485000e+01	   1.0864899e+00	   3.0549133e-01	
   6.7540000e+01	   1.0764075e+00	   2.9192000e-01	
   6.7595000e+01	   1.0673351e+00	   2.7849524e-01	
   6.7650000e+01	   1.0594032e+00	   2.6531908e-01	
   6.7705000e+01	   1.0526525e+00	   2.5244838e-01	
   6.7760000e+01	   1.0470330e+00	   2.3989428e-01	
   6.7815000e+01	   1.0424134e+00	   2.2762808e-01	
   6.7870000e+01	   1.0386005e+00	   2.1559295e-01	
   6.7925000e+01	   1.0353636e+00	   2.0371924e-01	
   6.7980000e+01	   1.0324605e+00	   1.9193995e-01	
   6.8035000e+01	   1.0296593e+00	   1.8020365e-01	
   6.8090000e+01	   1.0267560e+00	   1.6848376e-01	
   6.8145000e+01	   1.0235862e+00	   1.5678355e-01	
   6.8200000e+01	   1.0200308e+00	   1.4513580e-01	
   6.8255000e+01	   1.0160117e+00	   1.3359632e-01	
   6.8310000e+01	   1.0114805e+00	   1.2223260e-01	
   6.8365000e+01	   1.0064051e+00	   1.1111063e-01	
   6.8420000e+01	   1.0007595e+00	   1.0028320e-01	
   6.8475000e+01	   9.9451921e-01	   8.9781358e-02	
   6.8530000e+01	   9.8766023e-01	   7.9610178e-02	
   6.8585000e+01	   9.8016058e-01	   6.9749636e-02	
   6.8640000e+01	   9.7200462e-01	   6.0161306e-02	
   6.8695000e+01	   9.6318956e-01	   5.0799599e-02	
   6.8750000e+01	   9.5373340e-01	   4.1624349e-02	
   6.8805000e+01	   9.4368333e-01	   3.2610975e-02	
   6.8860000e+01	   9.3312287e-01	   2.3755774e-02	
   6.8915000e+01	   9.2217386e-01	   1.5076337e-02	
   6.8970000e+01	   9.1099087e-01	   6.6084851e-03	
   6.9025000e+01	   8.9974948e-01	  -1.5991513e-03	
   6.9080000e+01	   8.8863107e-01	  -9.4926819e-03	
   6.9135000e+01	   8.7780614e-01	  -1.7022386e-02	
   6.9190000e+01	   8.6741926e-01	  -2.4152918e-02	
   6.9245000e+01	   8.5757826e-01	  -3.0872480e-02	
   6.9300000e+01	   8.4834693e-01	  -3.7199279e-02	
   6.9355000e+01	   8.3973957e-01	  -4.3184080e-02	
   6.9410000e+01	   8.3171840e-01	  -4.8907953e-02	
   6.9465000e+01	   8.2419596e-01	  -5.4474514e-02	
   6.9520000e+01	   8.1704216e-01	  -5.9997027e-02	
   6.9575000e+01	   8.1009356e-01	  -6.5582687e-02	
   6.9630000e+01	   8.0316254e-01	  -7.1317402e-02	
   6.9685000e+01	   7.9604691e-01	  -7.7253705e-02	
   6.9740000e+01	   7.8854109e-01	  -8.3403368e-02	
   6.9795000e+01	   7.8044758e-01	  -8.9736054e-02	
   6.9850000e+01	   7.7158689e-01	  -9.6184736e-02	
   6.9905000e+01	   7.6180561e-01	  -1.0265651e-01	
   6.9960000e+01	   7.5098376e-01	  -1.0904606e-01	
   7.0015000e+01	   7.3904094e-01	  -1.1525006e-01	
   7.0070000e+01	   7.2593957e-01	  -1.2118199e-01	
   7.0125000e+01	   7.1168404e-01	  -1.2678645e-01	
   7.0180000e+01	   6.9631647e-01	  -1.3205072e-01	
   7.0235000e+01	   6.7991126e-01	  -1.3701124e-01	
   7.0290000e+01	   6.6257029e-01	  -1.4175252e-01	
   7.0345000e+01	   6.4442034e-01	  -1.4639733e-01	
   7.0400000e+01	   6.2561426e-01	  -1.5108912e-01	
   7.0455000e+01	   6.0633522e-01	  -1.5597082e-01	
   7.0510000e+01	   5.8679999e-01	  -1.6116534e-01	
   7.0565000e+01	   5.6725751e-01	  -1.6676093e-01	
   7.0620000e+01	   5.4798229e-01	  -1.7280202e-01	
   7.0675000e+01	   5.2926455e-01	  -1.7928551e-01	
   7.0730000e+01	   5.1139733e-01	  -1.8616238e-01	
   7.0785000e+01	   4.9466123e-01	  -1.9334481e-01	
   7.0840000e+01	   4.7930802e-01	  -2.0071779e-01	
   7.0895000e+01	   4.6554436e-01	  -2.0815457e-01	
   7.0950000e+01	   4.5351482e-01	  -2.1553451e-01	
   7.1005000e+01	   4.4328493e-01	  -2.2276060e-01	
   7.1060000e+01	   4.3482828e-01	  -2.2977337e-01	
   7.1115000e+01	   4.2802188e-01	  -2.3655951e-01	
   7.1170000e+01	   4.2265073e-01	  -2.4315468e-01	
   7.1225000e+01	   4.1842161e-01	  -2.4963943e-01	
   7.1280000e+01	   4.1498621e-01	  -2.5612721e-01	
   7.1335000e+01	   4.1197138e-01	  -2.6274589e-01	
   7.1390000e+01	   4.0901072e-01	  -2.6961701e-01	
   7.1445000e+01	   4.0577289e-01	  -2.7683665e-01	
   7.1500000e+01	   4.0198463e-01	  -2.8446081e-01	
   7.1555000e+01	   3.9744658e-01	  -2.9249692e-01	
   7.1610000e+01	   3.9204041e-01	  -3.0090227e-01	
   7.1665000e+01	   3.8572684e-01	  -3.0958841e-01	
   7.1720000e+01	   3.7853621e-01	  -3.1843019e-01	
   7.1775000e+01	   3.7055379e-01	  -3.2727816e-01	
   7.1830000e+01	   3.6190180e-01	  -3.3597398e-01	
   7.1885000e+01	   3.5272111e-01	  -3.4436747e-01	
   7.1940000e+01	   3.4315571e-01	  -3.5233268e-01	
   7.1995000e+01	   3.3334180e-01	  -3.5977948e-01	
   7.2050000e+01	   3.2340289e-01	  -3.6665785e-01	
   7.2105000e+01	   3.1345173e-01	  -3.7295431e-01	
   7.2160000e+01	   3.0359846e-01	  -3.7868193e-01	
   7.2215000e+01	   2.9396191e-01	  -3.8386685e-01	
   7.2270000e+01	   2.8467829e-01	  -3.8853466e-01	
   7.2325000e+01	   2.7590266e-01	  -3.9270022e-01	
   7.2380000e+01	   2.6780266e-01	  -3.9636203e-01	
   7.2435000e+01	   2.6054599e-01	  -3.9950116e-01	
   7.2490000e+01	   2.5428356e-01	  -4.0208437e-01	
   7.2545000e+01	   2.4913165e-01	  -4.0407073e-01	
   7.2600000e+01	   2.4515794e-01	  -4.0542032e-01	
   7.2655000e+01	   2.4237427e-01	  -4.0610263e-01	
   7.2710000e+01	   2.4073565e-01	  -4.0610365e-01	
   7.2765000e+01	   2.4014339e-01	  -4.0543084e-01	
   7.2820000e+01	   2.4045147e-01	  -4.0411455e-01	
   7.2875000e+01	   2.4147694e-01	  -4.0220453e-01	
   7.2930000e+01	   2.4301467e-01	  -3.9976117e-01	
   7.2985000e+01	   2.4485434e-01	  -3.9684325e-01	
   7.3040000e+01	   2.4679696e-01	  -3.9349489e-01	
   7.3095000e+01	   2.4866879e-01	  -3.8973406e-01	
   7.3150000e+01	   2.5033107e-01	  -3.8554469e-01	
   7.3205000e+01	   2.5168516e-01	  -3.8087426e-01	
   7.3260000e+01	   2.5267408e-01	  -3.7563845e-01	
   7.3315000e+01	   2.5328259e-01	  -3.6973213e-01	
   7.3370000e+01	   2.5353601e-01	  -3.6304455e-01	
   7.3425000e+01	   2.5349642e-01	  -3.5547602e-01	
   7.3480000e+01	   2.5325669e-01	  -3.4695378e-01	
   7.3535000e+01	   2.5293389e-01	  -3.3744481e-01	
   7.3590000e+01	   2.5266207e-01	  -3.2696408e-01	
   7.3645000e+01	   2.5258358e-01	  -3.1557721e-01	
   7.3700000e+01	   2.5284045e-01	  -3.0339588e-01	
   7.3755000e+01	   2.5356833e-01	  -2.9056502e-01	
   7.3810000e+01	   2.5489241e-01	  -2.7724439e-01	
   7.3865000e+01	   2.5692349e-01	  -2.6358925e-01	
   7.3920000e+01	   2.5975431e-01	  -2.4973398e-01	
   7.3975000e+01	   2.6345742e-01	  -2.3578039e-01	
   7.4030000e+01	   2.6808426e-01	  -2.2179188e-01	
   7.4085000e+01	   2.7366344e-01	  -2.0779434e-01	
   7.4140000e+01	   2.8019729e-01	  -1.9378297e-01	
   7.4195000e+01	   2.8765862e-01	  -1.7973317e-01	
   7.4250000e+01	   2.9598941e-01	  -1.6561401e-01	
   7.4305000e+01	   3.0510139e-01	  -1.5140284e-01	
   7.4360000e+01	   3.1487676e-01	  -1.3709962e-01	
   7.4415000e+01	   3.2516755e-01	  -1.2273847e-01	
   7.4470000e+01	   3.3579565e-01	  -1.0839397e-01	
   7.4525000e+01	   3.4655748e-01	  -9.4180290e-02	
   7.4580000e+01	   3.5723692e-01	  -8.0241946e-02	
   7.4635000e+01	   3.6762584e-01	  -6.6737049e-02	
   7.4690000e+01	   3.7754849e-01	  -5.3816591e-02	
   7.4745000e+01	   3.8688380e-01	  -4.1604809e-02	
   7.4800000e+01	   3.9558073e-01	  -3.0184709e-02	
   7.4855000e+01	   4.0366391e-01	  -1.9590547e-02	
   7.4910000e+01	   4.1122999e-01	  -9.8070859e-03	
   7.4965000e+01	   4.1843565e-01	  -7.7485979e-04	
   7.5020000e+01	   4.2547822e-01	   7.5994846e-03	
   7.5075000e+01	   4.3257097e-01	   1.5429290e-02	
   7.5130000e+01	   4.3991590e-01	   2.2832447e-02	
   7.5185000e+01	   4.4767722e-01	   2.9916255e-02	
   7.5240000e+01	   4.5595806e-01	   3.6763900e-02	
   7.5295000e+01	   4.6478384e-01	   4.3423664e-02	
   7.5350000e+01	   4.7409513e-01	   4.9902150e-02	
   7.5405000e+01	   4.8375145e-01	   5.6162952e-02	
   7.5460000e+01	   4.9354549e-01	   6.2132036e-02	
   7.5515000e+01	   5.0322596e-01	   6.7709935e-02	
   7.5570000e+01	   5.1252468e-01	   7.2788361e-02	
   7.5625000e+01	   5.2118315e-01	   7.7267019e-02	
   7.5680000e+01	   5.2897530e-01	   8.1066963e-02	
   7.5735000e+01	   5.3572470e-01	   8.4139142e-02	
   7.5790000e+01	   5.4131552e-01	   8.6468608e-02	
   7.5845000e+01	   5.4569638e-01	   8.8075089e-02	
   7.5900000e+01	   5.4887697e-01	   8.9009992e-02	
   7.5955000e+01	   5.5091942e-01	   8.9350126e-02	
   7.6010000e+01	   5.5192775e-01	   8.9189106e-02	
   7.6065000e+01	   5.5203730e-01	   8.8627348e-02	
   7.6120000e+01	   5.5140356e-01	   8.7761759e-02	
   7.6175000e+01	   5.5019100e-01	   8.6677451e-02	
   7.6230000e+01	   5.4856272e-01	   8.5444105e-02	
   7.6285000e+01	   5.4667147e-01	   8.4117737e-02	
   7.6340000e+01	   5.4465243e-01	   8.2746588e-02	
   7.6395000e+01	   5.4261885e-01	   8.1379400e-02	
   7.6450000e+01	   5.4066177e-01	   8.0074390e-02	
   7.6505000e+01	   5.3885345e-01	   7.8906771e-02	
   7.6560000e+01	   5.3725202e-01	   7.7972370e-02	
   7.6615000e+01	   5.3590333e-01	   7.7385488e-02	
   7.6670000e+01	   5.3483820e-01	   7.7270651e-02	
   7.6725000e+01	   5.3406713e-01	   7.7749735e-02	
   7.6780000e+01	   5.3357531e-01	   7.8927251e-02	
   7.6835000e+01	   5.3331986e-01	   8.0876539e-02	
   7.6890000e+01	   5.3323055e-01	   8.3628755e-02	
   7.6945000e+01	   5.3321544e-01	   8.7165970e-02	
   7.7000000e+01	   5.3317029e-01	   9.1419522e-02	
   7.7055000e+01	   5.3298852e-01	   9.6274710e-02	
   7.7110000e+01	   5.3256977e-01	   1.0158278e-01	
   7.7165000e+01	   5.3182827e-01	   1.0717967e-01	
   7.7220000e+01	   5.3070171e-01	   1.1290826e-01	
   7.7275000e+01	   5.2915947e-01	   1.1863926e-01	
   7.7330000e+01	   5.2720873e-01	   1.2428665e-01	
   7.7385000e+01	   5.2489726e-01	   1.2981507e-01	
   7.7440000e+01	   5.2231110e-01	   1.3523849e-01	
   7.7495000e+01	   5.1956622e-01	   1.4061135e-01	
   7.7550000e+01	   5.1679540e-01	   1.4601532e-01	
   7.7605000e+01	   5.1413242e-01	   1.5154419e-01	
   7.7660000e+01	   5.1169440e-01	   1.5728796e-01	
   7.7715000e+01	   5.0956419e-01	   1.6331684e-01	
   7.7770000e+01	   5.0777593e-01	   1.6966706e-01	
   7.7825000e+01	   5.0630721e-01	   1.7633127e-01	
   7.7880000e+01	   5.0507833e-01	   1.8325529e-01	
   7.7935000e+01	   5.0395871e-01	   1.9034309e-01	
   7.7990000e+01	   5.0278023e-01	   1.9747064e-01	
   7.8045000e+01	   5.0135623e-01	   2.0450609e-01	
   7.8100000e+01	   4.9950183e-01	   2.1133036e-01	
   7.8155000e+01	   4.9705064e-01	   2.1785234e-01	
   7.8210000e+01	   4.9386580e-01	   2.2401676e-01	
   7.8265000e+01	   4.8984639e-01	   2.2980584e-01	
   7.8320000e+01	   4.8493036e-01	   2.3523629e-01	
   7.8375000e+01	   4.7909395e-01	   2.4035232e-01	
   7.8430000e+01	   4.7234713e-01	   2.4521541e-01	
   7.8485000e+01	   4.6472546e-01	   2.4989249e-01	
   7.8540000e+01	   4.5627914e-01	   2.5444353e-01	
   7.8595000e+01	   4.4706075e-01	   2.5890871e-01	
   7.8650000e+01	   4.3711379e-01	   2.6329664e-01	
   7.8705000e+01	   4.2646427e-01	   2.6757588e-01	
   7.8760000e+01	   4.1511705e-01	   2.7167226e-01	
   7.8815000e+01	   4.0305829e-01	   2.7547316e-01	
   7.8870000e+01	   3.9026389e-01	   2.7883912e-01	
   7.8925000e+01	   3.7671110e-01	   2.8162111e-01	
   7.8980000e+01	   3.6238956e-01	   2.8367992e-01	
   7.9035000e+01	   3.4730923e-01	   2.8490314e-01	
   7.9090000e+01	   3.3150447e-01	   2.8521748e-01	
   7.9145000e+01	   3.1503369e-01	   2.8459585e-01	
   7.9200000e+01	   2.9797483e-01	   2.8305898e-01	
   7.9255000e+01	   2.8041698e-01	   2.8067130e-01	
   7.9310000e+01	   2.6245003e-01	   2.7753193e-01	
   7.9365000e+01	   2.4415491e-01	   2.7376282e-01	
   7.9420000e+01	   2.2559699e-01	   2.6949609e-01	
   7.9475000e+01	   2.0682272e-01	   2.6486192e-01	
   7.9530000e+01	   1.8785902e-01	   2.5997830e-01	
   7.9585000e+01	   1.6871618e-01	   2.5494462e-01	
   7.9640000e+01	   1.4939551e-01	   2.4984073e-01	
   7.9695000e+01	   1.2990095e-01	   2.4473189e-01	
   7.9750000e+01	   1.1025062e-01	   2.3967837e-01	
   7.9805000e+01	   9.0484473e-02	   2.3474706e-01	
   7.9860000e+01	   7.0666830e-02	   2.3002142e-01	
   7.9915000e+01	   5.0885471e-02	   2.2560744e-01	
   7.9970000e+01	   3.1249618e-02	   2.2163467e-01	
   8.0025000e+01	   1.1889105e-02	   2.1825252e-01	
   8.0080000e+01	  -7.0444658e-03	   2.1562241e-01	
   8.0135000e+01	  -2.5376824e-02	   2.1390620e-01	
   8.0190000e+01	  -4.2914067e-02	   2.1325209e-01	
   8.0245000e+01	  -5.9451734e-02	   2.1378033e-01	
   8.0300000e+01	  -7.4789338e-02	   2.1557057e-01	
   8.0355000e+01	  -8.8747497e-02	   2.1865161e-01	
   8.0410000e+01	  -1.0118362e-01	   2.2299489e-01	
   8.0465000e+01	  -1.1200199e-01	   2.2851449e-01	
   8.0520000e+01	  -1.2115613e-01	   2.3507582e-01	
   8.0575000e+01	  -1.2864433e-01	   2.4251160e-01	
   8.0630000e+01	  -1.3450045e-01	   2.5064130e-01	
   8.0685000e+01	  -1.3878120e-01	   2.5929000e-01	
   8.0740000e+01	  -1.4155207e-01	   2.6830324e-01	
   8.0795000e+01	  -1.4287720e-01	   2.7755556e-01	
   8.0850000e+01	  -1.4281682e-01	   2.8695140e-01	
   8.0905000e+01	  -1.4143163e-01	   2.9641993e-01	
   8.0960000e+01	  -1.3879031e-01	   3.0590611e-01	
   8.1015000e+01	  -1.3497783e-01	   3.1536047e-01	
   8.1070000e+01	  -1.3010405e-01	   3.2472853e-01	
   8.1125000e+01	  -1.2431196e-01	   3.3394157e-01	
   8.1180000e+01	  -1.1778340e-01	   3.4291050e-01	
   8.1235000e+01	  -1.1073963e-01	   3.5152535e-01	
   8.1290000e+01	  -1.0343434e-01	   3.5966162e-01	
   8.1345000e+01	  -9.6138700e-02	   3.6719328e-01	
   8.1400000e+01	  -8.9120567e-02	   3.7400957e-01	
   8.1455000e+01	  -8.2623448e-02	   3.8003086e-01	
   8.1510000e+01	  -7.6849164e-02	   3.8522038e-01	
   8.1565000e+01	  -7.1945009e-02	   3.8959060e-01	
   8.1620000e+01	  -6.7995079e-02	   3.9320480e-01	
   8.1675000e+01	  -6.5016405e-02	   3.9617389e-01	
   8.1730000e+01	  -6.2959450e-02	   3.9864758e-01	
   8.1785000e+01	  -6.1711270e-02	   4.0080003e-01	
   8.1840000e+01	  -6.1101541e-02	   4.0281116e-01	
   8.1895000e+01	  -6.0914796e-02	   4.0484597e-01	
   8.1950000e+01	  -6.0911324e-02	   4.0703541e-01	
   8.2005000e+01	  -6.0853891e-02	   4.0946244e-01	
   8.2060000e+01	  -6.0533505e-02	   4.1215576e-01	
   8.2115000e+01	  -5.9788384e-02	   4.1509187e-01	
   8.2170000e+01	  -5.8513903e-02	   4.1820489e-01	
   8.2225000e+01	  -5.6664034e-02	   4.2140214e-01	
   8.2280000e+01	  -5.4246119e-02	   4.2458171e-01	
   8.2335000e+01	  -5.1311457e-02	   4.2764811e-01	
   8.2390000e+01	  -4.7944526e-02	   4.3052326e-01	
   8.2445000e+01	  -4.4253144e-02	   4.3315197e-01	
   8.2500000e+01	  -4.0360688e-02	   4.3550291e-01	
   8.2555000e+01	  -3.6400377e-02	   4.3756582e-01	
   8.2610000e+01	  -3.2511231e-02	   4.3934617e-01	
   8.2665000e+01	  -2.8835522e-02	   4.4085830e-01	
   8.2720000e+01	  -2.5517459e-02	   4.4211797e-01	
   8.2775000e+01	  -2.2702755e-02	   4.4313432e-01	
   8.2830000e+01	  -2.0538708e-02	   4.4390223e-01	
   8.2885000e+01	  -1.9173747e-02	   4.4439706e-01	
   8.2940000e+01	  -1.8754291e-02	   4.4457441e-01	
   8.2995000e+01	  -1.9417557e-02	   4.4437630e-01	
   8.3050000e+01	  -2.1281715e-02	   4.4374216e-01	
   8.3105000e+01	  -2.4435622e-02	   4.4262147e-01	
   8.3160000e+01	  -2.8928549e-02	   4.4098492e-01	
   8.3215000e+01	  -3.4759610e-02	   4.3883219e-01	
   8.3270000e+01	  -4.1868490e-02	   4.3619543e-01	
   8.3325000e+01	  -5.0130568e-02	   4.3313866e-01	
   8.3380000e+01	  -5.9359013e-02	   4.2975301e-01	
   8.3435000e+01	  -6.9314521e-02	   4.2614801e-01	
   8.3490000e+01	  -7.9721394e-02	   4.2243933e-01	
   8.3545000e+01	  -9.0288341e-02	   4.1873425e-01	
   8.3600000e+01	  -1.0073212e-01	   4.1511762e-01	
   8.3655000e+01	  -1.1080014e-01	   4.1164092e-01	
   8.3710000e+01	  -1.2028668e-01	   4.0831653e-01	
   8.3765000e+01	  -1.2903900e-01	   4.0511903e-01	
   8.3820000e+01	  -1.3695367e-01	   4.0199418e-01	
   8.3875000e+01	  -1.4396611e-01	   3.9887343e-01	
   8.3930000e+01	  -1.5003803e-01	   3.9568913e-01	
   8.3985000e+01	  -1.5514714e-01	   3.9238694e-01	
   8.4040000e+01	  -1.5928050e-01	   3.8893390e-01	
   8.4095000e+01	  -1.6243154e-01	   3.8532204e-01	
   8.4150000e+01	  -1.6460147e-01	   3.8156715e-01	
   8.4205000e+01	  -1.6580594e-01	   3.7770293e-01	
   8.4260000e+01	  -1.6608498e-01	   3.7377146e-01	
   8.4315000e+01	  -1.6551265e-01	   3.6981180e-01	
   8.4370000e+01	  -1.6420415e-01	   3.6584854e-01	
   8.4425000e+01	  -1.6232016e-01	   3.6188240e-01	
   8.4480000e+01	  -1.6006783e-01	   3.5788439e-01	
   8.4535000e+01	  -1.5769715e-01	   3.5379497e-01	
   8.4590000e+01	  -1.5549135e-01	   3.4952916e-01	
   8.4645000e+01	  -1.5375084e-01	   3.4498718e-01	
   8.4700000e+01	  -1.5277296e-01	   3.4006860e-01	
   8.4755000e+01	  -1.5283079e-01	   3.3468740e-01	
   8.4810000e+01	  -1.5415415e-01	   3.2878450e-01	
   8.4865000e+01	  -1.5691461e-01	   3.2233585e-01	
   8.4920000e+01	  -1.6121488e-01	   3.1535481e-01	
   8.4975000e+01	  -1.6708280e-01	   3.0788977e-01	
   8.5030000e+01	  -1.7447068e-01	   3.0001764e-01	
   8.5085000e+01	  -1.8326150e-01	   2.9183406e-01	
   8.5140000e+01	  -1.9328221e-01	   2.8344142e-01	
   8.5195000e+01	  -2.0432239e-01	   2.7493567e-01	
   8.5250000e+01	  -2.1615413e-01	   2.6639288e-01	
   8.5305000e+01	  -2.2855003e-01	   2.5785697e-01	
   8.5360000e+01	  -2.4129822e-01	   2.4933076e-01	
   8.5415000e+01	  -2.5421557e-01	   2.4077306e-01	
   8.5470000e+01	  -2.6715857e-01	   2.3210332e-01	
   8.5525000e+01	  -2.8002947e-01	   2.2321387e-01	
   8.5580000e+01	  -2.9277418e-01	   2.1398802e-01	
   8.5635000e+01	  -3.0537239e-01	   2.0432074e-01	
   8.5690000e+01	  -3.1782408e-01	   1.9413798e-01	
   8.5745000e+01	  -3.3013662e-01	   1.8341130e-01	
   8.5800000e+01	  -3.4231335e-01	   1.7216545e-01	
   8.5855000e+01	  -3.5434266e-01	   1.6047815e-01	
   8.5910000e+01	  -3.6618916e-01	   1.4847296e-01	
   8.5965000e+01	  -3.7778921e-01	   1.3630664e-01	
   8.6020000e+01	  -3.8905146e-01	   1.2415295e-01	
   8.6075000e+01	  -3.9986045e-01	   1.1218533e-01	
   8.6130000e+01	  -4.1008346e-01	   1.0055964e-01	
   8.6185000e+01	  -4.1958083e-01	   8.9397973e-02	
   8.6240000e+01	  -4.2821806e-01	   7.8775172e-02	
   8.6295000e+01	  -4.3587616e-01	   6.8710455e-02	
   8.6350000e+01	  -4.4245815e-01	   5.9166051e-02	
   8.6405000e+01	  -4.4789215e-01	   5.0053692e-02	
   8.6460000e+01	  -4.5213224e-01	   4.1248275e-02	
   8.6515000e+01	  -4.5515804e-01	   3.2606257e-02	
   8.6570000e+01	  -4.5697346e-01	   2.3985140e-02	
   8.6625000e+01	  -4.5760462e-01	   1.5260913e-02	
   8.6680000e+01	  -4.5709630e-01	   6.3416041e-03	
   8.6735000e+01	  -4.5550809e-01	  -2.8243613e-03	
   8.6790000e+01	  -4.5291250e-01	  -1.2246391e-02	
   8.6845000e+01	  -4.4939614e-01	  -2.1897009e-02	
   8.6900000e+01	  -4.4506210e-01	  -3.1723015e-02	
   8.6955000e+01	  -4.4003213e-01	  -4.1660266e-02	
   8.7010000e+01	  -4.3445010e-01	  -5.1649572e-02	
   8.7065000e+01	  -4.2848850e-01	  -6.1650972e-02	
   8.7120000e+01	  -4.2235612e-01	  -7.1653569e-02	
   8.7175000e+01	  -4.1630193e-01	  -8.1678589e-02	
   8.7230000e+01	  -4.1061046e-01	  -9.1774586e-02	
   8.7285000e+01	  -4.0558764e-01	  -1.0200568e-01	
   8.7340000e+01	  -4.0153931e-01	  -1.1243566e-01	
   8.7395000e+01	  -3.9874649e-01	  -1.2311167e-01	
   8.7450000e+01	  -3.9744172e-01	  -1.3405090e-01	
   8.7505000e+01	  -3.9778976e-01	  -1.4523252e-01	
   8.7560000e+01	  -3.9987390e-01	  -1.5659533e-01	
   8.7615000e+01	  -4.0368825e-01	  -1.6804104e-01	
   8.7670000e+01	  -4.0913572e-01	  -1.7944268e-01	
   8.7725000e+01	  -4.1603304e-01	  -1.9065756e-01	
   8.7780000e+01	  -4.2412396e-01	  -2.0154321e-01	
   8.7835000e+01	  -4.3310144e-01	  -2.1197360e-01	
   8.7890000e+01	  -4.4263639e-01	  -2.2185360e-01	
   8.7945000e+01	  -4.5240895e-01	  -2.3113033e-01	
   8.8000000e+01	  -4.6213652e-01	  -2.3980082e-01	
   8.8055000e+01	  -4.7159342e-01	  -2.4791434e-01	
   8.8110000e+01	  -4.8061932e-01	  -2.5556811e-01	
   8.8165000e+01	  -4.8911685e-01	  -2.6289560e-01	
   8.8220000e+01	  -4.9704008e-01	  -2.7004781e-01	
   8.8275000e+01	  -5.0437544e-01	  -2.7717041e-01	
   8.8330000e+01	  -5.1111806e-01	  -2.8438137e-01	
   8.8385000e+01	  -5.1724824e-01	  -2.9175373e-01	
   8.8440000e+01	  -5.2271265e-01	  -2.9930646e-01	
   8.8495000e+01	  -5.2741347e-01	  -3.0700390e-01	
   8.8550000e+01	  -5.3120558e-01	  -3.1476251e-01	
   8.8605000e+01	  -5.3390150e-01	  -3.2246354e-01	
   8.8660000e+01	  -5.3528337e-01	  -3.2997047e-01	
   8.8715000e+01	  -5.3512163e-01	  -3.3714926e-01	
   8.8770000e+01	  -5.3320022e-01	  -3.4388925e-01	
   8.8825000e+01	  -5.2934689e-01	  -3.5012200e-01	
   8.8880000e+01	  -5.2346470e-01	  -3.5583579e-01	
   8.8935000e+01	  -5.1555847e-01	  -3.6108361e-01	
   8.8990000e+01	  -5.0574981e-01	  -3.6598298e-01	
   8.9045000e+01	  -4.9427699e-01	  -3.7070710e-01	
   8.9100000e+01	  -4.8147922e-01	  -3.7546713e-01	
   8.9155000e+01	  -4.6776854e-01	  -3.8048810e-01	
   8.9210000e+01	  -4.5359502e-01	  -3.8598294e-01	
   8.9265000e+01	  -4.3941155e-01	  -3.9212922e-01	
   8.9320000e+01	  -4.2564293e-01	  -3.9905201e-01	
   8.9375000e+01	  -4.1266161e-01	  -4.0681449e-01	
   8.9430000e+01	  -4.0077090e-01	  -4.1541616e-01	
   8.9485000e+01	  -3.9019745e-01	  -4.2479770e-01	
   8.9540000e+01	  -3.8109357e-01	  -4.3485093e-01	
   8.9595000e+01	  -3.7354680e-01	  -4.4543310e-01	
   8.9650000e+01	  -3.6759251e-01	  -4.5638444e-01	
   8.9705000e+01	  -3.6322663e-01	  -4.6754750e-01	
   8.9760000e+01	  -3.6041833e-01	  -4.7878555e-01	
   8.9815000e+01	  -3.5912164e-01	  -4.8999663e-01	
   8.9870000e+01	  -3.5928390e-01	  -5.0112033e-01	
   8.9925000e+01	  -3.6084957e-01	  -5.1213656e-01	
   8.9980000e+01	  -3.6375988e-01	  -5.2305700e-01	
   9.0035000e+01	  -3.6794853e-01	  -5.3391100e-01	
   9.0090000e+01	  -3.7333290e-01	  -5.4472875e-01	
   9.0145000e+01	  -3.7980279e-01	  -5.5552532e-01	
   9.0200000e+01	  -3.8721258e-01	  -5.6628896e-01	
   9.0255000e+01	  -3.9538043e-01	  -5.7697505e-01	
   9.0310000e+01	  -4.0409410e-01	  -5.8750578e-01	
   9.0365000e+01	  -4.1312044e-01	  -5.9777522e-01	
   9.0420000e+01	  -4.2221689e-01	  -6.0765895e-01	
   9.0475000e+01	  -4.3114366e-01	  -6.1702677e-01	
   9.0530000e+01	  -4.3967529e-01	  -6.2575558e-01	
   9.0585000e+01	  -4.4761093e-01	  -6.3374135e-01	
   9.0640000e+01	  -4.5478389e-01	  -6.4090931e-01	
   9.0695000e+01	  -4.6107016e-01	  -6.4722164e-01	
   9.0750000e+01	  -4.6639386e-01	  -6.5268068e-01	
   9.0805000e+01	  -4.7072712e-01	  -6.5732603e-01	
   9.0860000e+01	  -4.7408319e-01	  -6.6122524e-01	
   9.0915000e+01	  -4.7650311e-01	  -6.6445960e-01	
   9.0970000e+01	  -4.7803900e-01	  -6.6710827e-01	
   9.1025000e+01	  -4.7873814e-01	  -6.6923435e-01	
   9.1080000e+01	  -4.7863053e-01	  -6.7087524e-01	
   9.1135000e+01	  -4.7772064e-01	  -6.7203797e-01	
   9.1190000e+01	  -4.7598339e-01	  -6.7269913e-01	
   9.1245000e+01	  -4.7336546e-01	  -6.7280959e-01	
   9.1300000e+01	  -4.6979380e-01	  -6.7230376e-01	
   9.1355000e+01	  -4.6519178e-01	  -6.7111247e-01	
   9.1410000e+01	  -4.5950072e-01	  -6.6917829e-01	
   9.1465000e+01	  -4.5270268e-01	  -6.6647139e-01	
   9.1520000e+01	  -4.4483902e-01	  -6.6300381e-01	
   9.1575000e+01	  -4.3602019e-01	  -6.5883897e-01	
   9.1630000e+01	  -4.2642440e-01	  -6.5409267e-01	
   9.1685000e+01	  -4.1628566e-01	  -6.4892435e-01	
   9.1740000e+01	  -4.0587414e-01	  -6.4352016e-01	
   9.1795000e+01	  -3.9547210e-01	  -6.3807159e-01	
   9.1850000e+01	  -3.8534952e-01	  -6.3275369e-01	
   9.1905000e+01	  -3.7574277e-01	  -6.2770634e-01	
   9.1960000e+01	  -3.6683902e-01	  -6.2302095e-01	
   9.2015000e+01	  -3.5876781e-01	  -6.1873398e-01	
   9.2070000e+01	  -3.5160037e-01	  -6.1482716e-01	
   9.2125000e+01	  -3.4535618e-01	  -6.1123471e-01	
   9.2180000e+01	  -3.4001534e-01	  -6.0785655e-01	
   9.2235000e+01	  -3.3553362e-01	  -6.0457515e-01	
   9.2290000e+01	  -3.3185604e-01	  -6.0127306e-01	
   9.2345000e+01	  -3.2892674e-01	  -5.9784916e-01	
   9.2400000e+01	  -3.2669591e-01	  -5.9423259e-01	
   9.2455000e+01	  -3.2512442e-01	  -5.9039232e-01	
   9.2510000e+01	  -3.2418428e-01	  -5.8634008e-01	
   9.2565000e+01	  -3.2385304e-01	  -5.8212518e-01	
   9.2620000e+01	  -3.2410206e-01	  -5.7782189e-01	
   9.2675000e+01	  -3.2488021e-01	  -5.7351224e-01	
   9.2730000e+01	  -3.2609668e-01	  -5.6926861e-01	
   9.2785000e+01	  -3.2760825e-01	  -5.6513963e-01	
   9.2840000e+01	  -3.2921522e-01	  -5.6114093e-01	
   9.2895000e+01	  -3.3066695e-01	  -5.5725110e-01	
   9.2950000e+01	  -3.3167584e-01	  -5.5341261e-01	
   9.3005000e+01	  -3.3193728e-01	  -5.4953764e-01	
   9.3060000e+01	  -3.3115284e-01	  -5.4551812e-01	
   9.3115000e+01	  -3.2905405e-01	  -5.4123876e-01	
   9.3170000e+01	  -3.2542516e-01	  -5.3659133e-01	
   9.3225000e+01	  -3.2012318e-01	  -5.3148876e-01	
   9.3280000e+01	  -3.1309219e-01	  -5.2587815e-01	
   9.3335000e+01	  -3.0436844e-01	  -5.1975119e-01	
   9.3390000e+01	  -2.9407512e-01	  -5.1314914e-01	
   9.3445000e+01	  -2.8240720e-01	  -5.0616081e-01	
   9.3500000e+01	  -2.6960961e-01	  -4.9891336e-01	
   9.3555000e+01	  -2.5595240e-01	  -4.9155733e-01	
   9.3610000e+01	  -2.4170699e-01	  -4.8424873e-01	
   9.3665000e+01	  -2.2712781e-01	  -4.7713169e-01	
   9.3720000e+01	  -2.1244136e-01	  -4.7032501e-01	
   9.3775000e+01	  -1.9784164e-01	  -4.6391387e-01	
   9.3830000e+01	  -1.8348896e-01	  -4.5794653e-01	
   9.3885000e+01	  -1.6951133e-01	  -4.5243499e-01	
   9.3940000e+01	  -1.5600882e-01	  -4.4735864e-01	
   9.3995000e+01	  -1.4305953e-01	  -4.4267097e-01	
   9.4050000e+01	  -1.3072572e-01	  -4.3830940e-01	
   9.4105000e+01	  -1.1905941e-01	  -4.3420765e-01	
   9.4160000e+01	  -1.0810750e-01	  -4.3030841e-01	
   9.4215000e+01	  -9.7915979e-02	  -4.2657269e-01	
   9.4270000e+01	  -8.8531680e-02	  -4.2298253e-01	
   9.4325000e+01	  -8.0000223e-02	  -4.1953607e-01	
   9.4380000e+01	  -7.2361181e-02	  -4.1623705e-01	
   9.4435000e+01	  -6.5642579e-02	  -4.1308258e-01	
   9.4490000e+01	  -5.9855688e-02	  -4.1005274e-01	
   9.4545000e+01	  -5.4989758e-02	  -4.0710413e-01	
   9.4600000e+01	  -5.1007504e-02	  -4.0416900e-01	
   9.4655000e+01	  -4.7843350e-02	  -4.0115978e-01	
   9.4710000e+01	  -4.5405191e-02	  -3.9797747e-01	
   9.4765000e+01	  -4.3578777e-02	  -3.9452225e-01	
   9.4820000e+01	  -4.2234391e-02	  -3.9070558e-01	
   9.4875000e+01	  -4.1236006e-02	  -3.8646270e-01	
   9.4930000e+01	  -4.0451721e-02	  -3.8176336e-01	
   9.4985000e+01	  -3.9763973e-02	  -3.7661837e-01	
   9.5040000e+01	  -3.9078818e-02	  -3.7108122e-01	
   9.5095000e+01	  -3.8332028e-02	  -3.6524331e-01	
   9.5150000e+01	  -3.7487574e-02	  -3.5922234e-01	
   9.5205000e+01	  -3.6526697e-02	  -3.5314451e-01	
   9.5260000e+01	  -3.5432024e-02	  -3.4712508e-01	
   9.5315000e+01	  -3.4173517e-02	  -3.4125161e-01	
   9.5370000e+01	  -3.2699402e-02	  -3.3557310e-01	
   9.5425000e+01	  -3.0931423e-02	  -3.3009542e-01	
   9.5480000e+01	  -2.8763643e-02	  -3.2478309e-01	
   9.5535000e+01	  -2.6065531e-02	  -3.1956638e-01	
   9.5590000e+01	  -2.2690301e-02	  -3.1435271e-01	
   9.5645000e+01	  -1.8488362e-02	  -3.0904117e-01	
   9.5700000e+01	  -1.3324400e-02	  -3.0353870e-01	
   9.5755000e+01	  -7.0959634e-03	  -2.9777591e-01	
   9.5810000e+01	   2.4872252e-04	  -2.9172014e-01	
   9.5865000e+01	   8.6967037e-03	  -2.8538385e-01	
   9.5920000e+01	   1.8164012e-02	  -2.7882732e-01	
   9.5975000e+01	   2.8499443e-02	  -2.7215523e-01	
   9.6030000e+01	   3.9496287e-02	  -2.6550705e-01	
   9.6085000e+01	   5.0907194e-02	  -2.5904195e-01	
   9.6140000e+01	   6.2458809e-02	  -2.5292083e-01	
   9.6195000e+01	   7.3865935e-02	  -2.4728840e-01	
   9.6250000e+01	   8.4846177e-02	  -2.4225864e-01	
   9.6305000e+01	   9.5135019e-02	  -2.3790505e-01	
   9.6360000e+01	   1.0450044e-01	  -2.3425685e-01	
   9.6415000e+01	   1.1275557e-01	  -2.3130076e-01	
   9.6470000e+01	   1.1976709e-01	  -2.2898747e-01	
   9.6525000e+01	   1.2545735e-01	  -2.2724068e-01	
   9.6580000e+01	   1.2980112e-01	  -2.2596787e-01	
   9.6635000e+01	   1.3281802e-01	  -2.2507237e-01	
   9.6690000e+01	   1.3456163e-01	  -2.2446611e-01	
   9.6745000e+01	   1.3510601e-01	  -2.2408072e-01	
   9.6800000e+01	   1.3453263e-01	  -2.2387464e-01	
   9.6855000e+01	   1.3292193e-01	  -2.2383441e-01	
   9.6910000e+01	   1.3035238e-01	  -2.2396962e-01	
   9.6965000e+01	   1.2690627e-01	  -2.2430183e-01	
   9.7020000e+01	   1.2267805e-01	  -2.2485087e-01	
   9.7075000e+01	   1.1778132e-01	  -2.2562298e-01	
   9.7130000e+01	   1.1235369e-01	  -2.2660307e-01	
   9.7185000e+01	   1.0656008e-01	  -2.2775152e-01	
   9.7240000e+01	   1.0059321e-01	  -2.2900477e-01	
   9.7295000e+01	   9.4668969e-02	  -2.3028007e-01	
   9.7350000e+01	   8.9016721e-02	  -2.3148378e-01	
   9.7405000e+01	   8.3867520e-02	  -2.3252164e-01	
   9.7460000e+01	   7.9441648e-02	  -2.3330980e-01	
   9.7515000e+01	   7.5934531e-02	  -2.3378536e-01	
   9.7570000e+01	   7.3501609e-02	  -2.3391501e-01	
   9.7625000e+01	   7.2246144e-02	  -2.3369988e-01	
   9.7680000e+01	   7.2213668e-02	  -2.3317529e-01	
   9.7735000e+01	   7.3393669e-02	  -2.3240454e-01	
   9.7790000e+01	   7.5727094e-02	  -2.3146742e-01	
   9.7845000e+01	   7.9117774e-02	  -2.3044536e-01	
   9.7900000e+01	   8.3445333e-02	  -2.2940670e-01	
   9.7955000e+01	   8.8576335e-02	  -2.2839554e-01	
   9.8010000e+01	   9.4371008e-02	  -2.2742629e-01	
   9.8065000e+01	   1.0068571e-01	  -2.2648456e-01	
   9.8120000e+01	   1.0737356e-01	  -2.2553358e-01	
   9.8175000e+01	   1.1428507e-01	  -2.2452477e-01	
   9.8230000e+01	   1.2126770e-01	  -2.2341039e-01	
   9.8285000e+01	   1.2816251e-01	  -2.2215569e-01	
   9.8340000e+01	   1.3479793e-01	  -2.2074939e-01	
   9.8395000e+01	   1.4098423e-01	  -2.1921158e-01	
   9.8450000e+01	   1.4651286e-01	  -2.1759746e-01	
   9.8505000e+01	   1.5116312e-01	  -2.1599392e-01	
   9.8560000e+01	   1.5471593e-01	  -2.1450738e-01	
   9.8615000e+01	   1.5697215e-01	  -2.1324499e-01	
   9.8670000e+01	   1.5777093e-01	  -2.1229490e-01	
   9.8725000e+01	   1.5700477e-01	  -2.1171073e-01	
   9.8780000e+01	   1.5462848e-01	  -2.1150313e-01	
   9.8835000e+01	   1.5066039e-01	  -2.1163897e-01	
   9.8890000e+01	   1.4517632e-01	  -2.1204637e-01	
   9.8945000e+01	   1.3829886e-01	  -2.1262371e-01	
   9.9000000e+01	   1.3018449e-01	  -2.1325134e-01	
   9.9055000e+01	   1.2101010e-01	  -2.1380529e-01	
   9.9110000e+01	   1.1095948e-01	  -2.1417211e-01	
   9.9165000e+01	   1.0021083e-01	  -2.1426291e-01	
   9.9220000e+01	   8.8926268e-02	  -2.1402537e-01	
   9.9275000e+01	   7.7245148e-02	  -2.1345213e-01	
   9.9330000e+01	   6.5281675e-02	  -2.1258353e-01	
   9.9385000e+01	   5.3126333e-02	  -2.1150257e-01	
   9.9440000e+01	   4.0849204e-02	  -2.1032237e-01	
   9.9495000e+01	   2.8502849e-02	  -2.0916996e-01	
   9.9550000e+01	   1.6123571e-02	  -2.0817007e-01	
   9.9605000e+01	   3.7318161e-03	  -2.0743126e-01	
   9.9660000e+01	  -8.6671698e-03	  -2.0703513e-01	
   9.9715000e+01	  -2.1082402e-02	  -2.0702969e-01	
   9.9770000e+01	  -3.3536097e-02	  -2.0742811e-01	
   9.9825000e+01	  -4.6061744e-02	  -2.0821320e-01	
   9.9880000e+01	  -5.8700399e-02	  -2.0934660e-01	
   9.9935000e+01	  -7.1495698e-02	  -2.1078100e-01	
   9.9990000e+01	  -8.4489013e-02	  -2.1247295e-01	
   1.0004500e+02	  -9.7715478e-02	  -2.1439373e-01	
   1.0010000e+02	  -1.1120141e-01	  -2.1653620e-01	
   1.0015500e+02	  -1.2496360e-01	  -2.1891682e-01	
   1.0021000e+02	  -1.3900894e-01	  -2.2157213e-01	
   1.0026500e+02	  -1.5333208e-01	  -2.2455000e-01	
   1.0032000e+02	  -1.6791100e-01	  -2.2789759e-01	
   1.0037500e+02	  -1.8270333e-01	  -2.3164972e-01	
   1.0043000e+02	  -1.9764647e-01	  -2.3582081e-01	
   1.0048500e+02	  -2.1266244e-01	  -2.4040148e-01	
   1.0054000e+02	  -2.2766662e-01	  -2.4535925e-01	
   1.0059500e+02	  -2.4257857e-01	  -2.5064319e-01	
   1.0065000e+02	  -2.5733287e-01	  -2.5619218e-01	
   1.0070500e+02	  -2.7188890e-01	  -2.6194536e-01	
   1.0076000e+02	  -2.8623921e-01	  -2.6785240e-01	
   1.0081500e+02	  -3.0041613e-01	  -2.7388209e-01	
   1.0087000e+02	  -3.1449447e-01	  -2.8002774e-01	
   1.0092500e+02	  -3.2858731e-01	  -2.8630784e-01	
   1.0098000e+02	  -3.4283430e-01	  -2.9276078e-01	
   1.0103500e+02	  -3.5738471e-01	  -2.9943426e-01	
   1.0109000e+02	  -3.7237840e-01	  -3.0637119e-01	
   1.0114500e+02	  -3.8792670e-01	  -3.1359454e-01	
   1.0120000e+02	  -4.0409538e-01	  -3.2109442e-01	
   1.0125500e+02	  -4.2089186e-01	  -3.2882049e-01	
   1.0131000e+02	  -4.3825885e-01	  -3.3668153e-01	
   1.0136500e+02	  -4.5607438e-01	  -3.4455193e-01	
   1.0142000e+02	  -4.7415736e-01	  -3.5228371e-01	
   1.0147500e+02	  -4.9227738e-01	  -3.5972193e-01	
   1.0153000e+02	  -5.1016844e-01	  -3.6672136e-01	
   1.0158500e+02	  -5.2754687e-01	  -3.7316249e-01	
   1.0164000e+02	  -5.4413321e-01	  -3.7896525e-01	
   1.0169500e+02	  -5.5967646e-01	  -3.8409924e-01	
   1.0175000e+02	  -5.7397748e-01	  -3.8858817e-01	
   1.0180500e+02	  -5.8690673e-01	  -3.9250713e-01	
   1.0186000e+02	  -5.9841216e-01	  -3.9597211e-01	
   1.0191500e+02	  -6.0851568e-01	  -3.9912323e-01	
   1.0197000e+02	  -6.1730121e-01	  -4.0210482e-01	
   1.0202500e+02	  -6.2489859e-01	  -4.0504663e-01	
   1.0208000e+02	  -6.3146705e-01	  -4.0805017e-01	
   1.0213500e+02	  -6.3718137e-01	  -4.1118207e-01	
   1.0219000e+02	  -6.4222209e-01	  -4.1447399e-01	
   1.0224500e+02	  -6.4677020e-01	  -4.1792734e-01	
   1.0230000e+02	  -6.5100497e-01	  -4.2152081e-01	
   1.0235500e+02	  -6.5510376e-01	  -4.2521969e-01	
   1.0241000e+02	  -6.5924179e-01	  -4.2898597e-01	
   1.0246500e+02	  -6.6358973e-01	  -4.3278782e-01	
   1.0252000e+02	  -6.6830987e-01	  -4.3660694e-01	
   1.0257500e+02	  -6.7355346e-01	  -4.4044365e-01	
   1.0263000e+02	  -6.7945872e-01	  -4.4431940e-01	
   1.0268500e+02	  -6.8614608e-01	  -4.4827470e-01	
   1.0274000e+02	  -6.9370874e-01	  -4.5236098e-01	
   1.0279500e+02	  -7.0220246e-01	  -4.5662784e-01	
   1.0285000e+02	  -7.1164001e-01	  -4.6110942e-01	
   1.0290500e+02	  -7.2199110e-01	  -4.6581310e-01	
   1.0296000e+02	  -7.3318412e-01	  -4.7071235e-01	
   1.0301500e+02	  -7.4510699e-01	  -4.7574438e-01	
   1.0307000e+02	  -7.5760786e-01	  -4.8081207e-01	
   1.0312500e+02	  -7.7049939e-01	  -4.8578933e-01	
   1.0318000e+02	  -7.8356951e-01	  -4.9052973e-01	
   1.0323500e+02	  -7.9659894e-01	  -4.9487882e-01	
   1.0329000e+02	  -8.0938197e-01	  -4.9868997e-01	
   1.0334500e+02	  -8.2174521e-01	  -5.0184148e-01	
   1.0340000e+02	  -8.3356013e-01	  -5.0425189e-01	
   1.0345500e+02	  -8.4474682e-01	  -5.0588979e-01	
   1.0351000e+02	  -8.5526768e-01	  -5.0677523e-01	
   1.0356500e+02	  -8.6511237e-01	  -5.0697095e-01	
   1.0362000e+02	  -8.7427683e-01	  -5.0656496e-01	
   1.0367500e+02	  -8.8274047e-01	  -5.0564961e-01	
   1.0373000e+02	  -8.9044615e-01	  -5.0430286e-01	
   1.0378500e+02	  -8.9728730e-01	  -5.0257562e-01	
   1.0384000e+02	  -9.0310566e-01	  -5.0048692e-01	
   1.0389500e+02	  -9.0770016e-01	  -4.9802642e-01	
   1.0395000e+02	  -9.1084415e-01	  -4.9516249e-01	
   1.0400500e+02	  -9.1230581e-01	  -4.9185270e-01	
   1.0406000e+02	  -9.1186886e-01	  -4.8805492e-01	
   1.0411500e+02	  -9.0935346e-01	  -4.8373769e-01	
   1.0417000e+02	  -9.0463514e-01	  -4.7888869e-01	
   1.0422500e+02	  -8.9765763e-01	  -4.7351915e-01	
   1.0428000e+02	  -8.8843611e-01	  -4.6766217e-01	
   1.0433500e+02	  -8.7705155e-01	  -4.6136513e-01	
   1.0439000e+02	  -8.6363893e-01	  -4.5467816e-01	
   1.0444500e+02	  -8.4837349e-01	  -4.4764154e-01	
   1.0450000e+02	  -8.3145855e-01	  -4.4027503e-01	
   1.0455500e+02	  -8.1311749e-01	  -4.3257123e-01	
   1.0461000e+02	  -7.9359007e-01	  -4.2449396e-01	
   1.0466500e+02	  -7.7313166e-01	  -4.1598166e-01	
   1.0472000e+02	  -7.5201440e-01	  -4.0695513e-01	
   1.0477500e+02	  -7.3052848e-01	  -3.9732895e-01	
   1.0483000e+02	  -7.0898213e-01	  -3.8702490e-01	
   1.0488500e+02	  -6.8769923e-01	  -3.7598545e-01	
   1.0494000e+02	  -6.6701337e-01	  -3.6418479e-01	
   1.0499500e+02	  -6.4725588e-01	  -3.5163518e-01	
   1.0505000e+02	  -6.2873684e-01	  -3.3838675e-01	
   1.0510500e+02	  -6.1172085e-01	  -3.2452021e-01	
   1.0516000e+02	  -5.9640213e-01	  -3.1013414e-01	
   1.0521500e+02	  -5.8288451e-01	  -2.9533028e-01	
   1.0527000e+02	  -5.7117089e-01	  -2.8020038e-01	
   1.0532500e+02	  -5.6116327e-01	  -2.6481669e-01	
   1.0538000e+02	  -5.5267200e-01	  -2.4922727e-01	
   1.0543500e+02	  -5.4543173e-01	  -2.3345635e-01	
   1.0549000e+02	  -5.3912183e-01	  -2.1751004e-01	
   1.0554500e+02	  -5.3338828e-01	  -2.0138587e-01	
   1.0560000e+02	  -5.2786413e-01	  -1.8508408e-01	
   1.0565500e+02	  -5.2218839e-01	  -1.6861810e-01	
   1.0571000e+02	  -5.1602426e-01	  -1.5202222e-01	
   1.0576500e+02	  -5.0907490e-01	  -1.3535417e-01	
   1.0582000e+02	  -5.0109379e-01	  -1.1869125e-01	
   1.0587500e+02	  -4.9188839e-01	  -1.0212064e-01	
   1.0593000e+02	  -4.8131924e-01	  -8.5727144e-02	
   1.0598500e+02	  -4.6929598e-01	  -6.9581719e-02	
   1.0604000e+02	  -4.5577179e-01	  -5.3733102e-02	
   1.0609500e+02	  -4.4073784e-01	  -3.8203793e-02	
   1.0615000e+02	  -4.2421947e-01	  -2.2990781e-02	
   1.0620500e+02	  -4.0627356e-01	  -8.0703312e-03	
   1.0626000e+02	  -3.8698612e-01	   6.5941190e-03	
   1.0631500e+02	  -3.6647056e-01	   2.1041602e-02	
   1.0637000e+02	  -3.4486746e-01	   3.5301988e-02	
   1.0642500e+02	  -3.2234542e-01	   4.9385879e-02	
   1.0648000e+02	  -2.9910124e-01	   6.3279137e-02	
   1.0653500e+02	  -2.7535796e-01	   7.6943553e-02	
   1.0659000e+02	  -2.5136005e-01	   9.0323437e-02	
   1.0664500e+02	  -2.2736540e-01	   1.0335658e-01	
   1.0670000e+02	  -2.0363496e-01	   1.1598642e-01	
   1.0675500e+02	  -1.8042281e-01	   1.2817157e-01	
   1.0681000e+02	  -1.5796954e-01	   1.3989056e-01	
   1.0686500e+02	  -1.3649992e-01	   1.5114202e-01	
   1.0692000e+02	  -1.1622380e-01	   1.6194164e-01	
   1.0697500e+02	  -9.7337605e-02	   1.7231651e-01	
   1.0703000e+02	  -8.0023288e-02	   1.8229807e-01	
   1.0708500e+02	  -6.4442723e-02	   1.9191488e-01	
   1.0714000e+02	  -5.0729041e-02	   2.0118630e-01	
   1.0719500e+02	  -3.8978846e-02	   2.1011796e-01	
   1.0725000e+02	  -2.9248287e-02	   2.1870012e-01	
   1.0730500e+02	  -2.1551694e-02	   2.2691075e-01	
   1.0736000e+02	  -1.5858994e-02	   2.3472305e-01	
   1.0741500e+02	  -1.2090101e-02	   2.4211484e-01	
   1.0747000e+02	  -1.0108553e-02	   2.4907651e-01	
   1.0752500e+02	  -9.7185844e-03	   2.5561513e-01	
   1.0758000e+02	  -1.0668779e-02	   2.6175435e-01	
   1.0763500e+02	  -1.2663565e-02	   2.6753063e-01	
   1.0769000e+02	  -1.5380759e-02	   2.7298672e-01	
   1.0774500e+02	  -1.8490063e-02	   2.7816386e-01	
   1.0780000e+02	  -2.1667617e-02	   2.8309431e-01	
   1.0785500e+02	  -2.4605820e-02	   2.8779575e-01	
   1.0791000e+02	  -2.7020537e-02	   2.9226921e-01	
   1.0796500e+02	  -2.8656941e-02	   2.9650210e-01	
   1.0802000e+02	  -2.9293819e-02	   3.0047630e-01	
   1.0807500e+02	  -2.8747187e-02	   3.0417910e-01	
   1.0813000e+02	  -2.6874862e-02	   3.0761281e-01	
   1.0818500e+02	  -2.3582333e-02	   3.1080024e-01	
   1.0824000e+02	  -1.8828735e-02	   3.1378512e-01	
   1.0829500e+02	  -1.2631912e-02	   3.1662760e-01	
   1.0835000e+02	  -5.0722603e-03	   3.1939546e-01	
   1.0840500e+02	   3.7053453e-03	   3.2215263e-01	
   1.0846000e+02	   1.3492790e-02	   3.2494739e-01	
   1.0851500e+02	   2.4023455e-02	   3.2780145e-01	
   1.0857000e+02	   3.4979503e-02	   3.3070055e-01	
   1.0862500e+02	   4.6001515e-02	   3.3358897e-01	
   1.0868000e+02	   5.6702439e-02	   3.3637112e-01	
   1.0873500e+02	   6.6687794e-02	   3.3892214e-01	
   1.0879000e+02	   7.5580940e-02	   3.4110619e-01	
   1.0884500e+02	   8.3049145e-02	   3.4279884e-01	
   1.0890000e+02	   8.8826120e-02	   3.4390892e-01	
   1.0895500e+02	   9.2728522e-02	   3.4439541e-01	
   1.0901000e+02	   9.4665500e-02	   3.4427707e-01	
   1.0906500e+02	   9.4641048e-02	   3.4363416e-01	
   1.0912000e+02	   9.2749138e-02	   3.4260238e-01	
   1.0917500e+02	   8.9162101e-02	   3.4135977e-01	
   1.0923000e+02	   8.4113898e-02	   3.4010791e-01	
   1.0928500e+02	   7.7880840e-02	   3.3905013e-01	
   1.0934000e+02	   7.0761680e-02	   3.3836940e-01	
   1.0939500e+02	   6.3057041e-02	   3.3820761e-01	
   1.0945000e+02	   5.5047947e-02	   3.3864764e-01	
   1.0950500e+02	   4.6976033e-02	   3.3970103e-01	
   1.0956000e+02	   3.9030458e-02	   3.4130447e-01	
   1.0961500e+02	   3.1344982e-02	   3.4332676e-01	
   1.0967000e+02	   2.4004851e-02	   3.4558490e-01	
   1.0972500e+02	   1.7060082e-02	   3.4786640e-01	
   1.0978000e+02	   1.0541214e-02	   3.4995342e-01	
   1.0983500e+02	   4.4746591e-03	   3.5164480e-01	
   1.0989000e+02	  -1.1049150e-03	   3.5277317e-01	
   1.0994500e+02	  -6.1481173e-03	   3.5321675e-01	
   1.1000000e+02	  -1.0592285e-02	   3.5290581e-01	
   1.1005500e+02	  -1.4370268e-02	   3.5182380e-01	
   1.1011000e+02	  -1.7422982e-02	   3.5000267e-01	
   1.1016500e+02	  -1.9710815e-02	   3.4751293e-01	
   1.1022000e+02	  -2.1220499e-02	   3.4445000e-01	
   1.1027500e+02	  -2.1967301e-02	   3.4091893e-01	
   1.1033000e+02	  -2.1994475e-02	   3.3701963e-01	
   1.1038500e+02	  -2.1370958e-02	   3.3283502e-01	
   1.1044000e+02	  -2.0185799e-02	   3.2842484e-01	
   1.1049500e+02	  -1.8538205e-02	   3.2382608e-01	
   1.1055000e+02	  -1.6525587e-02	   3.1905798e-01	
   1.1060500e+02	  -1.4233731e-02	   3.1412827e-01	
   1.1066000e+02	  -1.1730858e-02	   3.0903814e-01	
   1.1071500e+02	  -9.0644372e-03	   3.0378536e-01	
   1.1077000e+02	  -6.2598160e-03	   2.9836596e-01	
   1.1082500e+02	  -3.3221871e-03	   2.9277433e-01	
   1.1088000e+02	  -2.4373190e-04	   2.8700200e-01	
   1.1093500e+02	   2.9848646e-03	   2.8103495e-01	
   1.1099000e+02	   6.3615279e-03	   2.7485013e-01	
   1.1104500e+02	   9.8616578e-03	   2.6841230e-01	
   1.1110000e+02	   1.3431353e-02	   2.6167280e-01	
   1.1115500e+02	   1.6986923e-02	   2.5457193e-01	
   1.1121000e+02	   2.0421226e-02	   2.4704625e-01	
   1.1126500e+02	   2.3615517e-02	   2.3904049e-01	
   1.1132000e+02	   2.6454261e-02	   2.3052214e-01	
   1.1137500e+02	   2.8839826e-02	   2.2149468e-01	
   1.1143000e+02	   3.0703283e-02	   2.1200620e-01	
   1.1148500e+02	   3.2008097e-02	   2.0215192e-01	
   1.1154000e+02	   3.2746870e-02	   1.9207044e-01	
   1.1159500e+02	   3.2933766e-02	   1.8193394e-01	
   1.1165000e+02	   3.2594026e-02	   1.7193309e-01	
   1.1170500e+02	   3.1750968e-02	   1.6225877e-01	
   1.1176000e+02	   3.0412548e-02	   1.5308325e-01	
   1.1181500e+02	   2.8560613e-02	   1.4454322e-01	
   1.1187000e+02	   2.6145501e-02	   1.3672632e-01	
   1.1192500e+02	   2.3088125e-02	   1.2966311e-01	
   1.1198000e+02	   1.9290108e-02	   1.2332622e-01	
   1.1203500e+02	   1.4650297e-02	   1.1763764e-01	
   1.1209000e+02	   9.0848020e-03	   1.1248322e-01	
   1.1214500e+02	   2.5470837e-03	   1.0773182e-01	
   1.1220000e+02	  -4.9554928e-03	   1.0325531e-01	
   1.1225500e+02	  -1.3351393e-02	   9.8945942e-02	
   1.1231000e+02	  -2.2502717e-02	   9.4728470e-02	
   1.1236500e+02	  -3.2211045e-02	   9.0566165e-02	
   1.1242000e+02	  -4.2229380e-02	   8.6461150e-02	
   1.1247500e+02	  -5.2278136e-02	   8.2449459e-02	
   1.1253000e+02	  -6.2063500e-02	   7.8591333e-02	
   1.1258500e+02	  -7.1296237e-02	   7.4957880e-02	
   1.1264000e+02	  -7.9710064e-02	   7.1616077e-02	
   1.1269500e+02	  -8.7080435e-02	   6.8614230e-02	
   1.1275000e+02	  -9.3243171e-02	   6.5969671e-02	
   1.1280500e+02	  -9.8108457e-02	   6.3660490e-02	
   1.1286000e+02	  -1.0166442e-01	   6.1623230e-02	
   1.1291500e+02	  -1.0396837e-01	   5.9757891e-02	
   1.1297000e+02	  -1.0512899e-01	   5.7939858e-02	
   1.1302500e+02	  -1.0528409e-01	   5.6036383e-02	
   1.1308000e+02	  -1.0457794e-01	   5.3924371e-02	
   1.1313500e+02	  -1.0314194e-01	   5.1506445e-02	
   1.1319000e+02	  -1.0108221e-01	   4.8722866e-02	
   1.1324500e+02	  -9.8476064e-02	   4.5557749e-02	
   1.1330000e+02	  -9.5376273e-02	   4.2039203e-02	
   1.1335500e+02	  -9.1820528e-02	   3.8233574e-02	
   1.1341000e+02	  -8.7844104e-02	   3.4234297e-02	
   1.1346500e+02	  -8.3493335e-02	   3.0147248e-02	
   1.1352000e+02	  -7.8837005e-02	   2.6075999e-02	
   1.1357500e+02	  -7.3973188e-02	   2.2109906e-02	
   1.1363000e+02	  -6.9030480e-02	   1.8316787e-02	
   1.1368500e+02	  -6.4163223e-02	   1.4741747e-02	
   1.1374000e+02	  -5.9541739e-02	   1.1412814e-02	
   1.1379500e+02	  -5.5340826e-02	   8.3510820e-03	
   1.1385000e+02	  -5.1729704e-02	   5.5809082e-03	
   1.1390500e+02	  -4.8863704e-02	   3.1367465e-03	
   1.1396000e+02	  -4.6876657e-02	   1.0655865e-03	
   1.1401500e+02	  -4.5874610e-02	  -5.7484080e-04	
   1.1407000e+02	  -4.5932810e-02	  -1.7217032e-03	
   1.1412500e+02	  -4.7096586e-02	  -2.3156055e-03	
   1.1418000e+02	  -4.9384748e-02	  -2.3102509e-03	
   1.1423500e+02	  -5.2793590e-02	  -1.6811913e-03	
   1.1429000e+02	  -5.7299828e-02	  -4.3183111e-04	
   1.1434500e+02	  -6.2861181e-02	   1.4050380e-03	
   1.1440000e+02	  -6.9414012e-02	   3.7711743e-03	
   1.1445500e+02	  -7.6868789e-02	   6.5913855e-03	
   1.1451000e+02	  -8.5104692e-02	   9.7839201e-03	
   1.1456500e+02	  -9.3964335e-02	   1.3270121e-02	
   1.1462000e+02	  -1.0325017e-01	   1.6982013e-02	
   1.1467500e+02	  -1.1272579e-01	   2.0867185e-02	
   1.1473000e+02	  -1.2212500e-01	   2.4889908e-02	
   1.1478500e+02	  -1.3116756e-01	   2.9027708e-02	
   1.1484000e+02	  -1.3957760e-01	   3.3264240e-02	
   1.1489500e+02	  -1.4710161e-01	   3.7580786e-02	
   1.1495000e+02	  -1.5352510e-01	   4.1948622e-02	
   1.1500500e+02	  -1.5868680e-01	   4.6324029e-02	
   1.1506000e+02	  -1.6248764e-01	   5.0647822e-02	
   1.1511500e+02	  -1.6489233e-01	   5.4850876e-02	
   1.1517000e+02	  -1.6592325e-01	   5.8865314e-02	
   1.1522500e+02	  -1.6564880e-01	   6.2638815e-02	
   1.1528000e+02	  -1.6416886e-01	   6.6148292e-02	
   1.1533500e+02	  -1.6160060e-01	   6.9409518e-02	
   1.1539000e+02	  -1.5806758e-01	   7.2480791e-02	
   1.1544500e+02	  -1.5369367e-01	   7.5460306e-02	
   1.1550000e+02	  -1.4860090e-01	   7.8477379e-02	
   1.1555500e+02	  -1.4290846e-01	   8.1677874e-02	
   1.1561000e+02	  -1.3673181e-01	   8.5205338e-02	
   1.1566500e+02	  -1.3018239e-01	   8.9181028e-02	
   1.1572000e+02	  -1.2336812e-01	   9.3686498e-02	
   1.1577500e+02	  -1.1639408e-01	   9.8751576e-02	
   1.1583000e+02	  -1.0936299e-01	   1.0434915e-01	
   1.1588500e+02	  -1.0237419e-01	   1.1039734e-01	
   1.1594000e+02	  -9.5519452e-02	   1.1676892e-01	
   1.1599500e+02	  -8.8875928e-02	   1.2330602e-01	
   1.1605000e+02	  -8.2498317e-02	   1.2983676e-01	
   1.1610500e+02	  -7.6412395e-02	   1.3619057e-01	
   1.1616000e+02	  -7.0610713e-02	   1.4221079e-01	
   1.1621500e+02	  -6.5051626e-02	   1.4776349e-01	
   1.1627000e+02	  -5.9664070e-02	   1.5274163e-01	
   1.1632500e+02	  -5.4359038e-02	   1.5706454e-01	
   1.1638000e+02	  -4.9044994e-02	   1.6067326e-01	
   1.1643500e+02	  -4.3643557e-02	   1.6352302e-01	
   1.1649000e+02	  -3.8104347e-02	   1.6557466e-01	
   1.1654500e+02	  -3.2417934e-02	   1.6678725e-01	
   1.1660000e+02	  -2.6622743e-02	   1.6711428e-01	
   1.1665500e+02	  -2.0802041e-02	   1.6650426e-01	
   1.1671000e+02	  -1.5072168e-02	   1.6490572e-01	
   1.1676500e+02	  -9.5664127e-03	   1.6227669e-01	
   1.1682000e+02	  -4.4178252e-03	   1.5859763e-01	
   1.1687500e+02	   2.5780781e-04	   1.5388482e-01	
   1.1693000e+02	   4.3772939e-03	   1.4820036e-01	
   1.1698500e+02	   7.9009065e-03	   1.4165613e-01	
   1.1704000e+02	   1.0836852e-02	   1.3441086e-01	
   1.1709500e+02	   1.3240282e-02	   1.2666030e-01	
   1.1715000e+02	   1.5209203e-02	   1.1862183e-01	
   1.1720500e+02	   1.6878251e-02	   1.1051635e-01	
   1.1726000e+02	   1.8409944e-02	   1.0255110e-01	
   1.1731500e+02	   1.9983793e-02	   9.4905975e-02	
   1.1737000e+02	   2.1784453e-02	   8.7724772e-02	
   1.1742500e+02	   2.3990498e-02	   8.1112196e-02	
   1.1748000e+02	   2.6765905e-02	   7.5136588e-02	
   1.1753500e+02	   3.0255633e-02	   6.9837189e-02	
   1.1759000e+02	   3.4583706e-02	   6.5233336e-02	
   1.1764500e+02	   3.9850696e-02	   6.1333262e-02	
   1.1770000e+02	   4.6129485e-02	   5.8141229e-02	
   1.1775500e+02	   5.3459700e-02	   5.5661982e-02	
   1.1781000e+02	   6.1840458e-02	   5.3901387e-02	
   1.1786500e+02	   7.1221518e-02	   5.2863284e-02	
   1.1792000e+02	   8.1495543e-02	   5.2544076e-02	
   1.1797500e+02	   9.2494958e-02	   5.2926673e-02	
   1.1803000e+02	   1.0399462e-01	   5.3974753e-02	
   1.1808500e+02	   1.1571973e-01	   5.5628555e-02	
   1.1814000e+02	   1.2735883e-01	   5.7804458e-02	
   1.1819500e+02	   1.3858242e-01	   6.0400128e-02	
   1.1825000e+02	   1.4906573e-01	   6.3304843e-02	
   1.1830500e+02	   1.5851180e-01	   6.6412295e-02	
   1.1836000e+02	   1.6667051e-01	   6.9632471e-02	
   1.1841500e+02	   1.7335072e-01	   7.2899866e-02	
   1.1847000e+02	   1.7842484e-01	   7.6176656e-02	
   1.1852500e+02	   1.8182790e-01	   7.9450774e-02	
   1.1858000e+02	   1.8355291e-01	   8.2729474e-02	
   1.1863500e+02	   1.8364318e-01	   8.6029450e-02	
   1.1869000e+02	   1.8218171e-01	   8.9365227e-02	
   1.1874500e+02	   1.7928003e-01	   9.2738054e-02	
   1.1880000e+02	   1.7506945e-01	   9.6127704e-02	
   1.1885500e+02	   1.6969414e-01	   9.9488972e-02	
   1.1891000e+02	   1.6330437e-01	   1.0275323e-01	
   1.1896500e+02	   1.5605032e-01	   1.0583416e-01	
   1.1902000e+02	   1.4807851e-01	   1.0863628e-01	
   1.1907500e+02	   1.3953087e-01	   1.1106457e-01	
   1.1913000e+02	   1.3054505e-01	   1.1303332e-01	
   1.1918500e+02	   1.2125516e-01	   1.1447312e-01	
   1.1924000e+02	   1.1179210e-01	   1.1533560e-01	
   1.1929500e+02	   1.0228261e-01	   1.1559539e-01	
   1.1935000e+02	   9.2846608e-02	   1.1524812e-01	
   1.1940500e+02	   8.3593208e-02	   1.1430393e-01	
   1.1946000e+02	   7.4616381e-02	   1.1277840e-01	
   1.1951500e+02	   6.5990332e-02	   1.1068315e-01	
   1.1957000e+02	   5.7764950e-02	   1.0801866e-01	
   1.1962500e+02	   4.9963750e-02	   1.0477108e-01	
   1.1968000e+02	   4.2588053e-02	   1.0091554e-01	
   1.1973500e+02	   3.5628514e-02	   9.6426213e-02	
   1.1979000e+02	   2.9080205e-02	   9.1290639e-02	
   1.1984500e+02	   2.2955227e-02	   8.5523800e-02	
   1.1990000e+02	   1.7289249e-02	   7.9178539e-02	
   1.1995500e+02	   1.2142031e-02	   7.2350843e-02	
   1.2001000e+02	   7.5930491e-03	   6.5179135e-02	
   1.2006500e+02	   3.7330844e-03	   5.7837369e-02	
   1.2012000e+02	   6.5374707e-04	   5.0522815e-02	
   1.2017500e+02	  -1.5621710e-03	   4.3439877e-02	
   1.2023000e+02	  -2.8483673e-03	   3.6781640e-02	
   1.2028500e+02	  -3.1621092e-03	   3.0711372e-02	
   1.2034000e+02	  -2.4929669e-03	   2.5346202e-02	
   1.2039500e+02	  -8.7445073e-04	   2.0744483e-02	
   1.2045000e+02	   1.6029088e-03	   1.6897972e-02	
   1.2050500e+02	   4.7819919e-03	   1.3730764e-02	
   1.2056000e+02	   8.4394946e-03	   1.1107045e-02	
   1.2061500e+02	   1.2299814e-02	   8.8475309e-03	
   1.2067000e+02	   1.6059596e-02	   6.7514286e-03	
   1.2072500e+02	   1.9415827e-02	   4.6196067e-03	
   1.2078000e+02	   2.2091005e-02	   2.2753915e-03	
   1.2083500e+02	   2.3851383e-02	  -4.1997450e-04	
   1.2089000e+02	   2.4516457e-02	  -3.5592833e-03	
   1.2094500e+02	   2.3960330e-02	  -7.1887744e-03	
   1.2100000e+02	   2.2107771e-02	  -1.1313059e-02	
   1.2105500e+02	   1.8927413e-02	  -1.5903400e-02	
   1.2111000e+02	   1.4422764e-02	  -2.0908257e-02	
   1.2116500e+02	   8.6218122e-03	  -2.6265358e-02	
   1.2122000e+02	   1.5674895e-03	  -3.1913765e-02	
   1.2127500e+02	  -6.6890947e-03	  -3.7803501e-02	
   1.2133000e+02	  -1.6092552e-02	  -4.3900335e-02	
   1.2138500e+02	  -2.6584202e-02	  -5.0184252e-02	
   1.2144000e+02	  -3.8098872e-02	  -5.6642182e-02	
   1.2149500e+02	  -5.0557270e-02	  -6.3257934e-02	
   1.2155000e+02	  -6.3857287e-02	  -7.0003307e-02	
   1.2160500e+02	  -7.7869223e-02	  -7.6832749e-02	
   1.2166000e+02	  -9.2436920e-02	  -8.3681437e-02	
   1.2171500e+02	  -1.0738283e-01	  -9.0465970e-02	
   1.2177000e+02	  -1.2251498e-01	  -9.7087779e-02	
   1.2182500e+02	  -1.3763609e-01	  -1.0343955e-01	
   1.2188000e+02	  -1.5255534e-01	  -1.0941366e-01	
   1.2193500e+02	  -1.6710077e-01	  -1.1491061e-01	
   1.2199000e+02	  -1.8112950e-01	  -1.1984548e-01	
   1.2204500e+02	  -1.9453436e-01	  -1.2415093e-01	
   1.2210000e+02	  -2.0724609e-01	  -1.2777532e-01	
   1.2215500e+02	  -2.1923020e-01	  -1.3067626e-01	
   1.2221000e+02	  -2.3048067e-01	  -1.3281226e-01	
   1.2226500e+02	  -2.4101458e-01	  -1.3413601e-01	
   1.2232000e+02	  -2.5086942e-01	  -1.3459100e-01	
   1.2237500e+02	  -2.6010068e-01	  -1.3411206e-01	
   1.2243000e+02	  -2.6877776e-01	  -1.3262897e-01	
   1.2248500e+02	  -2.7697853e-01	  -1.3007313e-01	
   1.2254000e+02	  -2.8478410e-01	  -1.2638663e-01	
   1.2259500e+02	  -2.9227481e-01	  -1.2153282e-01	
   1.2265000e+02	  -2.9952725e-01	  -1.1550687e-01	
   1.2270500e+02	  -3.0661107e-01	  -1.0834380e-01	
   1.2276000e+02	  -3.1358409e-01	  -1.0012149e-01	
   1.2281500e+02	  -3.2048504e-01	  -9.0956467e-02	
   1.2287000e+02	  -3.2732406e-01	  -8.0992567e-02	
   1.2292500e+02	  -3.3407277e-01	  -7.0385432e-02	
   1.2298000e+02	  -3.4065669e-01	  -5.9286953e-02	
   1.2303500e+02	  -3.4695238e-01	  -4.7832571e-02	
   1.2309000e+02	  -3.5279115e-01	  -3.6133141e-02	
   1.2314500e+02	  -3.5796995e-01	  -2.4272150e-02	
   1.2320000e+02	  -3.6226737e-01	  -1.2307829e-02	
   1.2325500e+02	  -3.6546139e-01	  -2.7899349e-04	
   1.2331000e+02	  -3.6734623e-01	   1.1786298e-02	
   1.2336500e+02	  -3.6774830e-01	   2.3860295e-02	
   1.2342000e+02	  -3.6654141e-01	   3.5905404e-02	
   1.2347500e+02	  -3.6365996e-01	   4.7866741e-02	
   1.2353000e+02	  -3.5910799e-01	   5.9669001e-02	
   1.2358500e+02	  -3.5296093e-01	   7.1218771e-02	
   1.2364000e+02	  -3.4535819e-01	   8.2413053e-02	
   1.2369500e+02	  -3.3648737e-01	   9.3152773e-02	
   1.2375000e+02	  -3.2656609e-01	   1.0335751e-01	
   1.2380500e+02	  -3.1582727e-01	   1.1297726e-01	
   1.2386000e+02	  -3.0450943e-01	   1.2199890e-01	
   1.2391500e+02	  -2.9284979e-01	   1.3044658e-01	
   1.2397000e+02	  -2.8107923e-01	   1.3837678e-01	
   1.2402500e+02	  -2.6941995e-01	   1.4586887e-01	
   1.2408000e+02	  -2.5808520e-01	   1.5301312e-01	
   1.2413500e+02	  -2.4727891e-01	   1.5989797e-01	
   1.2419000e+02	  -2.3719419e-01	   1.6659840e-01	
   1.2424500e+02	  -2.2801158e-01	   1.7316677e-01	
   1.2430000e+02	  -2.1989598e-01	   1.7962789e-01	
   1.2435500e+02	  -2.1299046e-01	   1.8597990e-01	
   1.2441000e+02	  -2.0740736e-01	   1.9220093e-01	
   1.2446500e+02	  -2.0321906e-01	   1.9825991e-01	
   1.2452000e+02	  -2.0045044e-01	   2.0412875e-01	
   1.2457500e+02	  -1.9907310e-01	   2.0979348e-01	
   1.2463000e+02	  -1.9900147e-01	   2.1526162e-01	
   1.2468500e+02	  -2.0009300e-01	   2.2056411e-01	
   1.2474000e+02	  -2.0215452e-01	   2.2575178e-01	
   1.2479500e+02	  -2.0495420e-01	   2.3088784e-01	
   1.2485000e+02	  -2.0823550e-01	   2.3603797e-01	
   1.2490500e+02	  -2.1172941e-01	   2.4125986e-01	
   1.2496000e+02	  -2.1516242e-01	   2.4659474e-01	
   1.2501500e+02	  -2.1825965e-01	   2.5206346e-01	
   1.2507000e+02	  -2.2074628e-01	   2.5766857e-01	
   1.2512500e+02	  -2.2235068e-01	   2.6340148e-01	
   1.2518000e+02	  -2.2281087e-01	   2.6925151e-01	
   1.2523500e+02	  -2.2188308e-01	   2.7521412e-01	
   1.2529000e+02	  -2.1935197e-01	   2.8129574e-01	
   1.2534500e+02	  -2.1504176e-01	   2.8751456e-01	
   1.2540000e+02	  -2.0882661e-01	   2.9389702e-01	
   1.2545500e+02	  -2.0063725e-01	   3.0047110e-01	
   1.2551000e+02	  -1.9046335e-01	   3.0725789e-01	
   1.2556500e+02	  -1.7835283e-01	   3.1426326e-01	
   1.2562000e+02	  -1.6440881e-01	   3.2147250e-01	
   1.2567500e+02	  -1.4878347e-01	   3.2884985e-01	
   1.2573000e+02	  -1.3166811e-01	   3.3634306e-01	
   1.2578500e+02	  -1.1328101e-01	   3.4389099e-01	
   1.2584000e+02	  -9.3855782e-02	   3.5143234e-01	
   1.2589500e+02	  -7.3631351e-02	   3.5891404e-01	
   1.2595000e+02	  -5.2844050e-02	   3.6629844e-01	
   1.2600500e+02	  -3.1721192e-02	   3.7356752e-01	
   1.2606000e+02	  -1.0475112e-02	   3.8072310e-01	
   1.2611500e+02	   1.0702855e-02	   3.8778255e-01	
   1.2617000e+02	   3.1646457e-02	   3.9477062e-01	
   1.2622500e+02	   5.2213388e-02	   4.0170873e-01	
   1.2628000e+02	   7.2279020e-02	   4.0860370e-01	
   1.2633500e+02	   9.1729234e-02	   4.1543900e-01	
   1.2639000e+02	   1.1045578e-01	   4.2217149e-01	
   1.2644500e+02	   1.2835474e-01	   4.2873566e-01	
   1.2650000e+02	   1.4532868e-01	   4.3505474e-01	
   1.2655500e+02	   1.6129363e-01	   4.4105510e-01	
   1.2661000e+02	   1.7618899e-01	   4.4667933e-01	
   1.2666500e+02	   1.8998490e-01	   4.5189450e-01	
   1.2672000e+02	   2.0268400e-01	   4.5669486e-01	
   1.2677500e+02	   2.1431895e-01	   4.6109927e-01	
   1.2683000e+02	   2.2494734e-01	   4.6514448e-01	
