
0   2   1   4
   0.0000000e+00	   4.4619993e-01	   1.3001205e+00	  -1.8510886e-01	
   5.5000000e-02	   4.1680443e-01	   1.3025177e+00	  -1.8437359e-01	
   1.1000000e-01	   3.8673531e-01	   1.3058365e+00	  -1.8462167e-01	
   1.6500000e-01	   3.5649113e-01	   1.3099587e+00	  -1.8559867e-01	
   2.2000000e-01	   3.2654886e-01	   1.3147636e+00	  -1.8705480e-01	
   2.7500000e-01	   2.9734759e-01	   1.3201371e+00	  -1.8876256e-01	
   3.3000000e-01	   2.6927600e-01	   1.3259776e+00	  -1.9053193e-01	
   3.8500000e-01	   2.4266328e-01	   1.3321978e+00	  -1.9221939e-01	
   4.4000000e-01	   2.1777372e-01	   1.3387236e+00	  -1.9372996e-01	
   4.9500000e-01	   1.9480666e-01	   1.3454926e+00	  -1.9501213e-01	
   5.5000000e-01	   1.7390230e-01	   1.3524551e+00	  -1.9604722e-01	
   6.0500000e-01	   1.5515132e-01	   1.3595792e+00	  -1.9683612e-01	
   6.6000000e-01	   1.3860459e-01	   1.3668576e+00	  -1.9738633e-01	
   7.1500000e-01	   1.2428068e-01	   1.3743133e+00	  -1.9770117e-01	
   7.7000000e-01	   1.1217040e-01	   1.3820013e+00	  -1.9777228e-01	
   8.2500000e-01	   1.0223877e-01	   1.3900032e+00	  -1.9757704e-01	
   8.8000000e-01	   9.4425258e-02	   1.3984189e+00	  -1.9708163e-01	
   9.3500000e-01	   8.8642869e-02	   1.4073569e+00	  -1.9624802e-01	
   9.9000000e-01	   8.4776704e-02	   1.4169247e+00	  -1.9504305e-01	
   1.0450000e+00	   8.2683456e-02	   1.4272188e+00	  -1.9344664e-01	
   1.1000000e+00	   8.2194150e-02	   1.4383164e+00	  -1.9145538e-01	
   1.1550000e+00	   8.3121776e-02	   1.4502715e+00	  -1.8907826e-01	
   1.2100000e+00	   8.5272996e-02	   1.4631163e+00	  -1.8632482e-01	
   1.2650000e+00	   8.8461314e-02	   1.4768654e+00	  -1.8318988e-01	
   1.3200000e+00	   9.2519227e-02	   1.4915223e+00	  -1.7964140e-01	
   1.3750000e+00	   9.7307510e-02	   1.5070844e+00	  -1.7561610e-01	
   1.4300000e+00	   1.0271985e-01	   1.5235449e+00	  -1.7102428e-01	
   1.4850000e+00	   1.0868189e-01	   1.5408916e+00	  -1.6576188e-01	
   1.5400000e+00	   1.1514533e-01	   1.5591015e+00	  -1.5972599e-01	
   1.5950000e+00	   1.2207884e-01	   1.5781339e+00	  -1.5282950e-01	
   1.6500000e+00	   1.2945819e-01	   1.5979243e+00	  -1.4501259e-01	
   1.7050000e+00	   1.3725744e-01	   1.6183790e+00	  -1.3624957e-01	
   1.7600000e+00	   1.4544381e-01	   1.6393751e+00	  -1.2654961e-01	
   1.8150000e+00	   1.5397787e-01	   1.6607657e+00	  -1.1594955e-01	
   1.8700000e+00	   1.6281874e-01	   1.6823923e+00	  -1.0450074e-01	
   1.9250000e+00	   1.7193121e-01	   1.7040981e+00	  -9.2255090e-02	
   1.9800000e+00	   1.8129082e-01	   1.7257372e+00	  -7.9254748e-02	
   2.0350000e+00	   1.9088568e-01	   1.7471796e+00	  -6.5526962e-02	
   2.0900000e+00	   2.0071511e-01	   1.7683107e+00	  -5.1083662e-02	
   2.1450000e+00	   2.1078551e-01	   1.7890288e+00	  -3.5925893e-02	
   2.2000000e+00	   2.2110392e-01	   1.8092421e+00	  -2.0052487e-02	
   2.2550000e+00	   2.3167041e-01	   1.8288654e+00	  -3.4706723e-03	
   2.3100000e+00	   2.4247059e-01	   1.8478157e+00	   1.3793825e-02	
   2.3650000e+00	   2.5346946e-01	   1.8660104e+00	   3.1688884e-02	
   2.4200000e+00	   2.6460829e-01	   1.8833674e+00	   5.0133162e-02	
   2.4750000e+00	   2.7580695e-01	   1.8998108e+00	   6.9021431e-02	
   2.5300000e+00	   2.8697183e-01	   1.9152787e+00	   8.8237250e-02	
   2.5850000e+00	   2.9800675e-01	   1.9297329e+00	   1.0766787e-01	
   2.6400000e+00	   3.0882307e-01	   1.9431663e+00	   1.2721659e-01	
   2.6950000e+00	   3.1934619e-01	   1.9556063e+00	   1.4681079e-01	
   2.7500000e+00	   3.2951713e-01	   1.9671126e+00	   1.6640558e-01	
   2.8050000e+00	   3.3928974e-01	   1.9777681e+00	   1.8598239e-01	
   2.8600000e+00	   3.4862484e-01	   1.9876682e+00	   2.0554189e-01	
   2.9150000e+00	   3.5748281e-01	   1.9969105e+00	   2.2509173e-01	
   2.9700000e+00	   3.6581586e-01	   2.0055875e+00	   2.4463147e-01	
   3.0250000e+00	   3.7356166e-01	   2.0137827e+00	   2.6413818e-01	
   3.0800000e+00	   3.8064064e-01	   2.0215675e+00	   2.8355513e-01	
   3.1350000e+00	   3.8695855e-01	   2.0290035e+00	   3.0278573e-01	
   3.1900000e+00	   3.9241428e-01	   2.0361481e+00	   3.2169516e-01	
   3.2450000e+00	   3.9691197e-01	   2.0430630e+00	   3.4012146e-01	
   3.3000000e+00	   4.0037511e-01	   2.0498218e+00	   3.5789490e-01	
   3.3550000e+00	   4.0276012e-01	   2.0565142e+00	   3.7486087e-01	
   3.4100000e+00	   4.0406643e-01	   2.0632461e+00	   3.9089948e-01	
   3.4650000e+00	   4.0434180e-01	   2.0701360e+00	   4.0593691e-01	
   3.5200000e+00	   4.0368307e-01	   2.0773087e+00	   4.1994753e-01	
   3.5750000e+00	   4.0223247e-01	   2.0848873e+00	   4.3294889e-01	
   3.6300000e+00	   4.0016945e-01	   2.0929849e+00	   4.4499264e-01	
   3.6850000e+00	   3.9769824e-01	   2.1016937e+00	   4.5615304e-01	
   3.7400000e+00	   3.9503296e-01	   2.1110749e+00	   4.6651483e-01	
   3.7950000e+00	   3.9238320e-01	   2.1211496e+00	   4.7616199e-01	
   3.8500000e+00	   3.8994260e-01	   2.1318953e+00	   4.8516993e-01	
   3.9050000e+00	   3.8788262e-01	   2.1432489e+00	   4.9360369e-01	
   3.9600000e+00	   3.8635248e-01	   2.1551189e+00	   5.0152370e-01	
   4.0150000e+00	   3.8548405e-01	   2.1674021e+00	   5.0899733e-01	
   4.0700000e+00	   3.8539903e-01	   2.1800022e+00	   5.1611182e-01	
   4.1250000e+00	   3.8621517e-01	   2.1928445e+00	   5.2298305e-01	
   4.1800000e+00	   3.8804902e-01	   2.2058839e+00	   5.2975596e-01	
   4.2350000e+00	   3.9101421e-01	   2.2191066e+00	   5.3659623e-01	
   4.2900000e+00	   3.9521582e-01	   2.2325252e+00	   5.4367517e-01	
   4.3450000e+00	   4.0074242e-01	   2.2461683e+00	   5.5115216e-01	
   4.4000000e+00	   4.0765721e-01	   2.2600651e+00	   5.5915885e-01	
   4.4550000e+00	   4.1598915e-01	   2.2742291e+00	   5.6778795e-01	
   4.5100000e+00	   4.2572579e-01	   2.2886458e+00	   5.7708740e-01	
   4.5650000e+00	   4.3680968e-01	   2.3032683e+00	   5.8705911e-01	
   4.6200000e+00	   4.4914073e-01	   2.3180222e+00	   5.9766302e-01	
   4.6750000e+00	   4.6258536e-01	   2.3328171e+00	   6.0882648e-01	
   4.7300000e+00	   4.7699031e-01	   2.3475608e+00	   6.2045723e-01	
   4.7850000e+00	   4.9219701e-01	   2.3621706e+00	   6.3245643e-01	
   4.8400000e+00	   5.0805290e-01	   2.3765803e+00	   6.4472808e-01	
   4.8950000e+00	   5.2441785e-01	   2.3907436e+00	   6.5718285e-01	
   4.9500000e+00	   5.4116559e-01	   2.4046354e+00	   6.6973544e-01	
   5.0050000e+00	   5.5818065e-01	   2.4182494e+00	   6.8229662e-01	
   5.0600000e+00	   5.7535180e-01	   2.4315924e+00	   6.9476256e-01	
   5.1150000e+00	   5.9256339e-01	   2.4446749e+00	   7.0700381e-01	
   5.1700000e+00	   6.0968585e-01	   2.4574991e+00	   7.1885597e-01	
   5.2250000e+00	   6.2656732e-01	   2.4700468e+00	   7.3011447e-01	
   5.2800000e+00	   6.4302877e-01	   2.4822705e+00	   7.4053747e-01	
   5.3350000e+00	   6.5886501e-01	   2.4940903e+00	   7.4986054e-01	
   5.3900000e+00	   6.7385227e-01	   2.5053975e+00	   7.5782248e-01	
   5.4450000e+00	   6.8776011e-01	   2.5160633e+00	   7.6419621e-01	
   5.5000000e+00	   7.0036431e-01	   2.5259477e+00	   7.6881621e-01	
   5.5550000e+00	   7.1145798e-01	   2.5349077e+00	   7.7159638e-01	
   5.6100000e+00	   7.2085968e-01	   2.5428020e+00	   7.7253568e-01	
   5.6650000e+00	   7.2841839e-01	   2.5494924e+00	   7.7171235e-01	
   5.7200000e+00	   7.3401527e-01	   2.5548418e+00	   7.6926938e-01	
   5.7750000e+00	   7.3756282e-01	   2.5587130e+00	   7.6539473e-01	
   5.8300000e+00	   7.3900275e-01	   2.5609693e+00	   7.6030034e-01	
   5.8850000e+00	   7.3830334e-01	   2.5614780e+00	   7.5420277e-01	
   5.9400000e+00	   7.3545704e-01	   2.5601170e+00	   7.4730575e-01	
   5.9950000e+00	   7.3047924e-01	   2.5567837e+00	   7.3978574e-01	
   6.0500000e+00	   7.2340939e-01	   2.5514069e+00	   7.3178312e-01	
   6.1050000e+00	   7.1431440e-01	   2.5439593e+00	   7.2340139e-01	
   6.1600000e+00	   7.0329320e-01	   2.5344710e+00	   7.1471362e-01	
   6.2150000e+00	   6.9048134e-01	   2.5230413e+00	   7.0577359e-01	
   6.2700000e+00	   6.7605380e-01	   2.5098483e+00	   6.9662805e-01	
   6.3250000e+00	   6.6022488e-01	   2.4951538e+00	   6.8732695e-01	
   6.3800000e+00	   6.4324498e-01	   2.4793018e+00	   6.7792909e-01	
   6.4350000e+00	   6.2539494e-01	   2.4627106e+00	   6.6850210e-01	
   6.4900000e+00	   6.0697783e-01	   2.4458597e+00	   6.5911760e-01	
   6.5450000e+00	   5.8830781e-01	   2.4292704e+00	   6.4984358e-01	
   6.6000000e+00	   5.6969653e-01	   2.4134805e+00	   6.4073648e-01	
   6.6550000e+00	   5.5143911e-01	   2.3990173e+00	   6.3183530e-01	
   6.7100000e+00	   5.3380177e-01	   2.3863695e+00	   6.2315900e-01	
   6.7650000e+00	   5.1701287e-01	   2.3759638e+00	   6.1470656e-01	
   6.8200000e+00	   5.0125822e-01	   2.3681441e+00	   6.0645980e-01	
   6.8750000e+00	   4.8667988e-01	   2.3631536e+00	   5.9838858e-01	
   6.9300000e+00	   4.7337586e-01	   2.3611136e+00	   5.9045677e-01	
   6.9850000e+00	   4.6139730e-01	   2.3619987e+00	   5.8262628e-01	
   7.0400000e+00	   4.5074133e-01	   2.3656024e+00	   5.7485753e-01	
   7.0950000e+00	   4.4133893e-01	   2.3714959e+00	   5.6710615e-01	
   7.1500000e+00	   4.3303882e-01	   2.3789826e+00	   5.5931512e-01	
   7.2050000e+00	   4.2559139e-01	   2.3870638e+00	   5.5140264e-01	
   7.2600000e+00	   4.1863937e-01	   2.3944335e+00	   5.4324971e-01	
   7.3150000e+00	   4.1171978e-01	   2.3995121e+00	   5.3469258e-01	
   7.3700000e+00	   4.0427636e-01	   2.4005087e+00	   5.2552167e-01	
   7.4250000e+00	   3.9567944e-01	   2.3954942e+00	   5.1548540e-01	
   7.4800000e+00	   3.8525158e-01	   2.3824781e+00	   5.0429851e-01	
   7.5350000e+00	   3.7229778e-01	   2.3594838e+00	   4.9165573e-01	
   7.5900000e+00	   3.5613762e-01	   2.3246224e+00	   4.7724966e-01	
   7.6450000e+00	   3.3613612e-01	   2.2761643e+00	   4.6078907e-01	
   7.7000000e+00	   3.1173154e-01	   2.2126085e+00	   4.4201403e-01	
   7.7550000e+00	   2.8245957e-01	   2.1327509e+00	   4.2070557e-01	
   7.8100000e+00	   2.4797511e-01	   2.0357502e+00	   3.9669030e-01	
   7.8650000e+00	   2.0807217e-01	   1.9211905e+00	   3.6984237e-01	
   7.9200000e+00	   1.6270208e-01	   1.7891382e+00	   3.4008645e-01	
   7.9750000e+00	   1.1199055e-01	   1.6401900e+00	   3.0740533e-01	
   8.0300000e+00	   5.6254138e-02	   1.4755142e+00	   2.7185423e-01	
   8.0850000e+00	  -3.9840885e-03	   1.2968812e+00	   2.3357988e-01	
   8.1400000e+00	  -6.7982013e-02	   1.1066838e+00	   1.9284024e-01	
   8.1950000e+00	  -1.3477199e-01	   9.0793764e-01	   1.5001942e-01	
   8.2500000e+00	  -2.0316411e-01	   7.0425816e-01	   1.0563412e-01	
   8.3050000e+00	  -2.7176313e-01	   4.9980326e-01	   6.0329254e-02	
   8.3600000e+00	  -3.3900255e-01	   2.9917831e-01	   1.4862043e-02	
   8.4150000e+00	  -4.0319732e-01	   1.0729705e-01	  -2.9926272e-02	
   8.4700000e+00	  -4.6261457e-01	  -7.0804367e-02	  -7.3151945e-02	
   8.5250000e+00	  -5.1555888e-01	  -2.3019469e-01	  -1.1394161e-01	
   8.5800000e+00	  -5.6046331e-01	  -3.6629430e-01	  -1.5149019e-01	
   8.6350000e+00	  -5.9597392e-01	  -4.7510956e-01	  -1.8511485e-01	
   8.6900000e+00	  -6.2101792e-01	  -5.5342952e-01	  -2.1429710e-01	
   8.7450000e+00	  -6.3485137e-01	  -5.9897430e-01	  -2.3870828e-01	
   8.8000000e+00	  -6.3708652e-01	  -6.1049428e-01	  -2.5821751e-01	
   8.8550000e+00	  -6.2770134e-01	  -5.8782187e-01	  -2.7288517e-01	
   8.9100000e+00	  -6.0703428e-01	  -5.3187897e-01	  -2.8294780e-01	
   8.9650000e+00	  -5.7576693e-01	  -4.4464220e-01	  -2.8879906e-01	
   9.0200000e+00	  -5.3489543e-01	  -3.2906630e-01	  -2.9096812e-01	
   9.0750000e+00	  -4.8568960e-01	  -1.8896316e-01	  -2.9009478e-01	
   9.1300000e+00	  -4.2963897e-01	  -2.8833782e-02	  -2.8689985e-01	
   9.1850000e+00	  -3.6838631e-01	   1.4634202e-01	  -2.8215040e-01	
   9.2400000e+00	  -3.0365375e-01	   3.3134036e-01	  -2.7662066e-01	
   9.2950000e+00	  -2.3716906e-01	   5.2092529e-01	  -2.7105081e-01	
   9.3500000e+00	  -1.7059887e-01	   7.1005508e-01	  -2.6610611e-01	
   9.4050000e+00	  -1.0549207e-01	   8.9405213e-01	  -2.6233976e-01	
   9.4600000e+00	  -4.3234500e-02	   1.0687342e+00	  -2.6016295e-01	
   9.5150000e+00	   1.4984646e-02	   1.2305083e+00	  -2.5982602e-01	
   9.5700000e+00	   6.8194217e-02	   1.3764318e+00	  -2.6141307e-01	
   9.6250000e+00	   1.1565084e-01	   1.5042429e+00	  -2.6485069e-01	
   9.6800000e+00	   1.5683794e-01	   1.6123680e+00	  -2.6992894e-01	
   9.7350000e+00	   1.9145580e-01	   1.6999051e+00	  -2.7633107e-01	
   9.7900000e+00	   2.1940520e-01	   1.7665898e+00	  -2.8366721e-01	
   9.8450000e+00	   2.4076701e-01	   1.8127467e+00	  -2.9150735e-01	
   9.9000000e+00	   2.5578013e-01	   1.8392289e+00	  -2.9940920e-01	
   9.9550000e+00	   2.6481977e-01	   1.8473518e+00	  -3.0693798e-01	
   1.0010000e+01	   2.6837802e-01	   1.8388217e+00	  -3.1367715e-01	
   1.0065000e+01	   2.6704666e-01	   1.8156635e+00	  -3.1923315e-01	
   1.0120000e+01	   2.6150073e-01	   1.7801452e+00	  -3.2323846e-01	
   1.0175000e+01	   2.5248022e-01	   1.7347013e+00	  -3.2535673e-01	
   1.0230000e+01	   2.4076802e-01	   1.6818493e+00	  -3.2529092e-01	
   1.0285000e+01	   2.2716228e-01	   1.6240948e+00	  -3.2279463e-01	
   1.0340000e+01	   2.1244269e-01	   1.5638226e+00	  -3.1768650e-01	
   1.0395000e+01	   1.9733428e-01	   1.5031874e+00	  -3.0986563e-01	
   1.0450000e+01	   1.8247710e-01	   1.4440284e+00	  -2.9932190e-01	
   1.0505000e+01	   1.6840971e-01	   1.3878338e+00	  -2.8613546e-01	
   1.0560000e+01	   1.5556652e-01	   1.3357534e+00	  -2.7046424e-01	
   1.0615000e+01	   1.4428214e-01	   1.2886325e+00	  -2.5252394e-01	
   1.0670000e+01	   1.3479654e-01	   1.2470410e+00	  -2.3256558e-01	
   1.0725000e+01	   1.2725733e-01	   1.2112861e+00	  -2.1085558e-01	
   1.0780000e+01	   1.2171595e-01	   1.1814015e+00	  -1.8766277e-01	
   1.0835000e+01	   1.1811608e-01	   1.1571157e+00	  -1.6325643e-01	
   1.0890000e+01	   1.1627622e-01	   1.1378034e+00	  -1.3791525e-01	
   1.0945000e+01	   1.1587487e-01	   1.1224461e+00	  -1.1194251e-01	
   1.1000000e+01	   1.1644997e-01	   1.1096331e+00	  -8.5679955e-02	
   1.1055000e+01	   1.1741870e-01	   1.0976240e+00	  -5.9513631e-02	
   1.1110000e+01	   1.1811404e-01	   1.0844603e+00	  -3.3868666e-02	
   1.1165000e+01	   1.1782802e-01	   1.0680957e+00	  -9.1942245e-03	
   1.1220000e+01	   1.1585379e-01	   1.0465173e+00	   1.4058224e-02	
   1.1275000e+01	   1.1152308e-01	   1.0178469e+00	   3.5460516e-02	
   1.1330000e+01	   1.0423715e-01	   9.8041555e-01	   5.4633929e-02	
   1.1385000e+01	   9.3488203e-02	   9.3280988e-01	   7.1271033e-02	
   1.1440000e+01	   7.8868589e-02	   8.7388725e-01	   8.5149188e-02	
   1.1495000e+01	   6.0067418e-02	   8.0275987e-01	   9.6134120e-02	
   1.1550000e+01	   3.6857830e-02	   7.1875737e-01	   1.0417409e-01	
   1.1605000e+01	   9.0830032e-03	   6.2139122e-01	   1.0928753e-01	
   1.1660000e+01	  -2.3347764e-02	   5.1035340e-01	   1.1154942e-01	
   1.1715000e+01	  -6.0445722e-02	   3.8556826e-01	   1.1108136e-01	
   1.1770000e+01	  -1.0211554e-01	   2.4728359e-01	   1.0804688e-01	
   1.1825000e+01	  -1.4812566e-01	   9.6164773e-02	   1.0265096e-01	
   1.1880000e+01	  -1.9808643e-01	  -6.6639371e-02	   9.5142473e-02	
   1.1935000e+01	  -2.5144114e-01	  -2.3947346e-01	   8.5819147e-02	
   1.1990000e+01	  -3.0747254e-01	  -4.2020008e-01	   7.5032137e-02	
   1.2045000e+01	  -3.6532707e-01	  -6.0627591e-01	   6.3184904e-02	
   1.2100000e+01	  -4.2405621e-01	  -7.9487776e-01	   5.0721750e-02	
   1.2155000e+01	  -4.8266890e-01	  -9.8306169e-01	   3.8106912e-02	
   1.2210000e+01	  -5.4018531e-01	  -1.1679260e+00	   2.5799358e-02	
   1.2265000e+01	  -5.9568387e-01	  -1.3467531e+00	   1.4227753e-02	
   1.2320000e+01	  -6.4833836e-01	  -1.5171184e+00	   3.7675538e-03	
   1.2375000e+01	  -6.9744483e-01	  -1.6769643e+00	  -5.2784662e-03	
   1.2430000e+01	  -7.4243934e-01	  -1.8246430e+00	  -1.2694537e-02	
   1.2485000e+01	  -7.8290685e-01	  -1.9589317e+00	  -1.8359418e-02	
   1.2540000e+01	  -8.1858133e-01	  -2.0790256e+00	  -2.2245409e-02	
   1.2595000e+01	  -8.4933708e-01	  -2.1845143e+00	  -2.4407513e-02	
   1.2650000e+01	  -8.7517271e-01	  -2.2753451e+00	  -2.4964496e-02	
   1.2705000e+01	  -8.9619079e-01	  -2.3517790e+00	  -2.4077208e-02	
   1.2760000e+01	  -9.1257706e-01	  -2.4143438e+00	  -2.1929384e-02	
   1.2815000e+01	  -9.2458178e-01	  -2.4637884e+00	  -1.8712651e-02	
   1.2870000e+01	  -9.3250438e-01	  -2.5010401e+00	  -1.4615153e-02	
   1.2925000e+01	  -9.3668159e-01	  -2.5271639e+00	  -9.8137832e-03	
   1.2980000e+01	  -9.3747872e-01	  -2.5433245e+00	  -4.4710728e-03	
   1.3035000e+01	  -9.3528222e-01	  -2.5507487e+00	   1.2630355e-03	
   1.3090000e+01	  -9.3049159e-01	  -2.5506886e+00	   7.2463212e-03	
   1.3145000e+01	  -9.2350894e-01	  -2.5443847e+00	   1.3339829e-02	
   1.3200000e+01	  -9.1472584e-01	  -2.5330320e+00	   1.9407225e-02	
   1.3255000e+01	  -9.0450856e-01	  -2.5177471e+00	   2.5319608e-02	
   1.3310000e+01	  -8.9318421e-01	  -2.4995425e+00	   3.0965044e-02	
   1.3365000e+01	  -8.8103086e-01	  -2.4793074e+00	   3.6259692e-02	
   1.3420000e+01	  -8.6827315e-01	  -2.4577990e+00	   4.1155652e-02	
   1.3475000e+01	  -8.5508399e-01	  -2.4356419e+00	   4.5641405e-02	
   1.3530000e+01	  -8.4159126e-01	  -2.4133339e+00	   4.9734030e-02	
   1.3585000e+01	  -8.2788842e-01	  -2.3912576e+00	   5.3466153e-02	
   1.3640000e+01	  -8.1404707e-01	  -2.3696947e+00	   5.6872617e-02	
   1.3695000e+01	  -8.0012910e-01	  -2.3488432e+00	   5.9980833e-02	
   1.3750000e+01	  -7.8619641e-01	  -2.3288326e+00	   6.2805796e-02	
   1.3805000e+01	  -7.7231621e-01	  -2.3097371e+00	   6.5348823e-02	
   1.3860000e+01	  -7.5856102e-01	  -2.2915839e+00	   6.7600271e-02	
   1.3915000e+01	  -7.4500273e-01	  -2.2743579e+00	   6.9548385e-02	
   1.3970000e+01	  -7.3170198e-01	  -2.2580027e+00	   7.1195097e-02	
   1.4025000e+01	  -7.1869621e-01	  -2.2424202e+00	   7.2574784e-02	
   1.4080000e+01	  -7.0599019e-01	  -2.2274705e+00	   7.3768654e-02	
   1.4135000e+01	  -6.9355152e-01	  -2.2129749e+00	   7.4909382e-02	
   1.4190000e+01	  -6.8131182e-01	  -2.1987228e+00	   7.6174794e-02	
   1.4245000e+01	  -6.6917330e-01	  -2.1844805e+00	   7.7771882e-02	
   1.4300000e+01	  -6.5701994e-01	  -2.1700030e+00	   7.9913486e-02	
   1.4355000e+01	  -6.4473168e-01	  -2.1550458e+00	   8.2791376e-02	
   1.4410000e+01	  -6.3219996e-01	  -2.1393775e+00	   8.6550308e-02	
   1.4465000e+01	  -6.1934351e-01	  -2.1227935e+00	   9.1266373e-02	
   1.4520000e+01	  -6.0612234e-01	  -2.1051283e+00	   9.6931323e-02	
   1.4575000e+01	  -5.9254718e-01	  -2.0862677e+00	   1.0344464e-01	
   1.4630000e+01	  -5.7868138e-01	  -2.0661553e+00	   1.1061592e-01	
   1.4685000e+01	  -5.6463476e-01	  -2.0447934e+00	   1.1817919e-01	
   1.4740000e+01	  -5.5055136e-01	  -2.0222400e+00	   1.2581788e-01	
   1.4795000e+01	  -5.3659459e-01	  -1.9986027e+00	   1.3319570e-01	
   1.4850000e+01	  -5.2293277e-01	  -1.9740331e+00	   1.3998809e-01	
   1.4905000e+01	  -5.0972669e-01	  -1.9487201e+00	   1.4590885e-01	
   1.4960000e+01	  -4.9712050e-01	  -1.9228823e+00	   1.5072864e-01	
   1.5015000e+01	  -4.8523677e-01	  -1.8967588e+00	   1.5428440e-01	
   1.5070000e+01	  -4.7417547e-01	  -1.8706003e+00	   1.5648025e-01	
   1.5125000e+01	  -4.6401700e-01	  -1.8446621e+00	   1.5728049e-01	
   1.5180000e+01	  -4.5482827e-01	  -1.8192008e+00	   1.5669565e-01	
   1.5235000e+01	  -4.4667063e-01	  -1.7944721e+00	   1.5476405e-01	
   1.5290000e+01	  -4.3960715e-01	  -1.7707289e+00	   1.5153272e-01	
   1.5345000e+01	  -4.3370668e-01	  -1.7482193e+00	   1.4704190e-01	
   1.5400000e+01	  -4.2904290e-01	  -1.7271816e+00	   1.4131644e-01	
   1.5455000e+01	  -4.2568785e-01	  -1.7078365e+00	   1.3436578e-01	
   1.5510000e+01	  -4.2370010e-01	  -1.6903755e+00	   1.2619218e-01	
   1.5565000e+01	  -4.2311071e-01	  -1.6749462e+00	   1.1680470e-01	
   1.5620000e+01	  -4.2391107e-01	  -1.6616386e+00	   1.0623512e-01	
   1.5675000e+01	  -4.2604507e-01	  -1.6504750e+00	   9.4552226e-02	
   1.5730000e+01	  -4.2940596e-01	  -1.6414058e+00	   8.1871736e-02	
   1.5785000e+01	  -4.3383753e-01	  -1.6343104e+00	   6.8360412e-02	
   1.5840000e+01	  -4.3914026e-01	  -1.6290031e+00	   5.4233830e-02	
   1.5895000e+01	  -4.4508253e-01	  -1.6252437e+00	   3.9748470e-02	
   1.5950000e+01	  -4.5141580e-01	  -1.6227533e+00	   2.5188425e-02	
   1.6005000e+01	  -4.5789241e-01	  -1.6212327e+00	   1.0846601e-02	
   1.6060000e+01	  -4.6428446e-01	  -1.6203810e+00	  -2.9980339e-03	
   1.6115000e+01	  -4.7040125e-01	  -1.6199137e+00	  -1.6103218e-02	
   1.6170000e+01	  -4.7610223e-01	  -1.6195787e+00	  -2.8282051e-02	
   1.6225000e+01	  -4.8130279e-01	  -1.6191662e+00	  -3.9414439e-02	
   1.6280000e+01	  -4.8597204e-01	  -1.6185139e+00	  -4.9448740e-02	
   1.6335000e+01	  -4.9012376e-01	  -1.6175058e+00	  -5.8392858e-02	
   1.6390000e+01	  -4.9380375e-01	  -1.6160671e+00	  -6.6298458e-02	
   1.6445000e+01	  -4.9707750e-01	  -1.6141578e+00	  -7.3244574e-02	
   1.6500000e+01	  -5.0002039e-01	  -1.6117678e+00	  -7.9324853e-02	
   1.6555000e+01	  -5.0271112e-01	  -1.6089136e+00	  -8.4639258e-02	
   1.6610000e+01	  -5.0522789e-01	  -1.6056361e+00	  -8.9289677e-02	
   1.6665000e+01	  -5.0764726e-01	  -1.6019998e+00	  -9.3378949e-02	
   1.6720000e+01	  -5.1004529e-01	  -1.5980939e+00	  -9.7012941e-02	
   1.6775000e+01	  -5.1249955e-01	  -1.5940348e+00	  -1.0030456e-01	
   1.6830000e+01	  -5.1509032e-01	  -1.5899651e+00	  -1.0337727e-01	
   1.6885000e+01	  -5.1789938e-01	  -1.5860477e+00	  -1.0636493e-01	
   1.6940000e+01	  -5.2100557e-01	  -1.5824533e+00	  -1.0940498e-01	
   1.6995000e+01	  -5.2447653e-01	  -1.5793422e+00	  -1.1262377e-01	
   1.7050000e+01	  -5.2835757e-01	  -1.5768447e+00	  -1.1611684e-01	
   1.7105000e+01	  -5.3266031e-01	  -1.5750433e+00	  -1.1993123e-01	
   1.7160000e+01	  -5.3735491e-01	  -1.5739646e+00	  -1.2405652e-01	
   1.7215000e+01	  -5.4236824e-01	  -1.5735791e+00	  -1.2842694e-01	
   1.7270000e+01	  -5.4758860e-01	  -1.5738081e+00	  -1.3293279e-01	
   1.7325000e+01	  -5.5287640e-01	  -1.5745358e+00	  -1.3743761e-01	
   1.7380000e+01	  -5.5807920e-01	  -1.5756234e+00	  -1.4179812e-01	
   1.7435000e+01	  -5.6304904e-01	  -1.5769258e+00	  -1.4588353e-01	
   1.7490000e+01	  -5.6765989e-01	  -1.5783067e+00	  -1.4959230e-01	
   1.7545000e+01	  -5.7182344e-01	  -1.5796522e+00	  -1.5286525e-01	
   1.7600000e+01	  -5.7550121e-01	  -1.5808821e+00	  -1.5569414e-01	
   1.7655000e+01	  -5.7871003e-01	  -1.5819549e+00	  -1.5812275e-01	
   1.7710000e+01	  -5.8151830e-01	  -1.5828640e+00	  -1.6023747e-01	
   1.7765000e+01	  -5.8403311e-01	  -1.5836242e+00	  -1.6214837e-01	
   1.7820000e+01	  -5.8638149e-01	  -1.5842537e+00	  -1.6396579e-01	
   1.7875000e+01	  -5.8869019e-01	  -1.5847573e+00	  -1.6577771e-01	
   1.7930000e+01	  -5.9106771e-01	  -1.5851141e+00	  -1.6763121e-01	
   1.7985000e+01	  -5.9359081e-01	  -1.5852719e+00	  -1.6952154e-01	
   1.8040000e+01	  -5.9629758e-01	  -1.5851480e+00	  -1.7139160e-01	
   1.8095000e+01	  -5.9918709e-01	  -1.5846365e+00	  -1.7314197e-01	
   1.8150000e+01	  -6.0222526e-01	  -1.5836188e+00	  -1.7464788e-01	
   1.8205000e+01	  -6.0535545e-01	  -1.5819763e+00	  -1.7577944e-01	
   1.8260000e+01	  -6.0851196e-01	  -1.5796039e+00	  -1.7642313e-01	
   1.8315000e+01	  -6.1163441e-01	  -1.5764240e+00	  -1.7650228e-01	
   1.8370000e+01	  -6.1468086e-01	  -1.5723976e+00	  -1.7599338e-01	
   1.8425000e+01	  -6.1763841e-01	  -1.5675340e+00	  -1.7493587e-01	
   1.8480000e+01	  -6.2053035e-01	  -1.5618936e+00	  -1.7343425e-01	
   1.8535000e+01	  -6.2341776e-01	  -1.5555854e+00	  -1.7165165e-01	
   1.8590000e+01	  -6.2639412e-01	  -1.5487575e+00	  -1.6979456e-01	
   1.8645000e+01	  -6.2957316e-01	  -1.5415824e+00	  -1.6809077e-01	
   1.8700000e+01	  -6.3307248e-01	  -1.5342407e+00	  -1.6676519e-01	
   1.8755000e+01	  -6.3699649e-01	  -1.5269036e+00	  -1.6601784e-01	
   1.8810000e+01	  -6.4142128e-01	  -1.5197163e+00	  -1.6600680e-01	
   1.8865000e+01	  -6.4638395e-01	  -1.5127868e+00	  -1.6683719e-01	
   1.8920000e+01	  -6.5187779e-01	  -1.5061803e+00	  -1.6855660e-01	
   1.8975000e+01	  -6.5785367e-01	  -1.4999210e+00	  -1.7115678e-01	
   1.9030000e+01	  -6.6422687e-01	  -1.4939992e+00	  -1.7458191e-01	
   1.9085000e+01	  -6.7088780e-01	  -1.4883829e+00	  -1.7874303e-01	
   1.9140000e+01	  -6.7771459e-01	  -1.4830284e+00	  -1.8353651e-01	
   1.9195000e+01	  -6.8458520e-01	  -1.4778912e+00	  -1.8886278e-01	
   1.9250000e+01	  -6.9138724e-01	  -1.4729326e+00	  -1.9464060e-01	
   1.9305000e+01	  -6.9802332e-01	  -1.4681241e+00	  -2.0081323e-01	
   1.9360000e+01	  -7.0441055e-01	  -1.4634479e+00	  -2.0734514e-01	
   1.9415000e+01	  -7.1047408e-01	  -1.4588940e+00	  -2.1421026e-01	
   1.9470000e+01	  -7.1613686e-01	  -1.4544561e+00	  -2.2137486e-01	
   1.9525000e+01	  -7.2130954e-01	  -1.4501265e+00	  -2.2877969e-01	
   1.9580000e+01	  -7.2588393e-01	  -1.4458915e+00	  -2.3632704e-01	
   1.9635000e+01	  -7.2973214e-01	  -1.4417292e+00	  -2.4387615e-01	
   1.9690000e+01	  -7.3271160e-01	  -1.4376103e+00	  -2.5124780e-01	
   1.9745000e+01	  -7.3467535e-01	  -1.4335032e+00	  -2.5823705e-01	
   1.9800000e+01	  -7.3548603e-01	  -1.4293825e+00	  -2.6463163e-01	
   1.9855000e+01	  -7.3503080e-01	  -1.4252383e+00	  -2.7023190e-01	
   1.9910000e+01	  -7.3323459e-01	  -1.4210836e+00	  -2.7486925e-01	
   1.9965000e+01	  -7.3007015e-01	  -1.4169582e+00	  -2.7842105e-01	
   2.0020000e+01	  -7.2556355e-01	  -1.4129302e+00	  -2.8082204e-01	
   2.0075000e+01	  -7.1979313e-01	  -1.4090935e+00	  -2.8207034e-01	
   2.0130000e+01	  -7.1288063e-01	  -1.4055597e+00	  -2.8222503e-01	
   2.0185000e+01	  -7.0497612e-01	  -1.4024456e+00	  -2.8139374e-01	
   2.0240000e+01	  -6.9624123e-01	  -1.3998590e+00	  -2.7971312e-01	
   2.0295000e+01	  -6.8683487e-01	  -1.3978869e+00	  -2.7732772e-01	
   2.0350000e+01	  -6.7690331e-01	  -1.3965868e+00	  -2.7437291e-01	
   2.0405000e+01	  -6.6657501e-01	  -1.3959827e+00	  -2.7096492e-01	
   2.0460000e+01	  -6.5596061e-01	  -1.3960651e+00	  -2.6719876e-01	
   2.0515000e+01	  -6.4515755e-01	  -1.3967948e+00	  -2.6315284e-01	
   2.0570000e+01	  -6.3425753e-01	  -1.3981085e+00	  -2.5889784e-01	
   2.0625000e+01	  -6.2335409e-01	  -1.3999250e+00	  -2.5450654e-01	
   2.0680000e+01	  -6.1254856e-01	  -1.4021519e+00	  -2.5006251e-01	
   2.0735000e+01	  -6.0195301e-01	  -1.4046915e+00	  -2.4566628e-01	
   2.0790000e+01	  -5.9168883e-01	  -1.4074452e+00	  -2.4143720e-01	
   2.0845000e+01	  -5.8188021e-01	  -1.4103153e+00	  -2.3750910e-01	
   2.0900000e+01	  -5.7264387e-01	  -1.4132049e+00	  -2.3401913e-01	
   2.0955000e+01	  -5.6407818e-01	  -1.4160185e+00	  -2.3109277e-01	
   2.1010000e+01	  -5.5625427e-01	  -1.4186610e+00	  -2.2882931e-01	
   2.1065000e+01	  -5.4921026e-01	  -1.4210379e+00	  -2.2729121e-01	
   2.1120000e+01	  -5.4294899e-01	  -1.4230568e+00	  -2.2649831e-01	
   2.1175000e+01	  -5.3743958e-01	  -1.4246302e+00	  -2.2642681e-01	
   2.1230000e+01	  -5.3262233e-01	  -1.4256802e+00	  -2.2701251e-01	
   2.1285000e+01	  -5.2841610e-01	  -1.4261433e+00	  -2.2815782e-01	
   2.1340000e+01	  -5.2472780e-01	  -1.4259767e+00	  -2.2974131e-01	
   2.1395000e+01	  -5.2146320e-01	  -1.4251638e+00	  -2.3162801e-01	
   2.1450000e+01	  -5.1853662e-01	  -1.4237153e+00	  -2.3367806e-01	
   2.1505000e+01	  -5.1587680e-01	  -1.4216661e+00	  -2.3575220e-01	
   2.1560000e+01	  -5.1342715e-01	  -1.4190654e+00	  -2.3771278e-01	
   2.1615000e+01	  -5.1114105e-01	  -1.4159649e+00	  -2.3942022e-01	
   2.1670000e+01	  -5.0897466e-01	  -1.4124049e+00	  -2.4072701e-01	
   2.1725000e+01	  -5.0688055e-01	  -1.4084029e+00	  -2.4147386e-01	
   2.1780000e+01	  -5.0480461e-01	  -1.4039475e+00	  -2.4149184e-01	
   2.1835000e+01	  -5.0268709e-01	  -1.3989973e+00	  -2.4061058e-01	
   2.1890000e+01	  -5.0046701e-01	  -1.3934873e+00	  -2.3866950e-01	
   2.1945000e+01	  -4.9808946e-01	  -1.3873414e+00	  -2.3552990e-01	
   2.2000000e+01	  -4.9551470e-01	  -1.3804877e+00	  -2.3108746e-01	
   2.2055000e+01	  -4.9272747e-01	  -1.3728744e+00	  -2.2528488e-01	
   2.2110000e+01	  -4.8974397e-01	  -1.3644834e+00	  -2.1812326e-01	
   2.2165000e+01	  -4.8661491e-01	  -1.3553403e+00	  -2.0967045e-01	
   2.2220000e+01	  -4.8342377e-01	  -1.3455171e+00	  -2.0006406e-01	
   2.2275000e+01	  -4.8027998e-01	  -1.3351303e+00	  -1.8950542e-01	
   2.2330000e+01	  -4.7730754e-01	  -1.3243324e+00	  -1.7824347e-01	
   2.2385000e+01	  -4.7463080e-01	  -1.3132997e+00	  -1.6655249e-01	
   2.2440000e+01	  -4.7236072e-01	  -1.3022190e+00	  -1.5471099e-01	
   2.2495000e+01	  -4.7058495e-01	  -1.2912755e+00	  -1.4298738e-01	
   2.2550000e+01	  -4.6936269e-01	  -1.2806443e+00	  -1.3163180e-01	
   2.2605000e+01	  -4.6872444e-01	  -1.2704851e+00	  -1.2087108e-01	
   2.2660000e+01	  -4.6867555e-01	  -1.2609391e+00	  -1.1090538e-01	
   2.2715000e+01	  -4.6920288e-01	  -1.2521272e+00	  -1.0190751e-01	
   2.2770000e+01	  -4.7028295e-01	  -1.2441492e+00	  -9.4024798e-02	
   2.2825000e+01	  -4.7189007e-01	  -1.2370837e+00	  -8.7383634e-02	
   2.2880000e+01	  -4.7400351e-01	  -1.2309895e+00	  -8.2095601e-02	
   2.2935000e+01	  -4.7661260e-01	  -1.2259063e+00	  -7.8262594e-02	
   2.2990000e+01	  -4.7971744e-01	  -1.2218544e+00	  -7.5976377e-02	
   2.3045000e+01	  -4.8332470e-01	  -1.2188308e+00	  -7.5309864e-02	
   2.3100000e+01	  -4.8743971e-01	  -1.2168050e+00	  -7.6302078e-02	
   2.3155000e+01	  -4.9205787e-01	  -1.2157168e+00	  -7.8942147e-02	
   2.3210000e+01	  -4.9715718e-01	  -1.2154776e+00	  -8.3157270e-02	
   2.3265000e+01	  -5.0269351e-01	  -1.2159755e+00	  -8.8807723e-02	
   2.3320000e+01	  -5.0860013e-01	  -1.2170828e+00	  -9.5690514e-02	
   2.3375000e+01	  -5.1479178e-01	  -1.2186636e+00	  -1.0355165e-01	
   2.3430000e+01	  -5.2117228e-01	  -1.2205801e+00	  -1.1210544e-01	
   2.3485000e+01	  -5.2764445e-01	  -1.2226971e+00	  -1.2105850e-01	
   2.3540000e+01	  -5.3412145e-01	  -1.2248860e+00	  -1.3013557e-01	
   2.3595000e+01	  -5.4053861e-01	  -1.2270291e+00	  -1.3910352e-01	
   2.3650000e+01	  -5.4686381e-01	  -1.2290246e+00	  -1.4779023e-01	
   2.3705000e+01	  -5.5310487e-01	  -1.2307914e+00	  -1.5609675e-01	
   2.3760000e+01	  -5.5931234e-01	  -1.2322709e+00	  -1.6400264e-01	
   2.3815000e+01	  -5.6557606e-01	  -1.2334259e+00	  -1.7156262e-01	
   2.3870000e+01	  -5.7201450e-01	  -1.2342344e+00	  -1.7889184e-01	
   2.3925000e+01	  -5.7875819e-01	  -1.2346824e+00	  -1.8613954e-01	
   2.3980000e+01	  -5.8593139e-01	  -1.2347561e+00	  -1.9345777e-01	
   2.4035000e+01	  -5.9363622e-01	  -1.2344361e+00	  -2.0097392e-01	
   2.4090000e+01	  -6.0194112e-01	  -1.2336926e+00	  -2.0877279e-01	
   2.4145000e+01	  -6.1087366e-01	  -1.2324819e+00	  -2.1688880e-01	
   2.4200000e+01	  -6.2041773e-01	  -1.2307458e+00	  -2.2530700e-01	
   2.4255000e+01	  -6.3051513e-01	  -1.2284177e+00	  -2.3396955e-01	
   2.4310000e+01	  -6.4107089e-01	  -1.2254312e+00	  -2.4278469e-01	
   2.4365000e+01	  -6.5196190e-01	  -1.2217324e+00	  -2.5163716e-01	
   2.4420000e+01	  -6.6304814e-01	  -1.2172913e+00	  -2.6040028e-01	
   2.4475000e+01	  -6.7418528e-01	  -1.2121134e+00	  -2.6894862e-01	
   2.4530000e+01	  -6.8523681e-01	  -1.2062486e+00	  -2.7716948e-01	
   2.4585000e+01	  -6.9608328e-01	  -1.1997940e+00	  -2.8497202e-01	
   2.4640000e+01	  -7.0662686e-01	  -1.1928916e+00	  -2.9229320e-01	
   2.4695000e+01	  -7.1678990e-01	  -1.1857187e+00	  -2.9909860e-01	
   2.4750000e+01	  -7.2650811e-01	  -1.1784709e+00	  -3.0537704e-01	
   2.4805000e+01	  -7.3572103e-01	  -1.1713427e+00	  -3.1113043e-01	
   2.4860000e+01	  -7.4436317e-01	  -1.1645087e+00	  -3.1636211e-01	
   2.4915000e+01	  -7.5235782e-01	  -1.1581107e+00	  -3.2106653e-01	
   2.4970000e+01	  -7.5961372e-01	  -1.1522500e+00	  -3.2522186e-01	
   2.5025000e+01	  -7.6602534e-01	  -1.1469854e+00	  -3.2878799e-01	
   2.5080000e+01	  -7.7147706e-01	  -1.1423351e+00	  -3.3171171e-01	
   2.5135000e+01	  -7.7585076e-01	  -1.1382825e+00	  -3.3393834e-01	
   2.5190000e+01	  -7.7903509e-01	  -1.1347833e+00	  -3.3542638e-01	
   2.5245000e+01	  -7.8093423e-01	  -1.1317725e+00	  -3.3616171e-01	
   2.5300000e+01	  -7.8147522e-01	  -1.1291706e+00	  -3.3616867e-01	
   2.5355000e+01	  -7.8061263e-01	  -1.1268893e+00	  -3.3551497e-01	
   2.5410000e+01	  -7.7832922e-01	  -1.1248347e+00	  -3.3430743e-01	
   2.5465000e+01	  -7.7463224e-01	  -1.1229081e+00	  -3.3267776e-01	
   2.5520000e+01	  -7.6954679e-01	  -1.1210045e+00	  -3.3076195e-01	
   2.5575000e+01	  -7.6310871e-01	  -1.1190119e+00	  -3.2867948e-01	
   2.5630000e+01	  -7.5535926e-01	  -1.1168109e+00	  -3.2651743e-01	
   2.5685000e+01	  -7.4634260e-01	  -1.1142772e+00	  -3.2432114e-01	
   2.5740000e+01	  -7.3610673e-01	  -1.1112868e+00	  -3.2209184e-01	
   2.5795000e+01	  -7.2470784e-01	  -1.1077250e+00	  -3.1979129e-01	
   2.5850000e+01	  -7.1221681e-01	  -1.1034976e+00	  -3.1735343e-01	
   2.5905000e+01	  -6.9872654e-01	  -1.0985428e+00	  -3.1470139e-01	
   2.5960000e+01	  -6.8435819e-01	  -1.0928412e+00	  -3.1176669e-01	
   2.6015000e+01	  -6.6926452e-01	  -1.0864225e+00	  -3.0850718e-01	
   2.6070000e+01	  -6.5362801e-01	  -1.0793656e+00	  -3.0491947e-01	
   2.6125000e+01	  -6.3765258e-01	  -1.0717913e+00	  -3.0104277e-01	
   2.6180000e+01	  -6.2155026e-01	  -1.0638510e+00	  -2.9695403e-01	
   2.6235000e+01	  -6.0552699e-01	  -1.0557125e+00	  -2.9275704e-01	
   2.6290000e+01	  -5.8977115e-01	  -1.0475461e+00	  -2.8856906e-01	
   2.6345000e+01	  -5.7444684e-01	  -1.0395110e+00	  -2.8450688e-01	
   2.6400000e+01	  -5.5969171e-01	  -1.0317446e+00	  -2.8067411e-01	
   2.6455000e+01	  -5.4561884e-01	  -1.0243556e+00	  -2.7715184e-01	
   2.6510000e+01	  -5.3232151e-01	  -1.0174229e+00	  -2.7399452e-01	
   2.6565000e+01	  -5.1988031e-01	  -1.0109998e+00	  -2.7123214e-01	
   2.6620000e+01	  -5.0837165e-01	  -1.0051212e+00	  -2.6887811e-01	
   2.6675000e+01	  -4.9787715e-01	  -9.9981336e-01	  -2.6694104e-01	
   2.6730000e+01	  -4.8849205e-01	  -9.9510300e-01	  -2.6543671e-01	
   2.6785000e+01	  -4.8033118e-01	  -9.9102616e-01	  -2.6439658e-01	
   2.6840000e+01	  -4.7353115e-01	  -9.8763407e-01	  -2.6387148e-01	
   2.6895000e+01	  -4.6824718e-01	  -9.8499482e-01	  -2.6393028e-01	
   2.6950000e+01	  -4.6464270e-01	  -9.8318847e-01	  -2.6465255e-01	
   2.7005000e+01	  -4.6287212e-01	  -9.8229509e-01	  -2.6611442e-01	
   2.7060000e+01	  -4.6306028e-01	  -9.8237851e-01	  -2.6837028e-01	
   2.7115000e+01	  -4.6528340e-01	  -9.8347046e-01	  -2.7143526e-01	
   2.7170000e+01	  -4.6955427e-01	  -9.8555853e-01	  -2.7527271e-01	
   2.7225000e+01	  -4.7581298e-01	  -9.8857971e-01	  -2.7978750e-01	
   2.7280000e+01	  -4.8392434e-01	  -9.9242102e-01	  -2.8482450e-01	
   2.7335000e+01	  -4.9368231e-01	  -9.9692695e-01	  -2.9017160e-01	
   2.7390000e+01	  -5.0482055e-01	  -1.0019113e+00	  -2.9556746e-01	
   2.7445000e+01	  -5.1702760e-01	  -1.0071717e+00	  -3.0071478e-01	
   2.7500000e+01	  -5.2996563e-01	  -1.0125064e+00	  -3.0529849e-01	
   2.7555000e+01	  -5.4329127e-01	  -1.0177310e+00	  -3.0900632e-01	
   2.7610000e+01	  -5.5667623e-01	  -1.0226940e+00	  -3.1154902e-01	
   2.7665000e+01	  -5.6982564e-01	  -1.0272886e+00	  -3.1267936e-01	
   2.7720000e+01	  -5.8249226e-01	  -1.0314577e+00	  -3.1220832e-01	
   2.7775000e+01	  -5.9448511e-01	  -1.0351919e+00	  -3.1001479e-01	
   2.7830000e+01	  -6.0567053e-01	  -1.0385165e+00	  -3.0604521e-01	
   2.7885000e+01	  -6.1596557e-01	  -1.0414733e+00	  -3.0030339e-01	
   2.7940000e+01	  -6.2532611e-01	  -1.0441016e+00	  -2.9283548e-01	
   2.7995000e+01	  -6.3373342e-01	  -1.0464227e+00	  -2.8371570e-01	
   2.8050000e+01	  -6.4118234e-01	  -1.0484294e+00	  -2.7303523e-01	
   2.8105000e+01	  -6.4767247e-01	  -1.0500813e+00	  -2.6089414e-01	
   2.8160000e+01	  -6.5320284e-01	  -1.0513065e+00	  -2.4739755e-01	
   2.8215000e+01	  -6.5776994e-01	  -1.0520092e+00	  -2.3265815e-01	
   2.8270000e+01	  -6.6136955e-01	  -1.0520813e+00	  -2.1680517e-01	
   2.8325000e+01	  -6.6400234e-01	  -1.0514165e+00	  -1.9999659e-01	
   2.8380000e+01	  -6.6568255e-01	  -1.0499253e+00	  -1.8243061e-01	
   2.8435000e+01	  -6.6644791e-01	  -1.0475490e+00	  -1.6435142e-01	
   2.8490000e+01	  -6.6636873e-01	  -1.0442712e+00	  -1.4604691e-01	
   2.8545000e+01	  -6.6555426e-01	  -1.0401238e+00	  -1.2784057e-01	
   2.8600000e+01	  -6.6415494e-01	  -1.0351890e+00	  -1.1008167e-01	
   2.8655000e+01	  -6.6235866e-01	  -1.0295960e+00	  -9.3133978e-02	
   2.8710000e+01	  -6.6037964e-01	  -1.0235114e+00	  -7.7360262e-02	
   2.8765000e+01	  -6.5844144e-01	  -1.0171251e+00	  -6.3101574e-02	
   2.8820000e+01	  -6.5675762e-01	  -1.0106328e+00	  -5.0653837e-02	
   2.8875000e+01	  -6.5551371e-01	  -1.0042202e+00	  -4.0245863e-02	
   2.8930000e+01	  -6.5485300e-01	  -9.9805032e-01	  -3.2022275e-02	
   2.8985000e+01	  -6.5486730e-01	  -9.9225626e-01	  -2.6033878e-02	
   2.9040000e+01	  -6.5559380e-01	  -9.8693847e-01	  -2.2236441e-02	
   2.9095000e+01	  -6.5701753e-01	  -9.8216733e-01	  -2.0497065e-02	
   2.9150000e+01	  -6.5907847e-01	  -9.7798762e-01	  -2.0606786e-02	
   2.9205000e+01	  -6.6168171e-01	  -9.7442254e-01	  -2.2298391e-02	
   2.9260000e+01	  -6.6470958e-01	  -9.7147676e-01	  -2.5268053e-02	
   2.9315000e+01	  -6.6803448e-01	  -9.6913904e-01	  -2.9198563e-02	
   2.9370000e+01	  -6.7153098e-01	  -9.6738420e-01	  -3.3781484e-02	
   2.9425000e+01	  -6.7508547e-01	  -9.6617376e-01	  -3.8735672e-02	
   2.9480000e+01	  -6.7860186e-01	  -9.6545527e-01	  -4.3819739e-02	
   2.9535000e+01	  -6.8200238e-01	  -9.6516102e-01	  -4.8836256e-02	
   2.9590000e+01	  -6.8522406e-01	  -9.6520713e-01	  -5.3627028e-02	
   2.9645000e+01	  -6.8821321e-01	  -9.6549483e-01	  -5.8062430e-02	
   2.9700000e+01	  -6.9092089e-01	  -9.6591587e-01	  -6.2030462e-02	
   2.9755000e+01	  -6.9330113e-01	  -9.6636121e-01	  -6.5429852e-02	
   2.9810000e+01	  -6.9531134e-01	  -9.6672955e-01	  -6.8168042e-02	
   2.9865000e+01	  -6.9691437e-01	  -9.6693369e-01	  -7.0163051e-02	
   2.9920000e+01	  -6.9808197e-01	  -9.6690533e-01	  -7.1348306e-02	
   2.9975000e+01	  -6.9879950e-01	  -9.6659935e-01	  -7.1679242e-02	
   3.0030000e+01	  -6.9907082e-01	  -9.6599589e-01	  -7.1140048e-02	
   3.0085000e+01	  -6.9892292e-01	  -9.6509922e-01	  -6.9749415e-02	
   3.0140000e+01	  -6.9840895e-01	  -9.6393399e-01	  -6.7564323e-02	
   3.0195000e+01	  -6.9760788e-01	  -9.6254076e-01	  -6.4679846e-02	
   3.0250000e+01	  -6.9661842e-01	  -9.6097093e-01	  -6.1222111e-02	
   3.0305000e+01	  -6.9554718e-01	  -9.5928058e-01	  -5.7333187e-02	
   3.0360000e+01	  -6.9449380e-01	  -9.5752338e-01	  -5.3150602e-02	
   3.0415000e+01	  -6.9353713e-01	  -9.5574394e-01	  -4.8787751e-02	
   3.0470000e+01	  -6.9272527e-01	  -9.5397338e-01	  -4.4321392e-02	
   3.0525000e+01	  -6.9207045e-01	  -9.5222802e-01	  -3.9788537e-02	
   3.0580000e+01	  -6.9154871e-01	  -9.5051095e-01	  -3.5191055e-02	
   3.0635000e+01	  -6.9110438e-01	  -9.4881546e-01	  -3.0504967e-02	
   3.0690000e+01	  -6.9065818e-01	  -9.4712934e-01	  -2.5691700e-02	
   3.0745000e+01	  -6.9011777e-01	  -9.4543887e-01	  -2.0709710e-02	
   3.0800000e+01	  -6.8938945e-01	  -9.4373268e-01	  -1.5526069e-02	
   3.0855000e+01	  -6.8839072e-01	  -9.4200568e-01	  -1.0127509e-02	
   3.0910000e+01	  -6.8706230e-01	  -9.4026213e-01	  -4.5291100e-03	
   3.0965000e+01	  -6.8537664e-01	  -9.3851544e-01	   1.2218327e-03	
   3.1020000e+01	  -6.8334016e-01	  -9.3678391e-01	   7.0485994e-03	
   3.1075000e+01	  -6.8098797e-01	  -9.3508240e-01	   1.2855215e-02	
   3.1130000e+01	  -6.7837260e-01	  -9.3341111e-01	   1.8542978e-02	
   3.1185000e+01	  -6.7554993e-01	  -9.3174366e-01	   2.4030199e-02	
   3.1240000e+01	  -6.7256588e-01	  -9.3001889e-01	   2.9270690e-02	
   3.1295000e+01	  -6.6944638e-01	  -9.2813910e-01	   3.4267052e-02	
   3.1350000e+01	  -6.6619146e-01	  -9.2597386e-01	   3.9076644e-02	
   3.1405000e+01	  -6.6277356e-01	  -9.2336766e-01	   4.3809917e-02	
   3.1460000e+01	  -6.5913999e-01	  -9.2015055e-01	   4.8621669e-02	
   3.1515000e+01	  -6.5521949e-01	  -9.1615187e-01	   5.3696323e-02	
   3.1570000e+01	  -6.5093194e-01	  -9.1121584e-01	   5.9228798e-02	
   3.1625000e+01	  -6.4620014e-01	  -9.0521716e-01	   6.5402587e-02	
   3.1680000e+01	  -6.4096312e-01	  -8.9807521e-01	   7.2366751e-02	
   3.1735000e+01	  -6.3518998e-01	  -8.8976515e-01	   8.0214261e-02	
   3.1790000e+01	  -6.2889211e-01	  -8.8032397e-01	   8.8965040e-02	
   3.1845000e+01	  -6.2213050e-01	  -8.6984974e-01	   9.8556911e-02	
   3.1900000e+01	  -6.1501631e-01	  -8.5849339e-01	   1.0884637e-01	
   3.1955000e+01	  -6.0770348e-01	  -8.4644512e-01	   1.1962040e-01	
   3.2010000e+01	  -6.0037413e-01	  -8.3391735e-01	   1.3061969e-01	
   3.2065000e+01	  -5.9321904e-01	  -8.2112594e-01	   1.4157000e-01	
   3.2120000e+01	  -5.8641680e-01	  -8.0827193e-01	   1.5221426e-01	
   3.2175000e+01	  -5.8011548e-01	  -7.9552693e-01	   1.6233715e-01	
   3.2230000e+01	  -5.7441904e-01	  -7.8302448e-01	   1.7177877e-01	
   3.2285000e+01	  -5.6937997e-01	  -7.7085738e-01	   1.8043884e-01	
   3.2340000e+01	  -5.6499862e-01	  -7.5907988e-01	   1.8827491e-01	
   3.2395000e+01	  -5.6122847e-01	  -7.4771266e-01	   1.9529638e-01	
   3.2450000e+01	  -5.5798584e-01	  -7.3674886e-01	   2.0155516e-01	
   3.2505000e+01	  -5.5516280e-01	  -7.2616046e-01	   2.0713473e-01	
   3.2560000e+01	  -5.5264239e-01	  -7.1590600e-01	   2.1213867e-01	
   3.2615000e+01	  -5.5031530e-01	  -7.0594026e-01	   2.1667966e-01	
   3.2670000e+01	  -5.4809580e-01	  -6.9622484e-01	   2.2086919e-01	
   3.2725000e+01	  -5.4593473e-01	  -6.8673870e-01	   2.2480843e-01	
   3.2780000e+01	  -5.4382780e-01	  -6.7748800e-01	   2.2857946e-01	
   3.2835000e+01	  -5.4181816e-01	  -6.6851274e-01	   2.3223731e-01	
   3.2890000e+01	  -5.3999152e-01	  -6.5988560e-01	   2.3580596e-01	
   3.2945000e+01	  -5.3846334e-01	  -6.5170030e-01	   2.3928208e-01	
   3.3000000e+01	  -5.3736067e-01	  -6.4405330e-01	   2.4264602e-01	
   3.3055000e+01	  -5.3680295e-01	  -6.3702593e-01	   2.4587533e-01	
   3.3110000e+01	  -5.3688576e-01	  -6.3067248e-01	   2.4895630e-01	
   3.3165000e+01	  -5.3766924e-01	  -6.2501479e-01	   2.5189071e-01	
   3.3220000e+01	  -5.3917235e-01	  -6.2004265e-01	   2.5469631e-01	
   3.3275000e+01	  -5.4137288e-01	  -6.1571948e-01	   2.5740052e-01	
   3.3330000e+01	  -5.4421250e-01	  -6.1199199e-01	   2.6002935e-01	
   3.3385000e+01	  -5.4760510e-01	  -6.0880121e-01	   2.6259548e-01	
   3.3440000e+01	  -5.5144767e-01	  -6.0609325e-01	   2.6508765e-01	
   3.3495000e+01	  -5.5563289e-01	  -6.0382923e-01	   2.6746166e-01	
   3.3550000e+01	  -5.6006202e-01	  -6.0199472e-01	   2.6963257e-01	
   3.3605000e+01	  -5.6465622e-01	  -6.0060814e-01	   2.7146928e-01	
   3.3660000e+01	  -5.6936540e-01	  -5.9972700e-01	   2.7279390e-01	
   3.3715000e+01	  -5.7417336e-01	  -5.9944948e-01	   2.7338794e-01	
   3.3770000e+01	  -5.7909721e-01	  -5.9990821e-01	   2.7300634e-01	
   3.3825000e+01	  -5.8417927e-01	  -6.0125538e-01	   2.7139899e-01	
   3.3880000e+01	  -5.8947236e-01	  -6.0364171e-01	   2.6833727e-01	
   3.3935000e+01	  -5.9502260e-01	  -6.0719454e-01	   2.6364126e-01	
   3.3990000e+01	  -6.0085412e-01	  -6.1199881e-01	   2.5720327e-01	
   3.4045000e+01	  -6.0695845e-01	  -6.1808293e-01	   2.4900514e-01	
   3.4100000e+01	  -6.1328954e-01	  -6.2541009e-01	   2.3912733e-01	
   3.4155000e+01	  -6.1976409e-01	  -6.3387582e-01	   2.2774719e-01	
   3.4210000e+01	  -6.2626678e-01	  -6.4331206e-01	   2.1512665e-01	
   3.4265000e+01	  -6.3265903e-01	  -6.5349658e-01	   2.0159255e-01	
   3.4320000e+01	  -6.3879007e-01	  -6.6416653e-01	   1.8751334e-01	
   3.4375000e+01	  -6.4450942e-01	  -6.7503482e-01	   1.7327460e-01	
   3.4430000e+01	  -6.4967983e-01	  -6.8580751e-01	   1.5925445e-01	
   3.4485000e+01	  -6.5418979e-01	  -6.9620157e-01	   1.4580034e-01	
   3.4540000e+01	  -6.5796400e-01	  -7.0596230e-01	   1.3320902e-01	
   3.4595000e+01	  -6.6097046e-01	  -7.1487887e-01	   1.2171113e-01	
   3.4650000e+01	  -6.6322217e-01	  -7.2279456e-01	   1.1146275e-01	
   3.4705000e+01	  -6.6477169e-01	  -7.2960873e-01	   1.0254679e-01	
   3.4760000e+01	  -6.6569869e-01	  -7.3527074e-01	   9.4984340e-02	
   3.4815000e+01	  -6.6609382e-01	  -7.3976829e-01	   8.8751744e-02	
   3.4870000e+01	  -6.6604284e-01	  -7.4311347e-01	   8.3798215e-02	
   3.4925000e+01	  -6.6561375e-01	  -7.4532815e-01	   8.0060948e-02	
   3.4980000e+01	  -6.6484803e-01	  -7.4643196e-01	   7.7476106e-02	
   3.5035000e+01	  -6.6375669e-01	  -7.4643597e-01	   7.5984021e-02	
   3.5090000e+01	  -6.6232122e-01	  -7.4534374e-01	   7.5528575e-02	
   3.5145000e+01	  -6.6049750e-01	  -7.4315726e-01	   7.6053544e-02	
   3.5200000e+01	  -6.5822165e-01	  -7.3988500e-01	   7.7498535e-02	
   3.5255000e+01	  -6.5541677e-01	  -7.3554912e-01	   7.9794673e-02	
   3.5310000e+01	  -6.5199981e-01	  -7.3018913e-01	   8.2859480e-02	
   3.5365000e+01	  -6.4788681e-01	  -7.2386050e-01	   8.6592007e-02	
   3.5420000e+01	  -6.4299565e-01	  -7.1662891e-01	   9.0869940e-02	
   3.5475000e+01	  -6.3724576e-01	  -7.0856236e-01	   9.5549694e-02	
   3.5530000e+01	  -6.3055447e-01	  -6.9972193e-01	   1.0047073e-01	
   3.5585000e+01	  -6.2283052e-01	  -6.9015079e-01	   1.0546580e-01	
   3.5640000e+01	  -6.1396681e-01	  -6.7986300e-01	   1.1037599e-01	
   3.5695000e+01	  -6.0383568e-01	  -6.6883581e-01	   1.1506618e-01	
   3.5750000e+01	  -5.9228887e-01	  -6.5700911e-01	   1.1943641e-01	
   3.5805000e+01	  -5.7916327e-01	  -6.4429179e-01	   1.2342786e-01	
   3.5860000e+01	  -5.6429201e-01	  -6.3057281e-01	   1.2702413e-01	
   3.5915000e+01	  -5.4751916e-01	  -6.1573521e-01	   1.3024864e-01	
   3.5970000e+01	  -5.2871652e-01	  -5.9967212e-01	   1.3315819e-01	
   3.6025000e+01	  -5.0780019e-01	  -5.8230322e-01	   1.3583193e-01	
   3.6080000e+01	  -4.8474530e-01	  -5.6358951e-01	   1.3835663e-01	
   3.6135000e+01	  -4.5959752e-01	  -5.4354511e-01	   1.4081083e-01	
   3.6190000e+01	  -4.3247991e-01	  -5.2224449e-01	   1.4325153e-01	
   3.6245000e+01	  -4.0359302e-01	  -4.9982311e-01	   1.4570667e-01	
   3.6300000e+01	  -3.7320578e-01	  -4.7646956e-01	   1.4817479e-01	
   3.6355000e+01	  -3.4163703e-01	  -4.5241056e-01	   1.5063259e-01	
   3.6410000e+01	  -3.0923093e-01	  -4.2789257e-01	   1.5304780e-01	
   3.6465000e+01	  -2.7633128e-01	  -4.0316355e-01	   1.5539358e-01	
   3.6520000e+01	  -2.4325994e-01	  -3.7845714e-01	   1.5766001e-01	
   3.6575000e+01	  -2.1030222e-01	  -3.5398061e-01	   1.5985967e-01	
   3.6630000e+01	  -1.7769944e-01	  -3.2990783e-01	   1.6202658e-01	
   3.6685000e+01	  -1.4564752e-01	  -3.0637720e-01	   1.6421049e-01	
   3.6740000e+01	  -1.1429950e-01	  -2.8349409e-01	   1.6646993e-01	
   3.6795000e+01	  -8.3771592e-02	  -2.6133775e-01	   1.6886504e-01	
   3.6850000e+01	  -5.4152858e-02	  -2.3997202e-01	   1.7144933e-01	
   3.6905000e+01	  -2.5517796e-02	  -2.1945741e-01	   1.7425950e-01	
   3.6960000e+01	   2.0606187e-03	  -1.9986203e-01	   1.7730389e-01	
   3.7015000e+01	   2.8500424e-02	  -1.8126889e-01	   1.8055255e-01	
   3.7070000e+01	   5.3705830e-02	  -1.6377759e-01	   1.8393385e-01	
   3.7125000e+01	   7.7570130e-02	  -1.4749875e-01	   1.8734194e-01	
   3.7180000e+01	   9.9985557e-02	  -1.3254243e-01	   1.9065460e-01	
   3.7235000e+01	   1.2085641e-01	  -1.1900473e-01	   1.9375599e-01	
   3.7290000e+01	   1.4011160e-01	  -1.0695684e-01	   1.9655701e-01	
   3.7345000e+01	   1.5771436e-01	  -9.6438365e-02	   1.9900823e-01	
   3.7400000e+01	   1.7366868e-01	  -8.7454115e-02	   2.0110356e-01	
   3.7455000e+01	   1.8802174e-01	  -7.9971974e-02	   2.0287620e-01	
   3.7510000e+01	   2.0086218e-01	  -7.3921271e-02	   2.0438906e-01	
   3.7565000e+01	   2.1231360e-01	  -6.9193063e-02	   2.0572052e-01	
   3.7620000e+01	   2.2252387e-01	  -6.5644355e-02	   2.0694706e-01	
   3.7675000e+01	   2.3165117e-01	  -6.3107137e-02	   2.0812538e-01	
   3.7730000e+01	   2.3984863e-01	  -6.1401095e-02	   2.0927790e-01	
   3.7785000e+01	   2.4725036e-01	  -6.0346997e-02	   2.1038530e-01	
   3.7840000e+01	   2.5396132e-01	  -5.9777621e-02	   2.1138757e-01	
   3.7895000e+01	   2.6005266e-01	  -5.9544309e-02	   2.1219226e-01	
   3.7950000e+01	   2.6556344e-01	  -5.9518522e-02	   2.1268763e-01	
   3.8005000e+01	   2.7050846e-01	  -5.9589239e-02	   2.1275860e-01	
   3.8060000e+01	   2.7488967e-01	  -5.9658576e-02	   2.1230315e-01	
   3.8115000e+01	   2.7870804e-01	  -5.9637981e-02	   2.1124615e-01	
   3.8170000e+01	   2.8197349e-01	  -5.9445923e-02	   2.0954773e-01	
   3.8225000e+01	   2.8471215e-01	  -5.9006718e-02	   2.0720524e-01	
   3.8280000e+01	   2.8697075e-01	  -5.8250241e-02	   2.0424885e-01	
   3.8335000e+01	   2.8881709e-01	  -5.7112858e-02	   2.0073167e-01	
   3.8390000e+01	   2.9033624e-01	  -5.5539892e-02	   1.9671611e-01	
   3.8445000e+01	   2.9162293e-01	  -5.3489220e-02	   1.9225984e-01	
   3.8500000e+01	   2.9277177e-01	  -5.0935194e-02	   1.8740457e-01	
   3.8555000e+01	   2.9386729e-01	  -4.7871975e-02	   1.8216949e-01	
   3.8610000e+01	   2.9497563e-01	  -4.4315512e-02	   1.7654952e-01	
   3.8665000e+01	   2.9613926e-01	  -4.0303381e-02	   1.7051874e-01	
   3.8720000e+01	   2.9737647e-01	  -3.5891662e-02	   1.6403936e-01	
   3.8775000e+01	   2.9868632e-01	  -3.1148702e-02	   1.5707608e-01	
   3.8830000e+01	   3.0005755e-01	  -2.6147186e-02	   1.4961279e-01	
   3.8885000e+01	   3.0147770e-01	  -2.0956617e-02	   1.4166675e-01	
   3.8940000e+01	   3.0293967e-01	  -1.5637344e-02	   1.3329600e-01	
   3.8995000e+01	   3.0444460e-01	  -1.0236463e-02	   1.2459834e-01	
   3.9050000e+01	   3.0600125e-01	  -4.7862541e-03	   1.1570290e-01	
   3.9105000e+01	   3.0762299e-01	   6.9384412e-04	   1.0675693e-01	
   3.9160000e+01	   3.0932341e-01	   6.1916719e-03	   9.7911156e-02	
   3.9215000e+01	   3.1111189e-01	   1.1694411e-02	   8.9305269e-02	
   3.9270000e+01	   3.1298886e-01	   1.7180342e-02	   8.1054712e-02	
   3.9325000e+01	   3.1494151e-01	   2.2613023e-02	   7.3240096e-02	
   3.9380000e+01	   3.1694111e-01	   2.7940110e-02	   6.5902339e-02	
   3.9435000e+01	   3.1894363e-01	   3.3096924e-02	   5.9046425e-02	
   3.9490000e+01	   3.2089446e-01	   3.8013326e-02	   5.2653842e-02	
   3.9545000e+01	   3.2273753e-01	   4.2622338e-02	   4.6699466e-02	
   3.9600000e+01	   3.2442662e-01	   4.6868940e-02	   4.1166610e-02	
   3.9655000e+01	   3.2593616e-01	   5.0717487e-02	   3.6055239e-02	
   3.9710000e+01	   3.2726848e-01	   5.4157028e-02	   3.1381612e-02	
   3.9765000e+01	   3.2845648e-01	   5.7204640e-02	   2.7170650e-02	
   3.9820000e+01	   3.2956157e-01	   5.9906986e-02	   2.3444073e-02	
   3.9875000e+01	   3.3066728e-01	   6.2339816e-02	   2.0207465e-02	
   3.9930000e+01	   3.3186966e-01	   6.4604849e-02	   1.7438761e-02	
   3.9985000e+01	   3.3326674e-01	   6.6823648e-02	   1.5080355e-02	
   4.0040000e+01	   3.3494907e-01	   6.9129536e-02	   1.3036272e-02	
   4.0095000e+01	   3.3699203e-01	   7.1659657e-02	   1.1174699e-02	
   4.0150000e+01	   3.3944939e-01	   7.4548355e-02	   9.3358199e-03	
   4.0205000e+01	   3.4234867e-01	   7.7921726e-02	   7.3456040e-03	
   4.0260000e+01	   3.4569062e-01	   8.1893547e-02	   5.0359663e-03	
   4.0315000e+01	   3.4945365e-01	   8.6563380e-02	   2.2687463e-03	
   4.0370000e+01	   3.5360118e-01	   9.2017026e-02	  -1.0424545e-03	
   4.0425000e+01	   3.5808931e-01	   9.8328753e-02	  -4.9179460e-03	
   4.0480000e+01	   3.6287381e-01	   1.0556451e-01	  -9.3068868e-03	
   4.0535000e+01	   3.6791627e-01	   1.1378480e-01	  -1.4091544e-02	
   4.0590000e+01	   3.7318852e-01	   1.2304543e-01	  -1.9100546e-02	
   4.0645000e+01	   3.7867458e-01	   1.3339503e-01	  -2.4128801e-02	
   4.0700000e+01	   3.8436984e-01	   1.4486991e-01	  -2.8960364e-02	
   4.0755000e+01	   3.9027762e-01	   1.5748701e-01	  -3.3391302e-02	
   4.0810000e+01	   3.9640268e-01	   1.7123544e-01	  -3.7249755e-02	
   4.0865000e+01	   4.0274309e-01	   1.8606847e-01	  -4.0409469e-02	
   4.0920000e+01	   4.0928239e-01	   2.0189893e-01	  -4.2794159e-02	
   4.0975000e+01	   4.1598383e-01	   2.1859892e-01	  -4.4372899e-02	
   4.1030000e+01	   4.2278765e-01	   2.3600400e-01	  -4.5148800e-02	
   4.1085000e+01	   4.2961252e-01	   2.5392238e-01	  -4.5143199e-02	
   4.1140000e+01	   4.3636181e-01	   2.7214853e-01	  -4.4377140e-02	
   4.1195000e+01	   4.4293354e-01	   2.9047720e-01	  -4.2853464e-02	
   4.1250000e+01	   4.4923111e-01	   3.0871378e-01	  -4.0544781e-02	
   4.1305000e+01	   4.5517250e-01	   3.2668005e-01	  -3.7391340e-02	
   4.1360000e+01	   4.6069636e-01	   3.4421684e-01	  -3.3308872e-02	
   4.1415000e+01	   4.6576407e-01	   3.6118504e-01	  -2.8203570e-02	
   4.1470000e+01	   4.7035700e-01	   3.7746473e-01	  -2.1990688e-02	
   4.1525000e+01	   4.7446942e-01	   3.9295216e-01	  -1.4613352e-02	
   4.1580000e+01	   4.7809868e-01	   4.0755485e-01	  -6.0579854e-03	
   4.1635000e+01	   4.8123523e-01	   4.2118585e-01	   3.6366558e-03	
   4.1690000e+01	   4.8385420e-01	   4.3375831e-01	   1.4378074e-02	
   4.1745000e+01	   4.8591006e-01	   4.4518188e-01	   2.6026292e-02	
   4.1800000e+01	   4.8733578e-01	   4.5536257e-01	   3.8407558e-02	
   4.1855000e+01	   4.8804718e-01	   4.6420700e-01	   5.1334759e-02	
   4.1910000e+01	   4.8795229e-01	   4.7163035e-01	   6.4632362e-02	
   4.1965000e+01	   4.8696431e-01	   4.7756701e-01	   7.8161642e-02	
   4.2020000e+01	   4.8501590e-01	   4.8198119e-01	   9.1840408e-02	
   4.2075000e+01	   4.8207211e-01	   4.8487419e-01	   1.0565161e-01	
   4.2130000e+01	   4.7813918e-01	   4.8628678e-01	   1.1963787e-01	
   4.2185000e+01	   4.7326807e-01	   4.8629833e-01	   1.3388346e-01	
   4.2240000e+01	   4.6755279e-01	   4.8502459e-01	   1.4848900e-01	
   4.2295000e+01	   4.6112392e-01	   4.8261401e-01	   1.6354431e-01	
   4.2350000e+01	   4.5413800e-01	   4.7924116e-01	   1.7910321e-01	
   4.2405000e+01	   4.4676431e-01	   4.7509719e-01	   1.9516241e-01	
   4.2460000e+01	   4.3917119e-01	   4.7037883e-01	   2.1164746e-01	
   4.2515000e+01	   4.3151306e-01	   4.6527728e-01	   2.2840830e-01	
   4.2570000e+01	   4.2391835e-01	   4.5996717e-01	   2.4522525e-01	
   4.2625000e+01	   4.1647933e-01	   4.5459652e-01	   2.6182424e-01	
   4.2680000e+01	   4.0924552e-01	   4.4927955e-01	   2.7789914e-01	
   4.2735000e+01	   4.0222280e-01	   4.4409419e-01	   2.9313893e-01	
   4.2790000e+01	   3.9537927e-01	   4.3908511e-01	   3.0725790e-01	
   4.2845000e+01	   3.8865745e-01	   4.3427172e-01	   3.2002638e-01	
   4.2900000e+01	   3.8199018e-01	   4.2965915e-01	   3.3129775e-01	
   4.2955000e+01	   3.7531575e-01	   4.2524919e-01	   3.4102545e-01	
   4.3010000e+01	   3.6858881e-01	   4.2104833e-01	   3.4926542e-01	
   4.3065000e+01	   3.6178553e-01	   4.1707103e-01	   3.5616326e-01	
   4.3120000e+01	   3.5490362e-01	   4.1333885e-01	   3.6193052e-01	
   4.3175000e+01	   3.4795833e-01	   4.0987758e-01	   3.6681548e-01	
   4.3230000e+01	   3.4097558e-01	   4.0671387e-01	   3.7107279e-01	
   4.3285000e+01	   3.3398382e-01	   4.0387095e-01	   3.7493633e-01	
   4.3340000e+01	   3.2700581e-01	   4.0136313e-01	   3.7859910e-01	
   4.3395000e+01	   3.2005167e-01	   3.9918931e-01	   3.8220235e-01	
   4.3450000e+01	   3.1311448e-01	   3.9732705e-01	   3.8583293e-01	
   4.3505000e+01	   3.0616945e-01	   3.9572929e-01	   3.8952824e-01	
   4.3560000e+01	   2.9917834e-01	   3.9432723e-01	   3.9328790e-01	
   4.3615000e+01	   2.9209916e-01	   3.9304050e-01	   3.9709057e-01	
   4.3670000e+01	   2.8489914e-01	   3.9179219e-01	   4.0091309e-01	
   4.3725000e+01	   2.7756671e-01	   3.9052382e-01	   4.0474748e-01	
   4.3780000e+01	   2.7011920e-01	   3.8920575e-01	   4.0861189e-01	
   4.3835000e+01	   2.6260512e-01	   3.8784091e-01	   4.1255254e-01	
   4.3890000e+01	   2.5510122e-01	   3.8646194e-01	   4.1663651e-01	
   4.3945000e+01	   2.4770512e-01	   3.8512369e-01	   4.2093752e-01	
   4.4000000e+01	   2.4052483e-01	   3.8389312e-01	   4.2551849e-01	
   4.4055000e+01	   2.3366663e-01	   3.8283790e-01	   4.3041453e-01	
   4.4110000e+01	   2.2722248e-01	   3.8201421e-01	   4.3561875e-01	
   4.4165000e+01	   2.2125829e-01	   3.8145524e-01	   4.4107250e-01	
   4.4220000e+01	   2.1580472e-01	   3.8116247e-01	   4.4666183e-01	
   4.4275000e+01	   2.1085262e-01	   3.8110182e-01	   4.5222234e-01	
   4.4330000e+01	   2.0635494e-01	   3.8120494e-01	   4.5755290e-01	
   4.4385000e+01	   2.0223537e-01	   3.8137529e-01	   4.6243528e-01	
   4.4440000e+01	   1.9840251e-01	   3.8149871e-01	   4.6665564e-01	
   4.4495000e+01	   1.9476637e-01	   3.8145653e-01	   4.7002407e-01	
   4.4550000e+01	   1.9125319e-01	   3.8113803e-01	   4.7238931e-01	
   4.4605000e+01	   1.8781521e-01	   3.8044972e-01	   4.7364771e-01	
   4.4660000e+01	   1.8443505e-01	   3.7932107e-01	   4.7374672e-01	
   4.4715000e+01	   1.8112472e-01	   3.7770681e-01	   4.7268319e-01	
   4.4770000e+01	   1.7791989e-01	   3.7558509e-01	   4.7049602e-01	
   4.4825000e+01	   1.7486962e-01	   3.7295073e-01	   4.6725423e-01	
   4.4880000e+01	   1.7202384e-01	   3.6980530e-01	   4.6304314e-01	
   4.4935000e+01	   1.6942058e-01	   3.6614636e-01	   4.5795236e-01	
   4.4990000e+01	   1.6707529e-01	   3.6195761e-01	   4.5206671e-01	
   4.5045000e+01	   1.6497398e-01	   3.5720147e-01	   4.4546156e-01	
   4.5100000e+01	   1.6307205e-01	   3.5181714e-01	   4.3820454e-01	
   4.5155000e+01	   1.6129946e-01	   3.4572607e-01	   4.3036530e-01	
   4.5210000e+01	   1.5957150e-01	   3.3884365e-01	   4.2203063e-01	
   4.5265000e+01	   1.5780232e-01	   3.3109332e-01	   4.1331880e-01	
   4.5320000e+01	   1.5591801e-01	   3.2242057e-01	   4.0438882e-01	
   4.5375000e+01	   1.5386643e-01	   3.1280594e-01	   3.9544280e-01	
   4.5430000e+01	   1.5162266e-01	   3.0227524e-01	   3.8672140e-01	
   4.5485000e+01	   1.4919017e-01	   2.9090497e-01	   3.7849163e-01	
   4.5540000e+01	   1.4659776e-01	   2.7882183e-01	   3.7102740e-01	
   4.5595000e+01	   1.4389294e-01	   2.6619728e-01	   3.6458526e-01	
   4.5650000e+01	   1.4113187e-01	   2.5323802e-01	   3.5937871e-01	
   4.5705000e+01	   1.3836661e-01	   2.4017282e-01	   3.5555433e-01	
   4.5760000e+01	   1.3563102e-01	   2.2723605e-01	   3.5317397e-01	
   4.5815000e+01	   1.3292838e-01	   2.1465005e-01	   3.5220713e-01	
   4.5870000e+01	   1.3022357e-01	   2.0260853e-01	   3.5253554e-01	
   4.5925000e+01	   1.2744163e-01	   1.9126333e-01	   3.5396879e-01	
   4.5980000e+01	   1.2447383e-01	   1.8071714e-01	   3.5626821e-01	
   4.6035000e+01	   1.2119069e-01	   1.7102363e-01	   3.5917618e-01	
   4.6090000e+01	   1.1745938e-01	   1.6219425e-01	   3.6244618e-01	
   4.6145000e+01	   1.1316107e-01	   1.5420849e-01	   3.6586782e-01	
   4.6200000e+01	   1.0820527e-01	   1.4702510e-01	   3.6928316e-01	
   4.6255000e+01	   1.0253920e-01	   1.4059231e-01	   3.7259407e-01	
   4.6310000e+01	   9.6151176e-02	   1.3485547e-01	   3.7576105e-01	
   4.6365000e+01	   8.9067500e-02	   1.2976068e-01	   3.7879308e-01	
   4.6420000e+01	   8.1343708e-02	   1.2525403e-01	   3.8172993e-01	
   4.6475000e+01	   7.3052281e-02	   1.2127668e-01	   3.8462189e-01	
   4.6530000e+01	   6.4269086e-02	   1.1775626e-01	   3.8751251e-01	
   4.6585000e+01	   5.5060472e-02	   1.1459689e-01	   3.9042610e-01	
   4.6640000e+01	   4.5472872e-02	   1.1167184e-01	   3.9336030e-01	
   4.6695000e+01	   3.5526744e-02	   1.0882333e-01	   3.9628344e-01	
   4.6750000e+01	   2.5216102e-02	   1.0587027e-01	   3.9913696e-01	
   4.6805000e+01	   1.4513755e-02	   1.0262283e-01	   4.0184288e-01	
   4.6860000e+01	   3.3814419e-03	   9.8901363e-02	   4.0431670e-01	
   4.6915000e+01	  -8.2166780e-03	   9.4556477e-02	   4.0648473e-01	
   4.6970000e+01	  -2.0299548e-02	   8.9486436e-02	   4.0830121e-01	
   4.7025000e+01	  -3.2856692e-02	   8.3648933e-02	   4.0976067e-01	
   4.7080000e+01	  -4.5840004e-02	   7.7066710e-02	   4.1090296e-01	
   4.7135000e+01	  -5.9160909e-02	   6.9827213e-02	   4.1181222e-01	
   4.7190000e+01	  -7.2693066e-02	   6.2075879e-02	   4.1261058e-01	
   4.7245000e+01	  -8.6280362e-02	   5.4002582e-02	   4.1344676e-01	
   4.7300000e+01	  -9.9749045e-02	   4.5822445e-02	   4.1448097e-01	
   4.7355000e+01	  -1.1292180e-01	   3.7754250e-02	   4.1586918e-01	
   4.7410000e+01	  -1.2563129e-01	   3.0000104e-02	   4.1774962e-01	
   4.7465000e+01	  -1.3773133e-01	   2.2729249e-02	   4.2023200e-01	
   4.7520000e+01	  -1.4910427e-01	   1.6068199e-02	   4.2338991e-01	
   4.7575000e+01	  -1.5966344e-01	   1.0098599e-02	   4.2725849e-01	
   4.7630000e+01	  -1.6934953e-01	   4.8623721e-03	   4.3183864e-01	
   4.7685000e+01	  -1.7812156e-01	   3.7155083e-04	   4.3710656e-01	
   4.7740000e+01	  -1.8594504e-01	  -3.3803294e-03	   4.4302452e-01	
   4.7795000e+01	  -1.9278076e-01	  -6.4070260e-03	   4.4954898e-01	
   4.7850000e+01	  -1.9857689e-01	  -8.7196900e-03	   4.5663370e-01	
   4.7905000e+01	  -2.0326534e-01	  -1.0320095e-02	   4.6422758e-01	
   4.7960000e+01	  -2.0676236e-01	  -1.1198454e-02	   4.7226934e-01	
   4.8015000e+01	  -2.0897282e-01	  -1.1335184e-02	   4.8068174e-01	
   4.8070000e+01	  -2.0979721e-01	  -1.0704655e-02	   4.8936709e-01	
   4.8125000e+01	  -2.0914055e-01	  -9.2796734e-03	   4.9820409e-01	
   4.8180000e+01	  -2.0692157e-01	  -7.0368344e-03	   5.0704710e-01	
   4.8235000e+01	  -2.0308074e-01	  -3.9630192e-03	   5.1573054e-01	
   4.8290000e+01	  -1.9758562e-01	  -6.2534610e-05	   5.2407914e-01	
   4.8345000e+01	  -1.9043282e-01	   4.6365232e-03	   5.3192301e-01	
   4.8400000e+01	  -1.8164624e-01	   1.0078753e-02	   5.3911546e-01	
   4.8455000e+01	  -1.7127190e-01	   1.6182541e-02	   5.4555136e-01	
   4.8510000e+01	  -1.5937045e-01	   2.2845458e-02	   5.5118249e-01	
   4.8565000e+01	  -1.4600920e-01	   2.9951767e-02	   5.5602572e-01	
   4.8620000e+01	  -1.3125556e-01	   3.7380486e-02	   5.6016176e-01	
   4.8675000e+01	  -1.1517235e-01	   4.5013992e-02	   5.6372624e-01	
   4.8730000e+01	  -9.7815094e-02	   5.2746319e-02	   5.6689598e-01	
   4.8785000e+01	  -7.9232198e-02	   6.0488580e-02	   5.6987247e-01	
   4.8840000e+01	  -5.9469084e-02	   6.8170121e-02	   5.7286338e-01	
   4.8895000e+01	  -3.8575673e-02	   7.5737197e-02	   5.7606390e-01	
   4.8950000e+01	  -1.6615340e-02	   8.3151541e-02	   5.7964028e-01	
   4.9005000e+01	   6.3266696e-03	   9.0389161e-02	   5.8371713e-01	
   4.9060000e+01	   3.0137100e-02	   9.7438674e-02	   5.8836922e-01	
   4.9115000e+01	   5.4672793e-02	   1.0429961e-01	   5.9361924e-01	
   4.9170000e+01	   7.9764602e-02	   1.1098254e-01	   5.9944289e-01	
   4.9225000e+01	   1.0522703e-01	   1.1751276e-01	   6.0578187e-01	
   4.9280000e+01	   1.3087148e-01	   1.2393749e-01	   6.1256322e-01	
   4.9335000e+01	   1.5651994e-01	   1.3033361e-01	   6.1971987e-01	
   4.9390000e+01	   1.8201651e-01	   1.3681241e-01	   6.2720659e-01	
   4.9445000e+01	   2.0723527e-01	   1.4351825e-01	   6.3500697e-01	
   4.9500000e+01	   2.3208300e-01	   1.5062130e-01	   6.4313103e-01	
   4.9555000e+01	   2.5649656e-01	   1.5830637e-01	   6.5160579e-01	
   4.9610000e+01	   2.8043579e-01	   1.6675990e-01	   6.6046196e-01	
   4.9665000e+01	   3.0387351e-01	   1.7615579e-01	   6.6971962e-01	
   4.9720000e+01	   3.2678418e-01	   1.8663985e-01	   6.7937433e-01	
   4.9775000e+01	   3.4913300e-01	   1.9831415e-01	   6.8938592e-01	
   4.9830000e+01	   3.7086712e-01	   2.1122384e-01	   6.9967177e-01	
   4.9885000e+01	   3.9191008e-01	   2.2534929e-01	   7.1010605e-01	
   4.9940000e+01	   4.1216052e-01	   2.4060536e-01	   7.2052560e-01	
   4.9995000e+01	   4.3149717e-01	   2.5684907e-01	   7.3074403e-01	
   5.0050000e+01	   4.4979055e-01	   2.7389535e-01	   7.4057383e-01	
   5.0105000e+01	   4.6691911e-01	   2.9153766e-01	   7.4985104e-01	
   5.0160000e+01	   4.8278506e-01	   3.0956863e-01	   7.5845398e-01	
   5.0215000e+01	   4.9732577e-01	   3.2779684e-01	   7.6631028e-01	
   5.0270000e+01	   5.1051935e-01	   3.4605790e-01	   7.7339168e-01	
   5.0325000e+01	   5.2238490e-01	   3.6421905e-01	   7.7969986e-01	
   5.0380000e+01	   5.3297865e-01	   3.8217782e-01	   7.8524748e-01	
   5.0435000e+01	   5.4238722e-01	   3.9985607e-01	   7.9003831e-01	
   5.0490000e+01	   5.5071937e-01	   4.1719124e-01	   7.9405031e-01	
   5.0545000e+01	   5.5809644e-01	   4.3412584e-01	   7.9722529e-01	
   5.0600000e+01	   5.6464143e-01	   4.5059665e-01	   7.9946716e-01	
   5.0655000e+01	   5.7046729e-01	   4.6652525e-01	   8.0064925e-01	
   5.0710000e+01	   5.7566691e-01	   4.8181312e-01	   8.0063043e-01	
   5.0765000e+01	   5.8030799e-01	   4.9634316e-01	   7.9927865e-01	
   5.0820000e+01	   5.8443472e-01	   5.0998755e-01	   7.9649769e-01	
   5.0875000e+01	   5.8807551e-01	   5.2261971e-01	   7.9225184e-01	
   5.0930000e+01	   5.9125515e-01	   5.3412804e-01	   7.8658338e-01	
   5.0985000e+01	   5.9400813e-01	   5.4442878e-01	   7.7961943e-01	
   5.1040000e+01	   5.9638958e-01	   5.5347611e-01	   7.7156678e-01	
   5.1095000e+01	   5.9848122e-01	   5.6126861e-01	   7.6269589e-01	
   5.1150000e+01	   6.0039143e-01	   5.6785147e-01	   7.5331687e-01	
   5.1205000e+01	   6.0224943e-01	   5.7331392e-01	   7.4375051e-01	
   5.1260000e+01	   6.0419465e-01	   5.7778185e-01	   7.3429831e-01	
   5.1315000e+01	   6.0636279e-01	   5.8140615e-01	   7.2521644e-01	
   5.1370000e+01	   6.0887107e-01	   5.8434768e-01	   7.1669829e-01	
   5.1425000e+01	   6.1180443e-01	   5.8675961e-01	   7.0886864e-01	
   5.1480000e+01	   6.1520461e-01	   5.8876914e-01	   7.0178906e-01	
   5.1535000e+01	   6.1906463e-01	   5.9046298e-01	   6.9547169e-01	
   5.1590000e+01	   6.2333095e-01	   5.9188053e-01	   6.8989864e-01	
   5.1645000e+01	   6.2791325e-01	   5.9301580e-01	   6.8504350e-01	
   5.1700000e+01	   6.3269917e-01	   5.9382602e-01	   6.8089075e-01	
   5.1755000e+01	   6.3757008e-01	   5.9424482e-01	   6.7744872e-01	
   5.1810000e+01	   6.4241521e-01	   5.9419796e-01	   6.7475264e-01	
   5.1865000e+01	   6.4714261e-01	   5.9361907e-01	   6.7285765e-01	
   5.1920000e+01	   6.5168570e-01	   5.9246197e-01	   6.7182499e-01	
   5.1975000e+01	   6.5600517e-01	   5.9070769e-01	   6.7170659e-01	
   5.2030000e+01	   6.6008674e-01	   5.8836603e-01	   6.7253218e-01	
   5.2085000e+01	   6.6393535e-01	   5.8547300e-01	   6.7429971e-01	
   5.2140000e+01	   6.6756673e-01	   5.8208411e-01	   6.7696895e-01	
   5.2195000e+01	   6.7099743e-01	   5.7826372e-01	   6.8045791e-01	
   5.2250000e+01	   6.7423560e-01	   5.7407356e-01	   6.8464354e-01	
   5.2305000e+01	   6.7727515e-01	   5.6956565e-01	   6.8936806e-01	
   5.2360000e+01	   6.8009504e-01	   5.6478255e-01	   6.9445146e-01	
   5.2415000e+01	   6.8266413e-01	   5.5976388e-01	   6.9970902e-01	
   5.2470000e+01	   6.8495039e-01	   5.5455565e-01	   7.0496967e-01	
   5.2525000e+01	   6.8693201e-01	   5.4921904e-01	   7.1008975e-01	
   5.2580000e+01	   6.8860723e-01	   5.4383602e-01	   7.1495935e-01	
   5.2635000e+01	   6.9000050e-01	   5.3851122e-01	   7.1950080e-01	
   5.2690000e+01	   6.9116382e-01	   5.3336980e-01	   7.2366033e-01	
   5.2745000e+01	   6.9217335e-01	   5.2855027e-01	   7.2739340e-01	
   5.2800000e+01	   6.9312170e-01	   5.2419235e-01	   7.3064629e-01	
   5.2855000e+01	   6.9410643e-01	   5.2042212e-01	   7.3333857e-01	
   5.2910000e+01	   6.9521616e-01	   5.1733699e-01	   7.3535266e-01	
   5.2965000e+01	   6.9651576e-01	   5.1499202e-01	   7.3653332e-01	
   5.3020000e+01	   6.9803253e-01	   5.1338949e-01	   7.3669616e-01	
   5.3075000e+01	   6.9974599e-01	   5.1247431e-01	   7.3564262e-01	
   5.3130000e+01	   7.0158443e-01	   5.1213719e-01	   7.3317994e-01	
   5.3185000e+01	   7.0343020e-01	   5.1222524e-01	   7.2914565e-01	
   5.3240000e+01	   7.0513339e-01	   5.1255839e-01	   7.2343367e-01	
   5.3295000e+01	   7.0653080e-01	   5.1294888e-01	   7.1601646e-01	
   5.3350000e+01	   7.0746605e-01	   5.1322119e-01	   7.0695692e-01	
   5.3405000e+01	   7.0780701e-01	   5.1322898e-01	   6.9640585e-01	
   5.3460000e+01	   7.0745750e-01	   5.1286591e-01	   6.8458528e-01	
   5.3515000e+01	   7.0636265e-01	   5.1206932e-01	   6.7176214e-01	
   5.3570000e+01	   7.0450849e-01	   5.1081725e-01	   6.5822000e-01	
   5.3625000e+01	   7.0191641e-01	   5.0912029e-01	   6.4423522e-01	
   5.3680000e+01	   6.9863344e-01	   5.0700971e-01	   6.3005985e-01	
   5.3735000e+01	   6.9471956e-01	   5.0452374e-01	   6.1590973e-01	
   5.3790000e+01	   6.9023412e-01	   5.0169418e-01	   6.0195568e-01	
   5.3845000e+01	   6.8522303e-01	   4.9853564e-01	   5.8831736e-01	
   5.3900000e+01	   6.7970814e-01	   4.9503895e-01	   5.7506106e-01	
   5.3955000e+01	   6.7367972e-01	   4.9116845e-01	   5.6220286e-01	
   5.4010000e+01	   6.6709375e-01	   4.8686344e-01	   5.4971837e-01	
   5.4065000e+01	   6.5987544e-01	   4.8204438e-01	   5.3755905e-01	
   5.4120000e+01	   6.5192955e-01	   4.7662421e-01	   5.2567285e-01	
   5.4175000e+01	   6.4315564e-01	   4.7052294e-01	   5.1402493e-01	
   5.4230000e+01	   6.3346471e-01	   4.6368240e-01	   5.0261258e-01	
   5.4285000e+01	   6.2279414e-01	   4.5607783e-01	   4.9146962e-01	
   5.4340000e+01	   6.1111851e-01	   4.4772347e-01	   4.8065885e-01	
   5.4395000e+01	   5.9845498e-01	   4.3867168e-01	   4.7025512e-01	
   5.4450000e+01	   5.8486336e-01	   4.2900685e-01	   4.6032363e-01	
   5.4505000e+01	   5.7044157e-01	   4.1883614e-01	   4.5089842e-01	
   5.4560000e+01	   5.5531736e-01	   4.0827758e-01	   4.4196510e-01	
   5.4615000e+01	   5.3963696e-01	   3.9744600e-01	   4.3345068e-01	
   5.4670000e+01	   5.2355177e-01	   3.8643872e-01	   4.2522240e-01	
   5.4725000e+01	   5.0720467e-01	   3.7532384e-01	   4.1709568e-01	
   5.4780000e+01	   4.9071754e-01	   3.6413295e-01	   4.0884875e-01	
   5.4835000e+01	   4.7418101e-01	   3.5285871e-01	   4.0024135e-01	
   5.4890000e+01	   4.5764809e-01	   3.4145807e-01	   3.9103619e-01	
   5.4945000e+01	   4.4113390e-01	   3.2986192e-01	   3.8102313e-01	
   5.5000000e+01	   4.2462253e-01	   3.1798996e-01	   3.7004478e-01	
   5.5055000e+01	   4.0807979e-01	   3.0576738e-01	   3.5801964e-01	
   5.5110000e+01	   3.9146835e-01	   2.9313960e-01	   3.4495808e-01	
   5.5165000e+01	   3.7476217e-01	   2.8008292e-01	   3.3096633e-01	
   5.5220000e+01	   3.5795797e-01	   2.6661063e-01	   3.1623633e-01	
   5.5275000e+01	   3.4108267e-01	   2.5277514e-01	   3.0102328e-01	
   5.5330000e+01	   3.2419679e-01	   2.3866698e-01	   2.8561732e-01	
   5.5385000e+01	   3.0739413e-01	   2.2441115e-01	   2.7031473e-01	
   5.5440000e+01	   2.9079760e-01	   2.1016023e-01	   2.5539120e-01	
   5.5495000e+01	   2.7455099e-01	   1.9608440e-01	   2.4107858e-01	
   5.5550000e+01	   2.5880739e-01	   1.8235910e-01	   2.2754641e-01	
   5.5605000e+01	   2.4371510e-01	   1.6915143e-01	   2.1488962e-01	
   5.5660000e+01	   2.2940218e-01	   1.5660614e-01	   2.0312290e-01	
   5.5715000e+01	   2.1596124e-01	   1.4483176e-01	   1.9218248e-01	
   5.5770000e+01	   2.0343745e-01	   1.3388832e-01	   1.8193660e-01	
   5.5825000e+01	   1.9182284e-01	   1.2378059e-01	   1.7220507e-01	
   5.5880000e+01	   1.8105893e-01	   1.1446090e-01	   1.6278650e-01	
   5.5935000e+01	   1.7104672e-01	   1.0584203e-01	   1.5349042e-01	
   5.5990000e+01	   1.6166163e-01	   9.7815577e-02	   1.4416895e-01	
   5.6045000e+01	   1.5277035e-01	   9.0270512e-02	   1.3474116e-01	
   5.6100000e+01	   1.4424684e-01	   8.3108148e-02	   1.2520531e-01	
   5.6155000e+01	   1.3598517e-01	   7.6251684e-02	   1.1563705e-01	
   5.6210000e+01	   1.2790726e-01	   6.9649843e-02	   1.0617475e-01	
   5.6265000e+01	   1.1996519e-01	   6.3275526e-02	   9.6995494e-02	
   5.6320000e+01	   1.1213847e-01	   5.7121384e-02	   8.8286909e-02	
   5.6375000e+01	   1.0442749e-01	   5.1194049e-02	   8.0219027e-02	
   5.6430000e+01	   9.6844156e-02	   4.5508037e-02	   7.2919185e-02	
   5.6485000e+01	   8.9401433e-02	   4.0079718e-02	   6.6452892e-02	
   5.6540000e+01	   8.2103705e-02	   3.4921420e-02	   6.0813506e-02	
   5.6595000e+01	   7.4939759e-02	   3.0036367e-02	   5.5922316e-02	
   5.6650000e+01	   6.7880092e-02	   2.5416588e-02	   5.1639469e-02	
   5.6705000e+01	   6.0879953e-02	   2.1046177e-02	   4.7784988e-02	
   5.6760000e+01	   5.3887905e-02	   1.6909761e-02	   4.4166372e-02	
   5.6815000e+01	   4.6857322e-02	   1.3002761e-02	   4.0606034e-02	
   5.6870000e+01	   3.9757521e-02	   9.3397047e-03	   3.6961530e-02	
   5.6925000e+01	   3.2582561e-02	   5.9590104e-03	   3.3134431e-02	
   5.6980000e+01	   2.5357031e-02	   2.9240199e-03	   2.9067715e-02	
   5.7035000e+01	   1.8138081e-02	   3.1996827e-04	   2.4734636e-02	
   5.7090000e+01	   1.1012661e-02	  -1.7529424e-03	   2.0123340e-02	
   5.7145000e+01	   4.0895449e-03	  -3.1888862e-03	   1.5221440e-02	
   5.7200000e+01	  -2.5129748e-03	  -3.8865456e-03	   1.0003632e-02	
   5.7255000e+01	  -8.6817426e-03	  -3.7593282e-03	   4.4237858e-03	
   5.7310000e+01	  -1.4323336e-02	  -2.7447668e-03	  -1.5881656e-03	
   5.7365000e+01	  -1.9376334e-02	  -8.1132561e-04	  -8.1239913e-03	
   5.7420000e+01	  -2.3819239e-02	   2.0385623e-03	  -1.5289069e-02	
   5.7475000e+01	  -2.7672390e-02	   5.7690045e-03	  -2.3189374e-02	
   5.7530000e+01	  -3.0992909e-02	   1.0314229e-02	  -3.1915794e-02	
   5.7585000e+01	  -3.3863017e-02	   1.5585209e-02	  -4.1528415e-02	
   5.7640000e+01	  -3.6373615e-02	   2.1478940e-02	  -5.2043880e-02	
   5.7695000e+01	  -3.8606353e-02	   2.7888701e-02	  -6.3429283e-02	
   5.7750000e+01	  -4.0618039e-02	   3.4713167e-02	  -7.5604518e-02	
   5.7805000e+01	  -4.2430360e-02	   4.1863526e-02	  -8.8452240e-02	
   5.7860000e+01	  -4.4025988e-02	   4.9268834e-02	  -1.0183294e-01	
   5.7915000e+01	  -4.5350966e-02	   5.6878791e-02	  -1.1560266e-01	
   5.7970000e+01	  -4.6322583e-02	   6.4662085e-02	  -1.2963075e-01	
   5.8025000e+01	  -4.6840900e-02	   7.2600091e-02	  -1.4381529e-01	
   5.8080000e+01	  -4.6801654e-02	   8.0677851e-02	  -1.5809426e-01	
   5.8135000e+01	  -4.6109346e-02	   8.8874278e-02	  -1.7245138e-01	
   5.8190000e+01	  -4.4690246e-02	   9.7152562e-02	  -1.8691533e-01	
   5.8245000e+01	  -4.2504447e-02	   1.0545178e-01	  -2.0155086e-01	
   5.8300000e+01	  -3.9554380e-02	   1.1368186e-01	  -2.1644108e-01	
   5.8355000e+01	  -3.5886810e-02	   1.2172448e-01	  -2.3166291e-01	
   5.8410000e+01	  -3.1587268e-02	   1.2944054e-01	  -2.4726065e-01	
   5.8465000e+01	  -2.6768788e-02	   1.3668288e-01	  -2.6322397e-01	
   5.8520000e+01	  -2.1558342e-02	   1.4331169e-01	  -2.7947609e-01	
   5.8575000e+01	  -1.6084190e-02	   1.4921008e-01	  -2.9587472e-01	
   5.8630000e+01	  -1.0466259e-02	   1.5429709e-01	  -3.1222499e-01	
   5.8685000e+01	  -4.8100365e-03	   1.5853577e-01	  -3.2830138e-01	
   5.8740000e+01	   7.9663487e-04	   1.6193542e-01	  -3.4387300e-01	
   5.8795000e+01	   6.2840392e-03	   1.6454818e-01	  -3.5872720e-01	
   5.8850000e+01	   1.1597647e-02	   1.6646146e-01	  -3.7268903e-01	
   5.8905000e+01	   1.6691408e-02	   1.6778813e-01	  -3.8563538e-01	
   5.8960000e+01	   2.1518519e-02	   1.6865635e-01	  -3.9750338e-01	
   5.9015000e+01	   2.6022074e-02	   1.6919968e-01	  -4.0829370e-01	
   5.9070000e+01	   3.0127851e-02	   1.6954749e-01	  -4.1807003e-01	
   5.9125000e+01	   3.3741046e-02	   1.6981611e-01	  -4.2695385e-01	
   5.9180000e+01	   3.6748689e-02	   1.7010292e-01	  -4.3511177e-01	
   5.9235000e+01	   3.9029002e-02	   1.7048541e-01	  -4.4273378e-01	
   5.9290000e+01	   4.0467055e-02	   1.7102530e-01	  -4.5000555e-01	
   5.9345000e+01	   4.0973687e-02	   1.7177564e-01	  -4.5708148e-01	
   5.9400000e+01	   4.0503685e-02	   1.7278923e-01	  -4.6406568e-01	
   5.9455000e+01	   3.9069903e-02	   1.7412530e-01	  -4.7100489e-01	
   5.9510000e+01	   3.6751280e-02	   1.7585184e-01	  -4.7789319e-01	
   5.9565000e+01	   3.3693906e-02	   1.7804247e-01	  -4.8468460e-01	
   5.9620000e+01	   3.0105629e-02	   1.8076899e-01	  -4.9130855e-01	
   5.9675000e+01	   2.6245687e-02	   1.8409134e-01	  -4.9768455e-01	
   5.9730000e+01	   2.2410728e-02	   1.8804678e-01	  -5.0373503e-01	
   5.9785000e+01	   1.8917953e-02	   1.9264043e-01	  -5.0939523e-01	
   5.9840000e+01	   1.6086612e-02	   1.9783944e-01	  -5.1461761e-01	
   5.9895000e+01	   1.4220122e-02	   2.0357271e-01	  -5.1936905e-01	
   5.9950000e+01	   1.3590817e-02	   2.0973638e-01	  -5.2362245e-01	
   6.0005000e+01	   1.4428199e-02	   2.1620386e-01	  -5.2734546e-01	
   6.0060000e+01	   1.6911559e-02	   2.2283895e-01	  -5.3048860e-01	
   6.0115000e+01	   2.1167856e-02	   2.2951045e-01	  -5.3297455e-01	
   6.0170000e+01	   2.7274451e-02	   2.3610536e-01	  -5.3469146e-01	
   6.0225000e+01	   3.5264964e-02	   2.4253817e-01	  -5.3549290e-01	
   6.0280000e+01	   4.5137004e-02	   2.4875641e-01	  -5.3520499e-01	
   6.0335000e+01	   5.6860851e-02	   2.5474373e-01	  -5.3363922e-01	
   6.0390000e+01	   7.0387548e-02	   2.6052128e-01	  -5.3060969e-01	
   6.0445000e+01	   8.5654329e-02	   2.6614631e-01	  -5.2595351e-01	
   6.0500000e+01	   1.0258623e-01	   2.7170632e-01	  -5.1955125e-01	
   6.0555000e+01	   1.2109407e-01	   2.7730750e-01	  -5.1134383e-01	
   6.0610000e+01	   1.4106971e-01	   2.8305886e-01	  -5.0134284e-01	
   6.0665000e+01	   1.6238038e-01	   2.8905529e-01	  -4.8963373e-01	
   6.0720000e+01	   1.8486363e-01	   2.9536265e-01	  -4.7637180e-01	
   6.0775000e+01	   2.0832410e-01	   3.0200679e-01	  -4.6177265e-01	
   6.0830000e+01	   2.3253235e-01	   3.0896602e-01	  -4.4609976e-01	
   6.0885000e+01	   2.5722566e-01	   3.1616660e-01	  -4.2965137e-01	
   6.0940000e+01	   2.8211190e-01	   3.2348347e-01	  -4.1274599e-01	
   6.0995000e+01	   3.0687845e-01	   3.3074903e-01	  -3.9570489e-01	
   6.1050000e+01	   3.3120645e-01	   3.3776901e-01	  -3.7883264e-01	
   6.1105000e+01	   3.5478802e-01	   3.4434064e-01	  -3.6240092e-01	
   6.1160000e+01	   3.7734374e-01	   3.5026965e-01	  -3.4664020e-01	
   6.1215000e+01	   3.9863826e-01	   3.5538561e-01	  -3.3173980e-01	
   6.1270000e+01	   4.1849216e-01	   3.5955552e-01	  -3.1785326e-01	
   6.1325000e+01	   4.3678841e-01	   3.6269350e-01	  -3.0510525e-01	
   6.1380000e+01	   4.5347248e-01	   3.6476485e-01	  -2.9359660e-01	
   6.1435000e+01	   4.6854688e-01	   3.6578410e-01	  -2.8340481e-01	
   6.1490000e+01	   4.8206127e-01	   3.6580802e-01	  -2.7458131e-01	
   6.1545000e+01	   4.9409946e-01	   3.6492487e-01	  -2.6714881e-01	
   6.1600000e+01	   5.0476489e-01	   3.6324196e-01	  -2.6110110e-01	
   6.1655000e+01	   5.1416655e-01	   3.6087422e-01	  -2.5640480e-01	
   6.1710000e+01	   5.2240789e-01	   3.5793630e-01	  -2.5300164e-01	
   6.1765000e+01	   5.2958028e-01	   3.5453882e-01	  -2.5081032e-01	
   6.1820000e+01	   5.3576286e-01	   3.5078874e-01	  -2.4972732e-01	
   6.1875000e+01	   5.4102917e-01	   3.4679360e-01	  -2.4962754e-01	
   6.1930000e+01	   5.4545776e-01	   3.4266800e-01	  -2.5036719e-01	
   6.1985000e+01	   5.4914320e-01	   3.3854027e-01	  -2.5179094e-01	
   6.2040000e+01	   5.5220433e-01	   3.3455728e-01	  -2.5374221e-01	
   6.2095000e+01	   5.5478819e-01	   3.3088624e-01	  -2.5607363e-01	
   6.2150000e+01	   5.5706921e-01	   3.2771226e-01	  -2.5865569e-01	
   6.2205000e+01	   5.5924357e-01	   3.2523086e-01	  -2.6138404e-01	
   6.2260000e+01	   5.6151988e-01	   3.2363689e-01	  -2.6418642e-01	
   6.2315000e+01	   5.6410783e-01	   3.2311263e-01	  -2.6702760e-01	
   6.2370000e+01	   5.6720634e-01	   3.2381600e-01	  -2.6991029e-01	
   6.2425000e+01	   5.7099167e-01	   3.2586805e-01	  -2.7287140e-01	
   6.2480000e+01	   5.7560560e-01	   3.2933984e-01	  -2.7597458e-01	
   6.2535000e+01	   5.8114608e-01	   3.3424221e-01	  -2.7929847e-01	
   6.2590000e+01	   5.8766343e-01	   3.4052365e-01	  -2.8291988e-01	
   6.2645000e+01	   5.9516407e-01	   3.4807785e-01	  -2.8689293e-01	
   6.2700000e+01	   6.0362069e-01	   3.5675798e-01	  -2.9122831e-01	
   6.2755000e+01	   6.1298606e-01	   3.6639314e-01	  -2.9587675e-01	
   6.2810000e+01	   6.2320717e-01	   3.7680420e-01	  -3.0072066e-01	
   6.2865000e+01	   6.3423654e-01	   3.8781764e-01	  -3.0557631e-01	
   6.2920000e+01	   6.4603851e-01	   3.9927587e-01	  -3.1020663e-01	
   6.2975000e+01	   6.5859047e-01	   4.1104312e-01	  -3.1434054e-01	
   6.3030000e+01	   6.7188023e-01	   4.2300681e-01	  -3.1769262e-01	
   6.3085000e+01	   6.8590001e-01	   4.3507377e-01	  -3.1998015e-01	
   6.3140000e+01	   7.0063747e-01	   4.4716194e-01	  -3.2093824e-01	
   6.3195000e+01	   7.1606450e-01	   4.5918987e-01	  -3.2033423e-01	
   6.3250000e+01	   7.3212570e-01	   4.7106716e-01	  -3.1798033e-01	
   6.3305000e+01	   7.4872886e-01	   4.8268719e-01	  -3.1374355e-01	
   6.3360000e+01	   7.6573948e-01	   4.9392228e-01	  -3.0755242e-01	
   6.3415000e+01	   7.8298134e-01	   5.0462372e-01	  -2.9939872e-01	
   6.3470000e+01	   8.0024444e-01	   5.1463007e-01	  -2.8933303e-01	
   6.3525000e+01	   8.1729896e-01	   5.2378404e-01	  -2.7745554e-01	
   6.3580000e+01	   8.3391251e-01	   5.3195351e-01	  -2.6390520e-01	
   6.3635000e+01	   8.4986723e-01	   5.3905028e-01	  -2.4885008e-01	
   6.3690000e+01	   8.6497435e-01	   5.4504259e-01	  -2.3248011e-01	
   6.3745000e+01	   8.7908476e-01	   5.4996015e-01	  -2.1500222e-01	
   6.3800000e+01	   8.9209473e-01	   5.5389153e-01	  -1.9663689e-01	
   6.3855000e+01	   9.0394634e-01	   5.5697449e-01	  -1.7761538e-01	
   6.3910000e+01	   9.1462327e-01	   5.5938090e-01	  -1.5817746e-01	
   6.3965000e+01	   9.2414279e-01	   5.6129897e-01	  -1.3856977e-01	
   6.4020000e+01	   9.3254440e-01	   5.6291525e-01	  -1.1904488e-01	
   6.4075000e+01	   9.3987672e-01	   5.6439826e-01	  -9.9860209e-02	
   6.4130000e+01	   9.4618489e-01	   5.6588502e-01	  -8.1275536e-02	
   6.4185000e+01	   9.5150031e-01	   5.6747143e-01	  -6.3548718e-02	
   6.4240000e+01	   9.5583358e-01	   5.6920760e-01	  -4.6929538e-02	
   6.4295000e+01	   9.5917146e-01	   5.7109927e-01	  -3.1651856e-02	
   6.4350000e+01	   9.6147927e-01	   5.7311594e-01	  -1.7923899e-02	
   6.4405000e+01	   9.6270911e-01	   5.7520464e-01	  -5.9165380e-03	
   6.4460000e+01	   9.6281238e-01	   5.7730641e-01	   4.2488312e-03	
   6.4515000e+01	   9.6175344e-01	   5.7937161e-01	   1.2508973e-02	
   6.4570000e+01	   9.5952136e-01	   5.8137077e-01	   1.8860621e-02	
   6.4625000e+01	   9.5613841e-01	   5.8329946e-01	   2.3355127e-02	
   6.4680000e+01	   9.5166455e-01	   5.8517690e-01	   2.6089064e-02	
   6.4735000e+01	   9.4619681e-01	   5.8703920e-01	   2.7194953e-02	
   6.4790000e+01	   9.3986317e-01	   5.8892942e-01	   2.6834553e-02	
   6.4845000e+01	   9.3281218e-01	   5.9088635e-01	   2.5194634e-02	
   6.4900000e+01	   9.2520009e-01	   5.9293348e-01	   2.2483705e-02	
   6.4955000e+01	   9.1717763e-01	   5.9506975e-01	   1.8927795e-02	
   6.5010000e+01	   9.0887825e-01	   5.9726395e-01	   1.4763777e-02	
   6.5065000e+01	   9.0040954e-01	   5.9945452e-01	   1.0230602e-02	
   6.5120000e+01	   8.9184935e-01	   6.0155498e-01	   5.5609747e-03	
   6.5175000e+01	   8.8324745e-01	   6.0346425e-01	   9.7606566e-04	
   6.5230000e+01	   8.7463299e-01	   6.0508044e-01	  -3.3158411e-03	
   6.5285000e+01	   8.6602549e-01	   6.0631593e-01	  -7.1179934e-03	
   6.5340000e+01	   8.5744625e-01	   6.0711047e-01	  -1.0243935e-02	
   6.5395000e+01	   8.4892667e-01	   6.0743942e-01	  -1.2519194e-02	
   6.5450000e+01	   8.4051190e-01	   6.0731556e-01	  -1.3786374e-02	
   6.5505000e+01	   8.3225960e-01	   6.0678447e-01	  -1.3912072e-02	
   6.5560000e+01	   8.2423441e-01	   6.0591410e-01	  -1.2794189e-02	
   6.5615000e+01	   8.1649919e-01	   6.0478084e-01	  -1.0368864e-02	
   6.5670000e+01	   8.0910483e-01	   6.0345544e-01	  -6.6158091e-03	
   6.5725000e+01	   8.0208048e-01	   6.0199228e-01	  -1.5604544e-03	
   6.5780000e+01	   7.9542548e-01	   6.0042324e-01	   4.7281187e-03	
   6.5835000e+01	   7.8910425e-01	   5.9875558e-01	   1.2143210e-02	
   6.5890000e+01	   7.8304527e-01	   5.9697355e-01	   2.0549134e-02	
   6.5945000e+01	   7.7714597e-01	   5.9504438e-01	   2.9791109e-02	
   6.6000000e+01	   7.7128393e-01	   5.9292847e-01	   3.9705429e-02	
   6.6055000e+01	   7.6533271e-01	   5.9059197e-01	   5.0128629e-02	
   6.6110000e+01	   7.5917863e-01	   5.8801879e-01	   6.0904441e-02	
   6.6165000e+01	   7.5273547e-01	   5.8521921e-01	   7.1888443e-02	
   6.6220000e+01	   7.4595488e-01	   5.8223321e-01	   8.2950899e-02	
   6.6275000e+01	   7.3883116e-01	   5.7912792e-01	   9.3977844e-02	
   6.6330000e+01	   7.3140011e-01	   5.7598973e-01	   1.0487030e-01	
   6.6385000e+01	   7.2373297e-01	   5.7291230e-01	   1.1554159e-01	
   6.6440000e+01	   7.1592674e-01	   5.6998233e-01	   1.2591266e-01	
   6.6495000e+01	   7.0809143e-01	   5.6726559e-01	   1.3590563e-01	
   6.6550000e+01	   7.0033543e-01	   5.6479537e-01	   1.4543668e-01	
   6.6605000e+01	   6.9275041e-01	   5.6256403e-01	   1.5440987e-01	
   6.6660000e+01	   6.8539666e-01	   5.6051690e-01	   1.6271335e-01	
   6.6715000e+01	   6.7828995e-01	   5.5854875e-01	   1.7021938e-01	
   6.6770000e+01	   6.7139178e-01	   5.5650429e-01	   1.7678925e-01	
   6.6825000e+01	   6.6460631e-01	   5.5418448e-01	   1.8228312e-01	
   6.6880000e+01	   6.5778611e-01	   5.5135936e-01	   1.8657338e-01	
   6.6935000e+01	   6.5074657e-01	   5.4778624e-01	   1.8955868e-01	
   6.6990000e+01	   6.4328573e-01	   5.4323091e-01	   1.9117545e-01	
   6.7045000e+01	   6.3520547e-01	   5.3748897e-01	   1.9140398e-01	
   6.7100000e+01	   6.2633101e-01	   5.3040426e-01	   1.9026871e-01	
   6.7155000e+01	   6.1652728e-01	   5.2188304e-01	   1.8783346e-01	
   6.7210000e+01	   6.0571065e-01	   5.1190301e-01	   1.8419367e-01	
   6.7265000e+01	   5.9385571e-01	   5.0051692e-01	   1.7946806e-01	
   6.7320000e+01	   5.8099684e-01	   4.8785053e-01	   1.7379202e-01	
   6.7375000e+01	   5.6722428e-01	   4.7409445e-01	   1.6731302e-01	
   6.7430000e+01	   5.5267453e-01	   4.5949051e-01	   1.6018676e-01	
   6.7485000e+01	   5.3751609e-01	   4.4431392e-01	   1.5257176e-01	
   6.7540000e+01	   5.2193295e-01	   4.2885343e-01	   1.4462139e-01	
   6.7595000e+01	   5.0610774e-01	   4.1339133e-01	   1.3647422e-01	
   6.7650000e+01	   4.9020586e-01	   3.9818507e-01	   1.2824604e-01	
   6.7705000e+01	   4.7436188e-01	   3.8345232e-01	   1.2002724e-01	
   6.7760000e+01	   4.5867085e-01	   3.6936268e-01	   1.1188736e-01	
   6.7815000e+01	   4.4318666e-01	   3.5603720e-01	   1.0388459e-01	
   6.7870000e+01	   4.2792825e-01	   3.4355450e-01	   9.6075515e-02	
   6.7925000e+01	   4.1289205e-01	   3.3196147e-01	   8.8520780e-02	
   6.7980000e+01	   3.9806748e-01	   3.2128631e-01	   8.1285112e-02	
   6.8035000e+01	   3.8345148e-01	   3.1155069e-01	   7.4432352e-02	
   6.8090000e+01	   3.6905867e-01	   3.0277777e-01	   6.8016978e-02	
   6.8145000e+01	   3.5492544e-01	   2.9499532e-01	   6.2074369e-02	
   6.8200000e+01	   3.4110848e-01	   2.8823471e-01	   5.6612462e-02	
   6.8255000e+01	   3.2767935e-01	   2.8252636e-01	   5.1606370e-02	
   6.8310000e+01	   3.1471630e-01	   2.7789233e-01	   4.6996182e-02	
   6.8365000e+01	   3.0229474e-01	   2.7433721e-01	   4.2688227e-02	
   6.8420000e+01	   2.9047717e-01	   2.7183935e-01	   3.8560452e-02	
   6.8475000e+01	   2.7930337e-01	   2.7034319e-01	   3.4471474e-02	
   6.8530000e+01	   2.6878205e-01	   2.6975423e-01	   3.0271916e-02	
   6.8585000e+01	   2.5888584e-01	   2.6993865e-01	   2.5817246e-02	
   6.8640000e+01	   2.4955230e-01	   2.7072998e-01	   2.0981441e-02	
   6.8695000e+01	   2.4069203e-01	   2.7194218e-01	   1.5669122e-02	
   6.8750000e+01	   2.3220182e-01	   2.7338590e-01	   9.8227501e-03	
   6.8805000e+01	   2.2397924e-01	   2.7488402e-01	   3.4227148e-03	
   6.8860000e+01	   2.1593546e-01	   2.7628407e-01	  -3.5192646e-03	
   6.8915000e+01	   2.0800457e-01	   2.7746633e-01	  -1.0971365e-02	
   6.8970000e+01	   2.0014818e-01	   2.7834598e-01	  -1.8894783e-02	
   6.9025000e+01	   1.9235498e-01	   2.7886979e-01	  -2.7255410e-02	
   6.9080000e+01	   1.8463588e-01	   2.7900963e-01	  -3.6031309e-02	
   6.9135000e+01	   1.7701602e-01	   2.7875461e-01	  -4.5215467e-02	
   6.9190000e+01	   1.6952447e-01	   2.7810160e-01	  -5.4815128e-02	
   6.9245000e+01	   1.6218278e-01	   2.7704455e-01	  -6.4849016e-02	
   6.9300000e+01	   1.5499496e-01	   2.7556523e-01	  -7.5342956e-02	
   6.9355000e+01	   1.4794084e-01	   2.7362833e-01	  -8.6323397e-02	
   6.9410000e+01	   1.4097502e-01	   2.7118257e-01	  -9.7808071e-02	
   6.9465000e+01	   1.3403216e-01	   2.6816802e-01	  -1.0979406e-01	
   6.9520000e+01	   1.2703820e-01	   2.6452808e-01	  -1.2224563e-01	
   6.9575000e+01	   1.1992497e-01	   2.6022274e-01	  -1.3508629e-01	
   6.9630000e+01	   1.1264428e-01	   2.5524000e-01	  -1.4819931e-01	
   6.9685000e+01	   1.0517793e-01	   2.4960311e-01	  -1.6143793e-01	
   6.9740000e+01	   9.7542180e-02	   2.4337293e-01	  -1.7464205e-01	
   6.9795000e+01	   8.9786888e-02	   2.3664555e-01	  -1.8765667e-01	
   6.9850000e+01	   8.1990016e-02	   2.2954611e-01	  -2.0034904e-01	
   6.9905000e+01	   7.4247701e-02	   2.2221935e-01	  -2.1262291e-01	
   6.9960000e+01	   6.6660736e-02	   2.1481783e-01	  -2.2442783e-01	
   7.0015000e+01	   5.9319088e-02	   2.0748837e-01	  -2.3576313e-01	
   7.0070000e+01	   5.2286468e-02	   2.0035773e-01	  -2.4667858e-01	
   7.0125000e+01	   4.5587087e-02	   1.9351825e-01	  -2.5727297e-01	
   7.0180000e+01	   3.9196741e-02	   1.8701542e-01	  -2.6768889e-01	
   7.0235000e+01	   3.3039951e-02	   1.8084025e-01	  -2.7810171e-01	
   7.0290000e+01	   2.6994348e-02	   1.7492903e-01	  -2.8870304e-01	
   7.0345000e+01	   2.0902938e-02	   1.6917152e-01	  -2.9968037e-01	
   7.0400000e+01	   1.4593362e-02	   1.6342607e-01	  -3.1119498e-01	
   7.0455000e+01	   7.9007912e-03	   1.5753809e-01	  -3.2336062e-01	
   7.0510000e+01	   6.8961397e-04	   1.5135851e-01	  -3.3622743e-01	
   7.0565000e+01	  -7.1297615e-03	   1.4475963e-01	  -3.4977447e-01	
   7.0620000e+01	  -1.5590302e-02	   1.3764737e-01	  -3.6391112e-01	
   7.0675000e+01	  -2.4664144e-02	   1.2996970e-01	  -3.7848582e-01	
   7.0730000e+01	  -3.4265222e-02	   1.2172062e-01	  -3.9330092e-01	
   7.0785000e+01	  -4.4258800e-02	   1.1293805e-01	  -4.0813276e-01	
   7.0840000e+01	  -5.4476321e-02	   1.0369581e-01	  -4.2275441e-01	
   7.0895000e+01	  -6.4732938e-02	   9.4091693e-02	  -4.3695806e-01	
   7.0950000e+01	  -7.4845750e-02	   8.4234587e-02	  -4.5057511e-01	
   7.1005000e+01	  -8.4651782e-02	   7.4232435e-02	  -4.6349147e-01	
   7.1060000e+01	  -9.4024464e-02	   6.4181537e-02	  -4.7565556e-01	
   7.1115000e+01	  -1.0288643e-01	   5.4157870e-02	  -4.8707673e-01	
   7.1170000e+01	  -1.1121643e-01	   4.4212004e-02	  -4.9781502e-01	
   7.1225000e+01	  -1.1904877e-01	   3.4369084e-02	  -5.0796536e-01	
   7.1280000e+01	  -1.2646490e-01	   2.4634134e-02	  -5.1764040e-01	
   7.1335000e+01	  -1.3357793e-01	   1.5002341e-02	  -5.2695442e-01	
   7.1390000e+01	  -1.4051333e-01	   5.4732114e-03	  -5.3601014e-01	
   7.1445000e+01	  -1.4739036e-01	  -3.9347694e-03	  -5.4488955e-01	
   7.1500000e+01	  -1.5430783e-01	  -1.3173386e-02	  -5.5364942e-01	
   7.1555000e+01	  -1.6133571e-01	  -2.2160176e-02	  -5.6232207e-01	
   7.1610000e+01	  -1.6851263e-01	  -3.0780053e-02	  -5.7092137e-01	
   7.1665000e+01	  -1.7584874e-01	  -3.8892385e-02	  -5.7945331e-01	
   7.1720000e+01	  -1.8333305e-01	  -4.6342579e-02	  -5.8792850e-01	
   7.1775000e+01	  -1.9094302e-01	  -5.2976466e-02	  -5.9637251e-01	
   7.1830000e+01	  -1.9865426e-01	  -5.8655336e-02	  -6.0482998e-01	
   7.1885000e+01	  -2.0644902e-01	  -6.3269621e-02	  -6.1336211e-01	
   7.1940000e+01	  -2.1432263e-01	  -6.6749862e-02	  -6.2204020e-01	
   7.1995000e+01	  -2.2228660e-01	  -6.9074174e-02	  -6.3093764e-01	
   7.2050000e+01	  -2.3036660e-01	  -7.0270997e-02	  -6.4012132e-01	
   7.2105000e+01	  -2.3859480e-01	  -7.0415336e-02	  -6.4964247e-01	
   7.2160000e+01	  -2.4699820e-01	  -6.9618146e-02	  -6.5952853e-01	
   7.2215000e+01	  -2.5558656e-01	  -6.8011190e-02	  -6.6977810e-01	
   7.2270000e+01	  -2.6434306e-01	  -6.5731337e-02	  -6.8036071e-01	
   7.2325000e+01	  -2.7321923e-01	  -6.2908401e-02	  -6.9122152e-01	
   7.2380000e+01	  -2.8213441e-01	  -5.9658792e-02	  -7.0228962e-01	
   7.2435000e+01	  -2.9097909e-01	  -5.6084331e-02	  -7.1348818e-01	
   7.2490000e+01	  -2.9962125e-01	  -5.2273690e-02	  -7.2474351e-01	
   7.2545000e+01	  -3.0791548e-01	  -4.8304533e-02	  -7.3599007e-01	
   7.2600000e+01	  -3.1571418e-01	  -4.4246089e-02	  -7.4717004e-01	
   7.2655000e+01	  -3.2287951e-01	  -4.0162746e-02	  -7.5822828e-01	
   7.2710000e+01	  -3.2929441e-01	  -3.6119142e-02	  -7.6910557e-01	
   7.2765000e+01	  -3.3487155e-01	  -3.2186269e-02	  -7.7973321e-01	
   7.2820000e+01	  -3.3955909e-01	  -2.8446151e-02	  -7.9003061e-01	
   7.2875000e+01	  -3.4334145e-01	  -2.4991011e-02	  -7.9990438e-01	
   7.2930000e+01	  -3.4623349e-01	  -2.1914541e-02	  -8.0924749e-01	
   7.2985000e+01	  -3.4826960e-01	  -1.9297261e-02	  -8.1793870e-01	
   7.3040000e+01	  -3.4949136e-01	  -1.7190936e-02	  -8.2584446e-01	
   7.3095000e+01	  -3.4993717e-01	  -1.5606167e-02	  -8.3282447e-01	
   7.3150000e+01	  -3.4963538e-01	  -1.4504949e-02	  -8.3874085e-01	
   7.3205000e+01	  -3.4860110e-01	  -1.3799121e-02	  -8.4347006e-01	
   7.3260000e+01	  -3.4683663e-01	  -1.3355501e-02	  -8.4691571e-01	
   7.3315000e+01	  -3.4433516e-01	  -1.3007418e-02	  -8.4902029e-01	
   7.3370000e+01	  -3.4108734e-01	  -1.2570869e-02	  -8.4977416e-01	
   7.3425000e+01	  -3.3709014e-01	  -1.1863026e-02	  -8.4922179e-01	
   7.3480000e+01	  -3.3235736e-01	  -1.0721014e-02	  -8.4746473e-01	
   7.3535000e+01	  -3.2693038e-01	  -9.0186869e-03	  -8.4466092e-01	
   7.3590000e+01	  -3.2088648e-01	  -6.6785773e-03	  -8.4101824e-01	
   7.3645000e+01	  -3.1434210e-01	  -3.6766527e-03	  -8.3678091e-01	
   7.3700000e+01	  -3.0744871e-01	  -3.9138223e-05	  -8.3220948e-01	
   7.3755000e+01	  -3.0038084e-01	   4.1675313e-03	  -8.2755793e-01	
   7.3810000e+01	  -2.9331859e-01	   8.8511958e-03	  -8.2305293e-01	
   7.3865000e+01	  -2.8642860e-01	   1.3910033e-02	  -8.1887953e-01	
   7.3920000e+01	  -2.7984772e-01	   1.9247872e-02	  -8.1517458e-01	
   7.3975000e+01	  -2.7367239e-01	   2.4786679e-02	  -8.1202701e-01	
   7.4030000e+01	  -2.6795509e-01	   3.0473803e-02	  -8.0948226e-01	
   7.4085000e+01	  -2.6270762e-01	   3.6282355e-02	  -8.0754822e-01	
   7.4140000e+01	  -2.5790990e-01	   4.2205232e-02	  -8.0620096e-01	
   7.4195000e+01	  -2.5352159e-01	   4.8244996e-02	  -8.0538964e-01	
   7.4250000e+01	  -2.4949456e-01	   5.4401805e-02	  -8.0504101e-01	
   7.4305000e+01	  -2.4578555e-01	   6.0660628e-02	  -8.0506433e-01	
   7.4360000e+01	  -2.4236859e-01	   6.6978769e-02	  -8.0535801e-01	
   7.4415000e+01	  -2.3924539e-01	   7.3276087e-02	  -8.0581749e-01	
   7.4470000e+01	  -2.3645077e-01	   7.9431492e-02	  -8.0634343e-01	
   7.4525000e+01	  -2.3405071e-01	   8.5288339e-02	  -8.0684844e-01	
   7.4580000e+01	  -2.3213248e-01	   9.0668801e-02	  -8.0726068e-01	
   7.4635000e+01	  -2.3078862e-01	   9.5395094e-02	  -8.0752380e-01	
   7.4690000e+01	  -2.3009818e-01	   9.9314007e-02	  -8.0759452e-01	
   7.4745000e+01	  -2.3010944e-01	   1.0232012e-01	  -8.0743981e-01	
   7.4800000e+01	  -2.3082678e-01	   1.0437292e-01	  -8.0703451e-01	
   7.4855000e+01	  -2.3220300e-01	   1.0550474e-01	  -8.0635856e-01	
   7.4910000e+01	  -2.3413689e-01	   1.0581877e-01	  -8.0539423e-01	
   7.4965000e+01	  -2.3647642e-01	   1.0547833e-01	  -8.0412422e-01	
   7.5020000e+01	  -2.3902799e-01	   1.0468958e-01	  -8.0253154e-01	
   7.5075000e+01	  -2.4157135e-01	   1.0368061e-01	  -8.0060061e-01	
   7.5130000e+01	  -2.4387789e-01	   1.0268045e-01	  -7.9831871e-01	
   7.5185000e+01	  -2.4572956e-01	   1.0189985e-01	  -7.9567704e-01	
   7.5240000e+01	  -2.4693704e-01	   1.0151467e-01	  -7.9267148e-01	
   7.5295000e+01	  -2.4735573e-01	   1.0165234e-01	  -7.8930382e-01	
   7.5350000e+01	  -2.4689773e-01	   1.0238284e-01	  -7.8558302e-01	
   7.5405000e+01	  -2.4553717e-01	   1.0371664e-01	  -7.8152467e-01	
   7.5460000e+01	  -2.4330758e-01	   1.0561059e-01	  -7.7714674e-01	
   7.5515000e+01	  -2.4029139e-01	   1.0798147e-01	  -7.7246197e-01	
   7.5570000e+01	  -2.3660397e-01	   1.1072462e-01	  -7.6746946e-01	
   7.5625000e+01	  -2.3237554e-01	   1.1373329e-01	  -7.6214873e-01	
   7.5680000e+01	  -2.2773483e-01	   1.1691402e-01	  -7.5645891e-01	
   7.5735000e+01	  -2.2279685e-01	   1.2019493e-01	  -7.5034379e-01	
   7.5790000e+01	  -2.1765638e-01	   1.2352707e-01	  -7.4374101e-01	
   7.5845000e+01	  -2.1238661e-01	   1.2688129e-01	  -7.3659293e-01	
   7.5900000e+01	  -2.0704172e-01	   1.3024302e-01	  -7.2885627e-01	
   7.5955000e+01	  -2.0166197e-01	   1.3360521e-01	  -7.2050936e-01	
   7.6010000e+01	  -1.9628044e-01	   1.3695964e-01	  -7.1155614e-01	
   7.6065000e+01	  -1.9093021e-01	   1.4028815e-01	  -7.0202672e-01	
   7.6120000e+01	  -1.8565121e-01	   1.4355545e-01	  -6.9197561e-01	
   7.6175000e+01	  -1.8049620e-01	   1.4670382e-01	  -6.8147909e-01	
   7.6230000e+01	  -1.7553425e-01	   1.4965117e-01	  -6.7063262e-01	
   7.6285000e+01	  -1.7084920e-01	   1.5229422e-01	  -6.5954715e-01	
   7.6340000e+01	  -1.6653241e-01	   1.5451799e-01	  -6.4834325e-01	
   7.6395000e+01	  -1.6267205e-01	   1.5621018e-01	  -6.3714230e-01	
   7.6450000e+01	  -1.5934178e-01	   1.5727671e-01	  -6.2605573e-01	
   7.6505000e+01	  -1.5659139e-01	   1.5765431e-01	  -6.1517444e-01	
   7.6560000e+01	  -1.5444110e-01	   1.5731651e-01	  -6.0456160e-01	
   7.6615000e+01	  -1.5288051e-01	   1.5627369e-01	  -5.9425016e-01	
   7.6670000e+01	  -1.5187123e-01	   1.5456966e-01	  -5.8424496e-01	
   7.6725000e+01	  -1.5135213e-01	   1.5227677e-01	  -5.7452720e-01	
   7.6780000e+01	  -1.5124708e-01	   1.4948889e-01	  -5.6505963e-01	
   7.6835000e+01	  -1.5147521e-01	   1.4631124e-01	  -5.5579268e-01	
   7.6890000e+01	  -1.5196262e-01	   1.4284798e-01	  -5.4667230e-01	
   7.6945000e+01	  -1.5265281e-01	   1.3919053e-01	  -5.3764957e-01	
   7.7000000e+01	  -1.5351369e-01	   1.3540897e-01	  -5.2868965e-01	
   7.7055000e+01	  -1.5453991e-01	   1.3154800e-01	  -5.1977766e-01	
   7.7110000e+01	  -1.5574966e-01	   1.2762902e-01	  -5.1091981e-01	
   7.7165000e+01	  -1.5717608e-01	   1.2365889e-01	  -5.0213967e-01	
   7.7220000e+01	  -1.5885476e-01	   1.1964319e-01	  -4.9347036e-01	
   7.7275000e+01	  -1.6081060e-01	   1.1559925e-01	  -4.8494579e-01	
   7.7330000e+01	  -1.6304692e-01	   1.1156428e-01	  -4.7659371e-01	
   7.7385000e+01	  -1.6553896e-01	   1.0759718e-01	  -4.6843183e-01	
   7.7440000e+01	  -1.6823241e-01	   1.0377532e-01	  -4.6046641e-01	
   7.7495000e+01	  -1.7104739e-01	   1.0018742e-01	  -4.5269266e-01	
   7.7550000e+01	  -1.7388684e-01	   9.6923020e-02	  -4.4509729e-01	
   7.7605000e+01	  -1.7664782e-01	   9.4059959e-02	  -4.3766311e-01	
   7.7660000e+01	  -1.7923408e-01	   9.1652111e-02	  -4.3037438e-01	
   7.7715000e+01	  -1.8156851e-01	   8.9718562e-02	  -4.2322150e-01	
   7.7770000e+01	  -1.8360412e-01	   8.8235123e-02	  -4.1620422e-01	
   7.7825000e+01	  -1.8533151e-01	   8.7130468e-02	  -4.0933227e-01	
   7.7880000e+01	  -1.8678069e-01	   8.6289516e-02	  -4.0262264e-01	
   7.7935000e+01	  -1.8801600e-01	   8.5564687e-02	  -3.9609394e-01	
   7.7990000e+01	  -1.8912472e-01	   8.4793324e-02	  -3.8975896e-01	
   7.8045000e+01	  -1.9020109e-01	   8.3818598e-02	  -3.8361616e-01	
   7.8100000e+01	  -1.9132901e-01	   8.2511118e-02	  -3.7764155e-01	
   7.8155000e+01	  -1.9256699e-01	   8.0788064e-02	  -3.7178284e-01	
   7.8210000e+01	  -1.9393808e-01	   7.8626275e-02	  -3.6595808e-01	
   7.8265000e+01	  -1.9542573e-01	   7.6066626e-02	  -3.6005911e-01	
   7.8320000e+01	  -1.9697488e-01	   7.3209181e-02	  -3.5395797e-01	
   7.8375000e+01	  -1.9849824e-01	   7.0200639e-02	  -3.4751433e-01	
   7.8430000e+01	  -1.9988738e-01	   6.7216622e-02	  -3.4058354e-01	
   7.8485000e+01	  -2.0102766e-01	   6.4441623e-02	  -3.3302634e-01	
   7.8540000e+01	  -2.0181477e-01	   6.2048757e-02	  -3.2472056e-01	
   7.8595000e+01	  -2.0217110e-01	   6.0180249e-02	  -3.1557329e-01	
   7.8650000e+01	  -2.0206035e-01	   5.8929631e-02	  -3.0553187e-01	
   7.8705000e+01	  -2.0149820e-01	   5.8327674e-02	  -2.9459218e-01	
   7.8760000e+01	  -2.0055705e-01	   5.8334316e-02	  -2.8280356e-01	
   7.8815000e+01	  -1.9936332e-01	   5.8838541e-02	  -2.7026953e-01	
   7.8870000e+01	  -1.9808693e-01	   5.9668286e-02	  -2.5714233e-01	
   7.8925000e+01	  -1.9692358e-01	   6.0610823e-02	  -2.4360968e-01	
   7.8980000e+01	  -1.9607328e-01	   6.1439783e-02	  -2.2987586e-01	
   7.9035000e+01	  -1.9571970e-01	   6.1941611e-02	  -2.1614343e-01	
   7.9090000e+01	  -1.9601391e-01	   6.1935059e-02	  -2.0260114e-01	
   7.9145000e+01	  -1.9706446e-01	   6.1281611e-02	  -1.8941874e-01	
   7.9200000e+01	  -1.9893339e-01	   5.9888492e-02	  -1.7674567e-01	
   7.9255000e+01	  -2.0163701e-01	   5.7706160e-02	  -1.6471102e-01	
   7.9310000e+01	  -2.0515084e-01	   5.4721107e-02	  -1.5342499e-01	
   7.9365000e+01	  -2.0941742e-01	   5.0945698e-02	  -1.4298106e-01	
   7.9420000e+01	  -2.1435597e-01	   4.6408295e-02	  -1.3345589e-01	
   7.9475000e+01	  -2.1987264e-01	   4.1145692e-02	  -1.2490566e-01	
   7.9530000e+01	  -2.2587023e-01	   3.5197167e-02	  -1.1736085e-01	
   7.9585000e+01	  -2.3225572e-01	   2.8599972e-02	  -1.1082243e-01	
   7.9640000e+01	  -2.3894291e-01	   2.1388807e-02	  -1.0525949e-01	
   7.9695000e+01	  -2.4584920e-01	   1.3601658e-02	  -1.0060726e-01	
   7.9750000e+01	  -2.5288791e-01	   5.2904857e-03	  -9.6765917e-02	
   7.9805000e+01	  -2.5995964e-01	  -3.4677686e-03	  -9.3601389e-02	
   7.9860000e+01	  -2.6694559e-01	  -1.2563418e-02	  -9.0948675e-02	
   7.9915000e+01	  -2.7370460e-01	  -2.1850860e-02	  -8.8617639e-02	
   7.9970000e+01	  -2.8007521e-01	  -3.1150308e-02	  -8.6401657e-02	
   8.0025000e+01	  -2.8588254e-01	  -4.0254016e-02	  -8.4088579e-02	
   8.0080000e+01	  -2.9094820e-01	  -4.8935860e-02	  -8.1472313e-02	
   8.0135000e+01	  -2.9510196e-01	  -5.6963400e-02	  -7.8364270e-02	
   8.0190000e+01	  -2.9819433e-01	  -6.4111875e-02	  -7.4605117e-02	
   8.0245000e+01	  -3.0010922e-01	  -7.0178780e-02	  -7.0075673e-02	
   8.0300000e+01	  -3.0077469e-01	  -7.4996963e-02	  -6.4703240e-02	
   8.0355000e+01	  -3.0017005e-01	  -7.8444625e-02	  -5.8461089e-02	
   8.0410000e+01	  -2.9832792e-01	  -8.0450769e-02	  -5.1362799e-02	
   8.0465000e+01	  -2.9532985e-01	  -8.0994049e-02	  -4.3454290e-02	
   8.0520000e+01	  -2.9129494e-01	  -8.0093819e-02	  -3.4804680e-02	
   8.0575000e+01	  -2.8636325e-01	  -7.7795281e-02	  -2.5496917e-02	
   8.0630000e+01	  -2.8067777e-01	  -7.4153019e-02	  -1.5619598e-02	
   8.0685000e+01	  -2.7436903e-01	  -6.9217167e-02	  -5.2604329e-03	
   8.0740000e+01	  -2.6754461e-01	  -6.3025061e-02	   5.4988655e-03	
   8.0795000e+01	  -2.6028387e-01	  -5.5599497e-02	   1.6585844e-02	
   8.0850000e+01	  -2.5263760e-01	  -4.6952917e-02	   2.7938618e-02	
   8.0905000e+01	  -2.4463233e-01	  -3.7095755e-02	   3.9506553e-02	
   8.0960000e+01	  -2.3627839e-01	  -2.6047081e-02	   5.1251503e-02	
   8.1015000e+01	  -2.2758062e-01	  -1.3846073e-02	   6.3148793e-02	
   8.1070000e+01	  -2.1855000e-01	  -5.6305680e-04	   7.5186341e-02	
   8.1125000e+01	  -2.0921464e-01	   1.3691125e-02	   8.7361951e-02	
   8.1180000e+01	  -1.9962735e-01	   2.8759467e-02	   9.9680880e-02	
   8.1235000e+01	  -1.8986668e-01	   4.4439851e-02	   1.1215603e-01	
   8.1290000e+01	  -1.8003039e-01	   6.0494365e-02	   1.2481150e-01	
   8.1345000e+01	  -1.7022224e-01	   7.6664941e-02	   1.3768819e-01	
   8.1400000e+01	  -1.6053565e-01	   9.2691590e-02	   1.5084873e-01	
   8.1455000e+01	  -1.5103826e-01	   1.0833024e-01	   1.6437881e-01	
   8.1510000e+01	  -1.4176140e-01	   1.2336776e-01	   1.7838367e-01	
   8.1565000e+01	  -1.3269573e-01	   1.3763232e-01	   1.9298045e-01	
   8.1620000e+01	  -1.2379230e-01	   1.5099897e-01	   2.0828816e-01	
   8.1675000e+01	  -1.1496672e-01	   1.6339107e-01	   2.2441688e-01	
   8.1730000e+01	  -1.0610638e-01	   1.7477739e-01	   2.4145624e-01	
   8.1785000e+01	  -9.7081542e-02	   1.8516406e-01	   2.5946317e-01	
   8.1840000e+01	  -8.7760534e-02	   1.9458228e-01	   2.7844968e-01	
   8.1895000e+01	  -7.8027840e-02	   2.0307413e-01	   2.9837157e-01	
   8.1950000e+01	  -6.7802432e-02	   2.1067894e-01	   3.1911995e-01	
   8.2005000e+01	  -5.7053373e-02	   2.1742252e-01	   3.4051886e-01	
   8.2060000e+01	  -4.5809552e-02	   2.2331187e-01	   3.6233265e-01	
   8.2115000e+01	  -3.4160840e-02	   2.2833730e-01	   3.8428361e-01	
   8.2170000e+01	  -2.2250093e-02	   2.3248041e-01	   4.0607607e-01	
   8.2225000e+01	  -1.0258280e-02	   2.3572403e-01	   4.2742069e-01	
   8.2280000e+01	   1.6137963e-03	   2.3806084e-01	   4.4805317e-01	
   8.2335000e+01	   1.3164392e-02	   2.3950000e-01	   4.6774504e-01	
   8.2390000e+01	   2.4207978e-02	   2.4007184e-01	   4.8630830e-01	
   8.2445000e+01	   3.4588227e-02	   2.3983073e-01	   5.0359728e-01	
   8.2500000e+01	   4.4185120e-02	   2.3885666e-01	   5.1950916e-01	
   8.2555000e+01	   5.2916255e-02	   2.3725558e-01	   5.3398255e-01	
   8.2610000e+01	   6.0733840e-02	   2.3515711e-01	   5.4699222e-01	
   8.2665000e+01	   6.7618830e-02	   2.3270820e-01	   5.5854036e-01	
   8.2720000e+01	   7.3573113e-02	   2.3006290e-01	   5.6864684e-01	
   8.2775000e+01	   7.8610776e-02	   2.2737028e-01	   5.7734224e-01	
   8.2830000e+01	   8.2749857e-02	   2.2476253e-01	   5.8466501e-01	
   8.2885000e+01	   8.6006221e-02	   2.2234593e-01	   5.9066230e-01	
   8.2940000e+01	   8.8391425e-02	   2.2019736e-01	   5.9539386e-01	
   8.2995000e+01	   8.9915905e-02	   2.1836760e-01	   5.9893879e-01	
   8.3050000e+01	   9.0596327e-02	   2.1688912e-01	   6.0140369e-01	
   8.3105000e+01	   9.0463742e-02	   2.1578402e-01	   6.0292862e-01	
   8.3160000e+01	   8.9569524e-02	   2.1506937e-01	   6.0368799e-01	
   8.3215000e+01	   8.7987988e-02	   2.1476041e-01	   6.0388557e-01	
   8.3270000e+01	   8.5815601e-02	   2.1487233e-01	   6.0374579e-01	
   8.3325000e+01	   8.3166885e-02	   2.1542024e-01	   6.0350313e-01	
   8.3380000e+01	   8.0167271e-02	   2.1641706e-01	   6.0339152e-01	
   8.3435000e+01	   7.6943719e-02	   2.1786959e-01	   6.0363447e-01	
   8.3490000e+01	   7.3614245e-02	   2.1977254e-01	   6.0443641e-01	
   8.3545000e+01	   7.0277610e-02	   2.2210116e-01	   6.0597382e-01	
   8.3600000e+01	   6.7004522e-02	   2.2480440e-01	   6.0838678e-01	
   8.3655000e+01	   6.3831915e-02	   2.2780180e-01	   6.1177349e-01	
   8.3710000e+01	   6.0761911e-02	   2.3098515e-01	   6.1619056e-01	
   8.3765000e+01	   5.7766892e-02	   2.3422499e-01	   6.2165951e-01	
   8.3820000e+01	   5.4801024e-02	   2.3738166e-01	   6.2817769e-01	
   8.3875000e+01	   5.1816348e-02	   2.4031985e-01	   6.3572993e-01	
   8.3930000e+01	   4.8779317e-02	   2.4292386e-01	   6.4429657e-01	
   8.3985000e+01	   4.5683289e-02	   2.4510976e-01	   6.5385537e-01	
   8.4040000e+01	   4.2554456e-02	   2.4683194e-01	   6.6437771e-01	
   8.4095000e+01	   3.9451356e-02	   2.4808348e-01	   6.7582084e-01	
   8.4150000e+01	   3.6459238e-02	   2.4889135e-01	   6.8811825e-01	
   8.4205000e+01	   3.3680191e-02	   2.4930690e-01	   7.0116926e-01	
   8.4260000e+01	   3.1219647e-02	   2.4939259e-01	   7.1482970e-01	
   8.4315000e+01	   2.9170565e-02	   2.4920672e-01	   7.2890585e-01	
   8.4370000e+01	   2.7597382e-02	   2.4878875e-01	   7.4315319e-01	
   8.4425000e+01	   2.6522113e-02	   2.4814761e-01	   7.5728027e-01	
   8.4480000e+01	   2.5915135e-02	   2.4725485e-01	   7.7095867e-01	
   8.4535000e+01	   2.5693198e-02	   2.4604449e-01	   7.8384101e-01	
   8.4590000e+01	   2.5726355e-02	   2.4442082e-01	   7.9558823e-01	
   8.4645000e+01	   2.5853382e-02	   2.4227334e-01	   8.0590241e-01	
   8.4700000e+01	   2.5902517e-02	   2.3949579e-01	   8.1455777e-01	
   8.4755000e+01	   2.5713078e-02	   2.3600528e-01	   8.2142304e-01	
   8.4810000e+01	   2.5154298e-02	   2.3175873e-01	   8.2647207e-01	
   8.4865000e+01	   2.4139143e-02	   2.2676381e-01	   8.2978238e-01	
   8.4920000e+01	   2.2632063e-02	   2.2108262e-01	   8.3152165e-01	
   8.4975000e+01	   2.0650705e-02	   2.1482855e-01	   8.3192357e-01	
   8.5030000e+01	   1.8262542e-02	   2.0815825e-01	   8.3125768e-01	
   8.5085000e+01	   1.5577359e-02	   2.0126075e-01	   8.2980002e-01	
   8.5140000e+01	   1.2735652e-02	   1.9434459e-01	   8.2780951e-01	
   8.5195000e+01	   9.8931417e-03	   1.8762355e-01	   8.2551132e-01	
   8.5250000e+01	   7.2027093e-03	   1.8130131e-01	   8.2308612e-01	
   8.5305000e+01	   4.7959239e-03	   1.7555552e-01	   8.2066347e-01	
   8.5360000e+01	   2.7663524e-03	   1.7052267e-01	   8.1831918e-01	
   8.5415000e+01	   1.1573137e-03	   1.6628653e-01	   8.1607815e-01	
   8.5470000e+01	  -4.2633764e-05	   1.6287325e-01	   8.1392503e-01	
   8.5525000e+01	  -8.9411062e-04	   1.6025466e-01	   8.1182242e-01	
   8.5580000e+01	  -1.4922089e-03	   1.5835887e-01	   8.0973233e-01	
   8.5635000e+01	  -1.9471755e-03	   1.5708524e-01	   8.0763427e-01	
   8.5690000e+01	  -2.3658740e-03	   1.5632006e-01	   8.0553522e-01	
   8.5745000e+01	  -2.8375532e-03	   1.5595060e-01	   8.0347057e-01	
   8.5800000e+01	  -3.4249817e-03	   1.5587611e-01	   8.0149742e-01	
   8.5855000e+01	  -4.1605470e-03	   1.5601574e-01	   7.9968240e-01	
   8.5910000e+01	  -5.0467440e-03	   1.5631322e-01	   7.9808676e-01	
   8.5965000e+01	  -6.0607416e-03	   1.5673812e-01	   7.9675117e-01	
   8.6020000e+01	  -7.1625724e-03	   1.5728313e-01	   7.9568363e-01	
   8.6075000e+01	  -8.3060336e-03	   1.5795687e-01	   7.9485278e-01	
   8.6130000e+01	  -9.4510138e-03	   1.5877312e-01	   7.9418696e-01	
   8.6185000e+01	  -1.0575752e-02	   1.5973796e-01	   7.9357753e-01	
   8.6240000e+01	  -1.1687222e-02	   1.6083725e-01	   7.9288561e-01	
   8.6295000e+01	  -1.2827238e-02	   1.6202827e-01	   7.9195263e-01	
   8.6350000e+01	  -1.4071819e-02	   1.6323907e-01	   7.9061608e-01	
   8.6405000e+01	  -1.5522869e-02	   1.6437612e-01	   7.8873003e-01	
   8.6460000e+01	  -1.7294082e-02	   1.6533698e-01	   7.8618655e-01	
   8.6515000e+01	  -1.9494740e-02	   1.6602353e-01	   7.8293132e-01	
   8.6570000e+01	  -2.2214743e-02	   1.6635333e-01	   7.7896873e-01	
   8.6625000e+01	  -2.5512939e-02	   1.6626812e-01	   7.7435622e-01	
   8.6680000e+01	  -2.9410070e-02	   1.6573809e-01	   7.6919106e-01	
   8.6735000e+01	  -3.3886887e-02	   1.6476054e-01	   7.6359373e-01	
   8.6790000e+01	  -3.8887200e-02	   1.6335389e-01	   7.5769002e-01	
   8.6845000e+01	  -4.4325275e-02	   1.6154921e-01	   7.5159282e-01	
   8.6900000e+01	  -5.0096511e-02	   1.5938127e-01	   7.4538479e-01	
   8.6955000e+01	  -5.6089569e-02	   1.5688056e-01	   7.3910444e-01	
   8.7010000e+01	  -6.2197964e-02	   1.5406724e-01	   7.3273870e-01	
   8.7065000e+01	  -6.8330021e-02	   1.5094663e-01	   7.2622355e-01	
   8.7120000e+01	  -7.4416723e-02	   1.4750570e-01	   7.1945231e-01	
   8.7175000e+01	  -8.0416281e-02	   1.4371117e-01	   7.1229047e-01	
   8.7230000e+01	  -8.6313484e-02	   1.3951169e-01	   7.0459584e-01	
   8.7285000e+01	  -9.2112752e-02	   1.3484624e-01	   6.9624128e-01	
   8.7340000e+01	  -9.7826100e-02	   1.2965776e-01	   6.8713478e-01	
   8.7395000e+01	  -1.0345886e-01	   1.2390878e-01	   6.7723133e-01	
   8.7450000e+01	  -1.0899597e-01	   1.1759601e-01	   6.6653414e-01	
   8.7505000e+01	  -1.1439106e-01	   1.1076138e-01	   6.5508730e-01	
   8.7560000e+01	  -1.1956056e-01	   1.0349723e-01	   6.4296382e-01	
   8.7615000e+01	  -1.2438493e-01	   9.5944301e-02	   6.3025168e-01	
   8.7670000e+01	  -1.2871761e-01	   8.8283387e-02	   6.1703945e-01	
   8.7725000e+01	  -1.3240005e-01	   8.0722776e-02	   6.0340218e-01	
   8.7780000e+01	  -1.3528022e-01	   7.3482890e-02	   5.8938850e-01	
   8.7835000e+01	  -1.3723163e-01	   6.6778715e-02	   5.7501086e-01	
   8.7890000e+01	  -1.3817068e-01	   6.0801029e-02	   5.6024255e-01	
   8.7945000e+01	  -1.3807100e-01	   5.5698264e-02	   5.4502299e-01	
   8.8000000e+01	  -1.3697396e-01	   5.1561431e-02	   5.2926993e-01	
   8.8055000e+01	  -1.3499349e-01	   4.8415629e-02	   5.1289607e-01	
   8.8110000e+01	  -1.3231270e-01	   4.6221616e-02	   4.9582841e-01	
   8.8165000e+01	  -1.2917061e-01	   4.4887558e-02	   4.7802818e-01	
   8.8220000e+01	  -1.2584079e-01	   4.4286728e-02	   4.5950672e-01	
   8.8275000e+01	  -1.2260688e-01	   4.4276101e-02	   4.4033179e-01	
   8.8330000e+01	  -1.1973959e-01	   4.4712833e-02	   4.2062250e-01	
   8.8385000e+01	  -1.1747805e-01	   4.5467246e-02	   4.0053484e-01	
   8.8440000e+01	  -1.1601619e-01	   4.6431657e-02	   3.8024158e-01	
   8.8495000e+01	  -1.1549436e-01	   4.7525345e-02	   3.5991072e-01	
   8.8550000e+01	  -1.1599582e-01	   4.8696144e-02	   3.3968537e-01	
   8.8605000e+01	  -1.1754832e-01	   4.9918244e-02	   3.1966742e-01	
   8.8660000e+01	  -1.2013041e-01	   5.1185241e-02	   2.9990631e-01	
   8.8715000e+01	  -1.2368148e-01	   5.2498595e-02	   2.8039363e-01	
   8.8770000e+01	  -1.2811429e-01	   5.3853482e-02	   2.6106402e-01	
   8.8825000e+01	  -1.3332921e-01	   5.5224597e-02	   2.4180186e-01	
   8.8880000e+01	  -1.3922965e-01	   5.6553567e-02	   2.2245215e-01	
   8.8935000e+01	  -1.4573717e-01	   5.7739517e-02	   2.0283386e-01	
   8.8990000e+01	  -1.5280255e-01	   5.8635590e-02	   1.8275602e-01	
   8.9045000e+01	  -1.6040915e-01	   5.9054195e-02	   1.6203795e-01	
   8.9100000e+01	  -1.6856725e-01	   5.8780546e-02	   1.4053299e-01	
   8.9155000e+01	  -1.7730169e-01	   5.7590512e-02	   1.1815159e-01	
   8.9210000e+01	  -1.8663693e-01	   5.5268736e-02	   9.4877376e-02	
   8.9265000e+01	  -1.9658307e-01	   5.1625463e-02	   7.0771422e-02	
   8.9320000e+01	  -2.0712519e-01	   4.6511635e-02	   4.5965039e-02	
   8.9375000e+01	  -2.1821725e-01	   3.9830935e-02	   2.0645325e-02	
   8.9430000e+01	  -2.2978096e-01	   3.1547430e-02	  -4.9617511e-03	
   8.9485000e+01	  -2.4170921e-01	   2.1688267e-02	  -3.0609007e-02	
   8.9540000e+01	  -2.5387336e-01	   1.0341210e-02	  -5.6046698e-02	
   8.9595000e+01	  -2.6613364e-01	  -2.3529118e-03	  -8.1041647e-02	
   8.9650000e+01	  -2.7835131e-01	  -1.6211784e-02	  -1.0539417e-01	
   8.9705000e+01	  -2.9040184e-01	  -3.1025553e-02	  -1.2894981e-01	
   8.9760000e+01	  -3.0218783e-01	  -4.6571822e-02	  -1.5160525e-01	
   8.9815000e+01	  -3.1365010e-01	  -6.2630092e-02	  -1.7330994e-01	
   8.9870000e+01	  -3.2477526e-01	  -7.8993165e-02	  -1.9406468e-01	
   8.9925000e+01	  -3.3559717e-01	  -9.5473322e-02	  -2.1391606e-01	
   8.9980000e+01	  -3.4619070e-01	  -1.1190285e-01	  -2.3294606e-01	
   9.0035000e+01	  -3.5665771e-01	  -1.2813015e-01	  -2.5125833e-01	
   9.0090000e+01	  -3.6710828e-01	  -1.4401383e-01	  -2.6896507e-01	
   9.0145000e+01	  -3.7764180e-01	  -1.5941767e-01	  -2.8617855e-01	
   9.0200000e+01	  -3.8833216e-01	  -1.7420893e-01	  -3.0300837e-01	
   9.0255000e+01	  -3.9921906e-01	  -1.8826024e-01	  -3.1956245e-01	
   9.0310000e+01	  -4.1030520e-01	  -2.0145308e-01	  -3.3594722e-01	
   9.0365000e+01	  -4.2155746e-01	  -2.1368158e-01	  -3.5226422e-01	
   9.0420000e+01	  -4.3291166e-01	  -2.2485748e-01	  -3.6860397e-01	
   9.0475000e+01	  -4.4428082e-01	  -2.3491653e-01	  -3.8504051e-01	
   9.0530000e+01	  -4.5556649e-01	  -2.4382532e-01	  -4.0162777e-01	
   9.0585000e+01	  -4.6667110e-01	  -2.5158679e-01	  -4.1839715e-01	
   9.0640000e+01	  -4.7750948e-01	  -2.5824401e-01	  -4.3535601e-01	
   9.0695000e+01	  -4.8801752e-01	  -2.6388196e-01	  -4.5248821e-01	
   9.0750000e+01	  -4.9815586e-01	  -2.6862565e-01	  -4.6975519e-01	
   9.0805000e+01	  -5.0790680e-01	  -2.7263172e-01	  -4.8709450e-01	
   9.0860000e+01	  -5.1726501e-01	  -2.7607336e-01	  -5.0441552e-01	
   9.0915000e+01	  -5.2622531e-01	  -2.7912137e-01	  -5.2159637e-01	
   9.0970000e+01	  -5.3477060e-01	  -2.8192645e-01	  -5.3848576e-01	
   9.1025000e+01	  -5.4286226e-01	  -2.8460600e-01	  -5.5491043e-01	
   9.1080000e+01	  -5.5043448e-01	  -2.8723688e-01	  -5.7068650e-01	
   9.1135000e+01	  -5.5739280e-01	  -2.8985281e-01	  -5.8563260e-01	
   9.1190000e+01	  -5.6361669e-01	  -2.9244495e-01	  -5.9958261e-01	
   9.1245000e+01	  -5.6896566e-01	  -2.9496519e-01	  -6.1239595e-01	
   9.1300000e+01	  -5.7328893e-01	  -2.9733251e-01	  -6.2396487e-01	
   9.1355000e+01	  -5.7643918e-01	  -2.9944378e-01	  -6.3421967e-01	
   9.1410000e+01	  -5.7828960e-01	  -3.0118923e-01	  -6.4313292e-01	
   9.1465000e+01	  -5.7875207e-01	  -3.0247063e-01	  -6.5072196e-01	
   9.1520000e+01	  -5.7779305e-01	  -3.0321873e-01	  -6.5704826e-01	
   9.1575000e+01	  -5.7544425e-01	  -3.0340667e-01	  -6.6221361e-01	
   9.1630000e+01	  -5.7180572e-01	  -3.0305663e-01	  -6.6635307e-01	
   9.1685000e+01	  -5.6703887e-01	  -3.0223667e-01	  -6.6962309e-01	
   9.1740000e+01	  -5.6134936e-01	  -3.0104773e-01	  -6.7218558e-01	
   9.1795000e+01	  -5.5496398e-01	  -2.9960522e-01	  -6.7419324e-01	
   9.1850000e+01	  -5.4810687e-01	  -2.9802077e-01	  -6.7578159e-01	
   9.1905000e+01	  -5.4097926e-01	  -2.9638707e-01	  -6.7706884e-01	
   9.1960000e+01	  -5.3374442e-01	  -2.9476697e-01	  -6.7816104e-01	
   9.2015000e+01	  -5.2651902e-01	  -2.9318814e-01	  -6.7915999e-01	
   9.2070000e+01	  -5.1937139e-01	  -2.9164412e-01	  -6.8017174e-01	
   9.2125000e+01	  -5.1232589e-01	  -2.9010143e-01	  -6.8131394e-01	
   9.2180000e+01	  -5.0537286e-01	  -2.8851104e-01	  -6.8272101e-01	
   9.2235000e+01	  -4.9848288e-01	  -2.8682288e-01	  -6.8454744e-01	
   9.2290000e+01	  -4.9162422e-01	  -2.8500090e-01	  -6.8696887e-01	
   9.2345000e+01	  -4.8478072e-01	  -2.8303601e-01	  -6.9017972e-01	
   9.2400000e+01	  -4.7796728e-01	  -2.8095435e-01	  -6.9438640e-01	
   9.2455000e+01	  -4.7124029e-01	  -2.7881962e-01	  -6.9979570e-01	
   9.2510000e+01	  -4.6470064e-01	  -2.7672959e-01	  -7.0659831e-01	
   9.2565000e+01	  -4.5848806e-01	  -2.7480718e-01	  -7.1494856e-01	
   9.2620000e+01	  -4.5276680e-01	  -2.7318704e-01	  -7.2494272e-01	
   9.2675000e+01	  -4.4770547e-01	  -2.7199901e-01	  -7.3660007e-01	
   9.2730000e+01	  -4.4345481e-01	  -2.7135103e-01	  -7.4985037e-01	
   9.2785000e+01	  -4.4012711e-01	  -2.7131403e-01	  -7.6453011e-01	
   9.2840000e+01	  -4.3778018e-01	  -2.7191138e-01	  -7.8038854e-01	
   9.2895000e+01	  -4.3640808e-01	  -2.7311366e-01	  -7.9710245e-01	
   9.2950000e+01	  -4.3594009e-01	  -2.7483910e-01	  -8.1429860e-01	
   9.3005000e+01	  -4.3624751e-01	  -2.7695893e-01	  -8.3158104e-01	
   9.3060000e+01	  -4.3715680e-01	  -2.7930797e-01	  -8.4855897e-01	
   9.3115000e+01	  -4.3846721e-01	  -2.8170104e-01	  -8.6487128e-01	
   9.3170000e+01	  -4.3997081e-01	  -2.8395433e-01	  -8.8020588e-01	
   9.3225000e+01	  -4.4147292e-01	  -2.8590839e-01	  -8.9431398e-01	
   9.3280000e+01	  -4.4281080e-01	  -2.8744791e-01	  -9.0701881e-01	
   9.3335000e+01	  -4.4386888e-01	  -2.8851482e-01	  -9.1821866e-01	
   9.3390000e+01	  -4.4458802e-01	  -2.8911273e-01	  -9.2788380e-01	
   9.3445000e+01	  -4.4496615e-01	  -2.8930242e-01	  -9.3604597e-01	
   9.3500000e+01	  -4.4504853e-01	  -2.8918888e-01	  -9.4278113e-01	
   9.3555000e+01	  -4.4490955e-01	  -2.8890231e-01	  -9.4818992e-01	
   9.3610000e+01	  -4.4463098e-01	  -2.8857664e-01	  -9.5238183e-01	
   9.3665000e+01	  -4.4428135e-01	  -2.8832961e-01	  -9.5546602e-01	
   9.3720000e+01	  -4.4389981e-01	  -2.8824729e-01	  -9.5754761e-01	
   9.3775000e+01	  -4.4348588e-01	  -2.8837495e-01	  -9.5872786e-01	
   9.3830000e+01	  -4.4299583e-01	  -2.8871480e-01	  -9.5910578e-01	
   9.3885000e+01	  -4.4234599e-01	  -2.8922923e-01	  -9.5877817e-01	
   9.3940000e+01	  -4.4142194e-01	  -2.8984751e-01	  -9.5783648e-01	
   9.3995000e+01	  -4.4009267e-01	  -2.9047480e-01	  -9.5636277e-01	
   9.4050000e+01	  -4.3822754e-01	  -2.9100251e-01	  -9.5442795e-01	
   9.4105000e+01	  -4.3571356e-01	  -2.9131941e-01	  -9.5209315e-01	
   9.4160000e+01	  -4.3246947e-01	  -2.9132221e-01	  -9.4941235e-01	
   9.4215000e+01	  -4.2845446e-01	  -2.9092428e-01	  -9.4643412e-01	
   9.4270000e+01	  -4.2367058e-01	  -2.9006129e-01	  -9.4320108e-01	
   9.4325000e+01	  -4.1815872e-01	  -2.8869229e-01	  -9.3974657e-01	
   9.4380000e+01	  -4.1198974e-01	  -2.8679643e-01	  -9.3609039e-01	
   9.4435000e+01	  -4.0525339e-01	  -2.8436771e-01	  -9.3223637e-01	
   9.4490000e+01	  -3.9804792e-01	  -2.8141050e-01	  -9.2817282e-01	
   9.4545000e+01	  -3.9047207e-01	  -2.7793708e-01	  -9.2387476e-01	
   9.4600000e+01	  -3.8262020e-01	  -2.7396636e-01	  -9.1930665e-01	
   9.4655000e+01	  -3.7458112e-01	  -2.6952370e-01	  -9.1442606e-01	
   9.4710000e+01	  -3.6644028e-01	  -2.6464223e-01	  -9.0918912e-01	
   9.4765000e+01	  -3.5828442e-01	  -2.5936573e-01	  -9.0355845e-01	
   9.4820000e+01	  -3.5020689e-01	  -2.5375197e-01	  -8.9751241e-01	
   9.4875000e+01	  -3.4231195e-01	  -2.4787564e-01	  -8.9105429e-01	
   9.4930000e+01	  -3.3471728e-01	  -2.4183109e-01	  -8.8421970e-01	
   9.4985000e+01	  -3.2755396e-01	  -2.3573450e-01	  -8.7708035e-01	
   9.5040000e+01	  -3.2096280e-01	  -2.2972339e-01	  -8.6974275e-01	
   9.5095000e+01	  -3.1508678e-01	  -2.2395102e-01	  -8.6234071e-01	
   9.5150000e+01	  -3.1005990e-01	  -2.1857487e-01	  -8.5502167e-01	
   9.5205000e+01	  -3.0599329e-01	  -2.1373983e-01	  -8.4792944e-01	
   9.5260000e+01	  -3.0296117e-01	  -2.0955894e-01	  -8.4118847e-01	
   9.5315000e+01	  -3.0098923e-01	  -2.0609608e-01	  -8.3489393e-01	
   9.5370000e+01	  -3.0004812e-01	  -2.0335451e-01	  -8.2910817e-01	
   9.5425000e+01	  -3.0005268e-01	  -2.0127234e-01	  -8.2386132e-01	
   9.5480000e+01	  -3.0086655e-01	  -1.9972371e-01	  -8.1915381e-01	
   9.5535000e+01	  -3.0231168e-01	  -1.9852537e-01	  -8.1496031e-01	
