
0   5   7	
   0.0000000e+00	   1.0366555e+00	  -3.4627175e-02	
   5.5000000e-02	   1.0009280e+00	  -5.1913124e-02	
   1.1000000e-01	   9.6633994e-01	  -6.8989314e-02	
   1.6500000e-01	   9.3340467e-01	  -8.5636871e-02	
   2.2000000e-01	   9.0258801e-01	  -1.0165330e-01	
   2.7500000e-01	   8.7429471e-01	  -1.1685793e-01	
   3.3000000e-01	   8.4885682e-01	  -1.3109651e-01	
   3.8500000e-01	   8.2652579e-01	  -1.4424472e-01	
   4.4000000e-01	   8.0746909e-01	  -1.5621032e-01	
   4.9500000e-01	   7.9177272e-01	  -1.6693314e-01	
   5.5000000e-01	   7.7945162e-01	  -1.7638192e-01	
   6.0500000e-01	   7.7046748e-01	  -1.8454790e-01	
   6.6000000e-01	   7.6474898e-01	  -1.9143752e-01	
   7.1500000e-01	   7.6220844e-01	  -1.9706619e-01	
   7.7000000e-01	   7.6275190e-01	  -2.0145382e-01	
   8.2500000e-01	   7.6628244e-01	  -2.0462220e-01	
   8.8000000e-01	   7.7269725e-01	  -2.0659486e-01	
   9.3500000e-01	   7.8188056e-01	  -2.0739912e-01	
   9.9000000e-01	   7.9369574e-01	  -2.0706921e-01	
   1.0450000e+00	   8.0797895e-01	  -2.0564896e-01	
   1.1000000e+00	   8.2453580e-01	  -2.0319319e-01	
   1.1550000e+00	   8.4314262e-01	  -1.9976663e-01	
   1.2100000e+00	   8.6355384e-01	  -1.9543969e-01	
   1.2650000e+00	   8.8551275e-01	  -1.9028255e-01	
   1.3200000e+00	   9.0876066e-01	  -1.8436035e-01	
   1.3750000e+00	   9.3304123e-01	  -1.7773151e-01	
   1.4300000e+00	   9.5810075e-01	  -1.7044882e-01	
   1.4850000e+00	   9.8368633e-01	  -1.6256281e-01	
   1.5400000e+00	   1.0095435e+00	  -1.5412671e-01	
   1.5950000e+00	   1.0354147e+00	  -1.4520245e-01	
   1.6500000e+00	   1.0610394e+00	  -1.3586653e-01	
   1.7050000e+00	   1.0861567e+00	  -1.2621435e-01	
   1.7600000e+00	   1.1105101e+00	  -1.1636171e-01	
   1.8150000e+00	   1.1338553e+00	  -1.0644176e-01	
   1.8700000e+00	   1.1559734e+00	  -9.6596650e-02	
   1.9250000e+00	   1.1766870e+00	  -8.6965722e-02	
   1.9800000e+00	   1.1958736e+00	  -7.7674025e-02	
   2.0350000e+00	   1.2134713e+00	  -6.8824050e-02	
   2.0900000e+00	   1.2294779e+00	  -6.0490895e-02	
   2.1450000e+00	   1.2439435e+00	  -5.2720448e-02	
   2.2000000e+00	   1.2569604e+00	  -4.5531003e-02	
   2.2550000e+00	   1.2686496e+00	  -3.8918544e-02	
   2.3100000e+00	   1.2791470e+00	  -3.2864479e-02	
   2.3650000e+00	   1.2885914e+00	  -2.7343782e-02	
   2.4200000e+00	   1.2971158e+00	  -2.2331485e-02	
   2.4750000e+00	   1.3048450e+00	  -1.7805615e-02	
   2.5300000e+00	   1.3118990e+00	  -1.3745390e-02	
   2.5850000e+00	   1.3183999e+00	  -1.0125883e-02	
   2.6400000e+00	   1.3244801e+00	  -6.9122368e-03	
   2.6950000e+00	   1.3302889e+00	  -4.0559202e-03	
   2.7500000e+00	   1.3359950e+00	  -1.4937242e-03	
   2.8050000e+00	   1.3417843e+00	   8.5050918e-04	
   2.8600000e+00	   1.3478530e+00	   3.0614378e-03	
   2.9150000e+00	   1.3543971e+00	   5.2256883e-03	
   2.9700000e+00	   1.3615993e+00	   7.4246572e-03	
   3.0250000e+00	   1.3696155e+00	   9.7278616e-03	
   3.0800000e+00	   1.3785632e+00	   1.2187325e-02	
   3.1350000e+00	   1.3885140e+00	   1.4833445e-02	
   3.1900000e+00	   1.3994912e+00	   1.7673339e-02	
   3.2450000e+00	   1.4114748e+00	   2.0692484e-02	
   3.3000000e+00	   1.4244110e+00	   2.3859472e-02	
   3.3550000e+00	   1.4382236e+00	   2.7132838e-02	
   3.4100000e+00	   1.4528245e+00	   3.0468722e-02	
   3.4650000e+00	   1.4681225e+00	   3.3827888e-02	
   3.5200000e+00	   1.4840274e+00	   3.7180566e-02	
   3.5750000e+00	   1.5004499e+00	   4.0508311e-02	
   3.6300000e+00	   1.5172992e+00	   4.3803065e-02	
   3.6850000e+00	   1.5344773e+00	   4.7064363e-02	
   3.7400000e+00	   1.5518739e+00	   5.0295922e-02	
   3.7950000e+00	   1.5693630e+00	   5.3503035e-02	
   3.8500000e+00	   1.5868048e+00	   5.6691749e-02	
   3.9050000e+00	   1.6040537e+00	   5.9869984e-02	
   3.9600000e+00	   1.6209728e+00	   6.3049986e-02	
   4.0150000e+00	   1.6374499e+00	   6.6251211e-02	
   4.0700000e+00	   1.6534135e+00	   6.9502549e-02	
   4.1250000e+00	   1.6688427e+00	   7.2842830e-02	
   4.1800000e+00	   1.6837721e+00	   7.6319257e-02	
   4.2350000e+00	   1.6982866e+00	   7.9984218e-02	
   4.2900000e+00	   1.7125108e+00	   8.3890847e-02	
   4.3450000e+00	   1.7265929e+00	   8.8087127e-02	
   4.4000000e+00	   1.7406843e+00	   9.2608669e-02	
   4.4550000e+00	   1.7549188e+00	   9.7471502e-02	
   4.5100000e+00	   1.7693927e+00	   1.0266702e-01	
   4.5650000e+00	   1.7841536e+00	   1.0816085e-01	
   4.6200000e+00	   1.7991988e+00	   1.1389642e-01	
   4.6750000e+00	   1.8144830e+00	   1.1980286e-01	
   4.7300000e+00	   1.8299331e+00	   1.2580547e-01	
   4.7850000e+00	   1.8454637e+00	   1.3183576e-01	
   4.8400000e+00	   1.8609884e+00	   1.3783780e-01	
   4.8950000e+00	   1.8764256e+00	   1.4376972e-01	
   4.9500000e+00	   1.8916967e+00	   1.4960129e-01	
   5.0050000e+00	   1.9067203e+00	   1.5530946e-01	
   5.0600000e+00	   1.9214037e+00	   1.6087243e-01	
   5.1150000e+00	   1.9356345e+00	   1.6626306e-01	
   5.1700000e+00	   1.9492742e+00	   1.7144282e-01	
   5.2250000e+00	   1.9621532e+00	   1.7635748e-01	
   5.2800000e+00	   1.9740712e+00	   1.8093591e-01	
   5.3350000e+00	   1.9848034e+00	   1.8509353e-01	
   5.3900000e+00	   1.9941167e+00	   1.8874043e-01	
   5.4450000e+00	   2.0017913e+00	   1.9179153e-01	
   5.5000000e+00	   2.0076430e+00	   1.9417513e-01	
   5.5550000e+00	   2.0115404e+00	   1.9583766e-01	
   5.6100000e+00	   2.0134137e+00	   1.9674494e-01	
   5.6650000e+00	   2.0132563e+00	   1.9688052e-01	
   5.7200000e+00	   2.0111199e+00	   1.9624200e-01	
   5.7750000e+00	   2.0071060e+00	   1.9483599e-01	
   5.8300000e+00	   2.0013540e+00	   1.9267293e-01	
   5.8850000e+00	   1.9940293e+00	   1.8976274e-01	
   5.9400000e+00	   1.9853105e+00	   1.8611107e-01	
   5.9950000e+00	   1.9753792e+00	   1.8171606e-01	
   6.0500000e+00	   1.9644152e+00	   1.7656753e-01	
   6.1050000e+00	   1.9525989e+00	   1.7065036e-01	
   6.1600000e+00	   1.9401220e+00	   1.6395217e-01	
   6.2150000e+00	   1.9272004e+00	   1.5647326e-01	
   6.2700000e+00	   1.9140857e+00	   1.4823600e-01	
   6.3250000e+00	   1.9010723e+00	   1.3929139e-01	
   6.3800000e+00	   1.8884972e+00	   1.2972108e-01	
   6.4350000e+00	   1.8767326e+00	   1.1963507e-01	
   6.4900000e+00	   1.8661738e+00	   1.0916606e-01	
   6.5450000e+00	   1.8572228e+00	   9.8461727e-02	
   6.6000000e+00	   1.8502702e+00	   8.7675712e-02	
   6.6550000e+00	   1.8456771e+00	   7.6958682e-02	
   6.7100000e+00	   1.8437567e+00	   6.6450502e-02	
   6.7650000e+00	   1.8447575e+00	   5.6274103e-02	
   6.8200000e+00	   1.8488487e+00	   4.6531257e-02	
   6.8750000e+00	   1.8561078e+00	   3.7300694e-02	
   6.9300000e+00	   1.8665075e+00	   2.8638721e-02	
   6.9850000e+00	   1.8798978e+00	   2.0581416e-02	
   7.0400000e+00	   1.8959796e+00	   1.3146625e-02	
   7.0950000e+00	   1.9142709e+00	   6.3347011e-03	
   7.1500000e+00	   1.9340670e+00	   1.2831130e-04	
   7.2050000e+00	   1.9544067e+00	  -5.5078605e-03	
   7.2600000e+00	   1.9740571e+00	  -1.0627098e-02	
   7.3150000e+00	   1.9915298e+00	  -1.5299839e-02	
   7.3700000e+00	   2.0051230e+00	  -1.9611226e-02	
   7.4250000e+00	   2.0129812e+00	  -2.3656468e-02	
   7.4800000e+00	   2.0131645e+00	  -2.7534092e-02	
   7.5350000e+00	   2.0037240e+00	  -3.1337729e-02	
   7.5900000e+00	   1.9827814e+00	  -3.5147659e-02	
   7.6450000e+00	   1.9486077e+00	  -3.9023853e-02	
   7.7000000e+00	   1.8996985e+00	  -4.3001858e-02	
   7.7550000e+00	   1.8348438e+00	  -4.7091637e-02	
   7.8100000e+00	   1.7531919e+00	  -5.1278917e-02	
   7.8650000e+00	   1.6543069e+00	  -5.5529198e-02	
   7.9200000e+00	   1.5382182e+00	  -5.9794487e-02	
   7.9750000e+00	   1.4054641e+00	  -6.4021263e-02	
   8.0300000e+00	   1.2571289e+00	  -6.8156965e-02	
   8.0850000e+00	   1.0948733e+00	  -7.2153122e-02	
   8.1400000e+00	   9.2095257e-01	  -7.5965008e-02	
   8.1950000e+00	   7.3821916e-01	  -7.9548946e-02	
   8.2500000e+00	   5.5009933e-01	  -8.2858783e-02	
   8.3050000e+00	   3.6053977e-01	  -8.5843010e-02	
   8.3600000e+00	   1.7391763e-01	  -8.8443561e-02	
   8.4150000e+00	  -5.0904026e-03	  -9.0596648e-02	
   8.4700000e+00	  -1.7168308e-01	  -9.2235508e-02	
   8.5250000e+00	  -3.2114823e-01	  -9.3294922e-02	
   8.5800000e+00	  -4.4909420e-01	  -9.3717179e-02	
   8.6350000e+00	  -5.5166787e-01	  -9.3458549e-02	
   8.6900000e+00	  -6.2573480e-01	  -9.2494379e-02	
   8.7450000e+00	  -6.6901219e-01	  -9.0820803e-02	
   8.8000000e+00	  -6.8015588e-01	  -8.8452377e-02	
   8.8550000e+00	  -6.5880562e-01	  -8.5416879e-02	
   8.9100000e+00	  -6.0559333e-01	  -8.1749407e-02	
   8.9650000e+00	  -5.2211787e-01	  -7.7487812e-02	
   9.0200000e+00	  -4.1088863e-01	  -7.2670739e-02	
   9.0750000e+00	  -2.7523668e-01	  -6.7338205e-02	
   9.1300000e+00	  -1.1918877e-01	  -6.1533385e-02	
   9.1850000e+00	   5.2700091e-02	  -5.5304212e-02	
   9.2400000e+00	   2.3555083e-01	  -4.8704020e-02	
   9.2950000e+00	   4.2438095e-01	  -4.1790756e-02	
   9.3500000e+00	   6.1431401e-01	  -3.4624256e-02	
   9.4050000e+00	   8.0075931e-01	  -2.7261646e-02	
   9.4600000e+00	   9.7955663e-01	  -1.9751682e-02	
   9.5150000e+00	   1.1470868e+00	  -1.2129288e-02	
   9.5700000e+00	   1.3003493e+00	  -4.4114580e-03	
   9.6250000e+00	   1.4370083e+00	   3.4041131e-03	
   9.6800000e+00	   1.5554082e+00	   1.1336493e-02	
   9.7350000e+00	   1.6545615e+00	   1.9414878e-02	
   9.7900000e+00	   1.7341132e+00	   2.7669162e-02	
   9.8450000e+00	   1.7942906e+00	   3.6119932e-02	
   9.9000000e+00	   1.8358419e+00	   4.4769935e-02	
   9.9550000e+00	   1.8599722e+00	   5.3598650e-02	
   1.0010000e+01	   1.8682764e+00	   6.2561318e-02	
   1.0065000e+01	   1.8626742e+00	   7.1592978e-02	
   1.0120000e+01	   1.8453436e+00	   8.0616511e-02	
   1.0175000e+01	   1.8186516e+00	   8.9552217e-02	
   1.0230000e+01	   1.7850767e+00	   9.8326139e-02	
   1.0285000e+01	   1.7471202e+00	   1.0687532e-01	
   1.0340000e+01	   1.7072037e+00	   1.1514948e-01	
   1.0395000e+01	   1.6675618e+00	   1.2310985e-01	
   1.0450000e+01	   1.6301540e+00	   1.3072663e-01	
   1.0505000e+01	   1.5966180e+00	   1.3797616e-01	
   1.0560000e+01	   1.5682633e+00	   1.4483783e-01	
   1.0615000e+01	   1.5460825e+00	   1.5129154e-01	
   1.0670000e+01	   1.5307604e+00	   1.5731747e-01	
   1.0725000e+01	   1.5226723e+00	   1.6289904e-01	
   1.0780000e+01	   1.5218689e+00	   1.6802744e-01	
   1.0835000e+01	   1.5280434e+00	   1.7270508e-01	
   1.0890000e+01	   1.5404866e+00	   1.7694693e-01	
   1.0945000e+01	   1.5580514e+00	   1.8077990e-01	
   1.1000000e+01	   1.5791592e+00	   1.8424002e-01	
   1.1055000e+01	   1.6018631e+00	   1.8736782e-01	
   1.1110000e+01	   1.6239534e+00	   1.9020290e-01	
   1.1165000e+01	   1.6430790e+00	   1.9277913e-01	
   1.1220000e+01	   1.6568601e+00	   1.9512186e-01	
   1.1275000e+01	   1.6629897e+00	   1.9724738e-01	
   1.1330000e+01	   1.6593197e+00	   1.9916482e-01	
   1.1385000e+01	   1.6439321e+00	   2.0087945e-01	
   1.1440000e+01	   1.6151893e+00	   2.0239627e-01	
   1.1495000e+01	   1.5717618e+00	   2.0372280e-01	
   1.1550000e+01	   1.5126303e+00	   2.0487079e-01	
   1.1605000e+01	   1.4370739e+00	   2.0585662e-01	
   1.1660000e+01	   1.3446662e+00	   2.0669986e-01	
   1.1715000e+01	   1.2353045e+00	   2.0742023e-01	
   1.1770000e+01	   1.1092687e+00	   2.0803448e-01	
   1.1825000e+01	   9.6728501e-01	   2.0855417e-01	
   1.1880000e+01	   8.1057154e-01	   2.0898536e-01	
   1.1935000e+01	   6.4085640e-01	   2.0933052e-01	
   1.1990000e+01	   4.6036326e-01	   2.0959246e-01	
   1.2045000e+01	   2.7175646e-01	   2.0977867e-01	
   1.2100000e+01	   7.8039414e-02	   2.0990384e-01	
   1.2155000e+01	  -1.1759020e-01	   2.0998935e-01	
   1.2210000e+01	  -3.1190770e-01	   2.1005982e-01	
   1.2265000e+01	  -5.0182136e-01	   2.1013790e-01	
   1.2320000e+01	  -6.8450441e-01	   2.1023822e-01	
   1.2375000e+01	  -8.5749350e-01	   2.1036144e-01	
   1.2430000e+01	  -1.0187545e+00	   2.1048969e-01	
   1.2485000e+01	  -1.1667169e+00	   2.1058511e-01	
   1.2540000e+01	  -1.3002781e+00	   2.1059242e-01	
   1.2595000e+01	  -1.4187842e+00	   2.1044519e-01	
   1.2650000e+01	  -1.5219923e+00	   2.1007478e-01	
   1.2705000e+01	  -1.6100227e+00	   2.0941982e-01	
   1.2760000e+01	  -1.6833085e+00	   2.0843417e-01	
   1.2815000e+01	  -1.7425457e+00	   2.0709174e-01	
   1.2870000e+01	  -1.7886448e+00	   2.0538804e-01	
   1.2925000e+01	  -1.8226827e+00	   2.0333878e-01	
   1.2980000e+01	  -1.8458556e+00	   2.0097602e-01	
   1.3035000e+01	  -1.8594344e+00	   1.9834313e-01	
   1.3090000e+01	  -1.8647228e+00	   1.9549002e-01	
   1.3145000e+01	  -1.8630197e+00	   1.9246980e-01	
   1.3200000e+01	  -1.8555824e+00	   1.8933757e-01	
   1.3255000e+01	  -1.8435954e+00	   1.8615077e-01	
   1.3310000e+01	  -1.8281431e+00	   1.8297039e-01	
   1.3365000e+01	  -1.8101914e+00	   1.7986203e-01	
   1.3420000e+01	  -1.7905790e+00	   1.7689578e-01	
   1.3475000e+01	  -1.7700145e+00	   1.7414463e-01	
   1.3530000e+01	  -1.7490797e+00	   1.7168155e-01	
   1.3585000e+01	  -1.7282354e+00	   1.6957513e-01	
   1.3640000e+01	  -1.7078330e+00	   1.6788325e-01	
   1.3695000e+01	  -1.6881304e+00	   1.6664550e-01	
   1.3750000e+01	  -1.6693113e+00	   1.6587613e-01	
   1.3805000e+01	  -1.6515028e+00	   1.6555954e-01	
   1.3860000e+01	  -1.6347894e+00	   1.6564973e-01	
   1.3915000e+01	  -1.6192220e+00	   1.6607374e-01	
   1.3970000e+01	  -1.6048198e+00	   1.6673952e-01	
   1.4025000e+01	  -1.5915675e+00	   1.6754694e-01	
   1.4080000e+01	  -1.5794100e+00	   1.6839981e-01	
   1.4135000e+01	  -1.5682506e+00	   1.6921651e-01	
   1.4190000e+01	  -1.5579552e+00	   1.6993778e-01	
   1.4245000e+01	  -1.5483623e+00	   1.7053091e-01	
   1.4300000e+01	  -1.5392980e+00	   1.7098936e-01	
   1.4355000e+01	  -1.5305910e+00	   1.7132794e-01	
   1.4410000e+01	  -1.5220883e+00	   1.7157459e-01	
   1.4465000e+01	  -1.5136687e+00	   1.7176096e-01	
   1.4520000e+01	  -1.5052514e+00	   1.7191397e-01	
   1.4575000e+01	  -1.4968020e+00	   1.7204913e-01	
   1.4630000e+01	  -1.4883321e+00	   1.7216684e-01	
   1.4685000e+01	  -1.4798933e+00	   1.7225238e-01	
   1.4740000e+01	  -1.4715649e+00	   1.7227895e-01	
   1.4795000e+01	  -1.4634396e+00	   1.7221235e-01	
   1.4850000e+01	  -1.4556102e+00	   1.7201572e-01	
   1.4905000e+01	  -1.4481586e+00	   1.7165354e-01	
   1.4960000e+01	  -1.4411491e+00	   1.7109412e-01	
   1.5015000e+01	  -1.4346237e+00	   1.7031013e-01	
   1.5070000e+01	  -1.4286028e+00	   1.6927767e-01	
   1.5125000e+01	  -1.4230888e+00	   1.6797473e-01	
   1.5180000e+01	  -1.4180756e+00	   1.6638014e-01	
   1.5235000e+01	  -1.4135608e+00	   1.6447285e-01	
   1.5290000e+01	  -1.4095585e+00	   1.6223125e-01	
   1.5345000e+01	  -1.4061083e+00	   1.5963228e-01	
   1.5400000e+01	  -1.4032808e+00	   1.5665084e-01	
   1.5455000e+01	  -1.4011759e+00	   1.5326063e-01	
   1.5510000e+01	  -1.3999125e+00	   1.4943716e-01	
   1.5565000e+01	  -1.3996121e+00	   1.4516299e-01	
   1.5620000e+01	  -1.4003788e+00	   1.4043363e-01	
   1.5675000e+01	  -1.4022815e+00	   1.3526213e-01	
   1.5730000e+01	  -1.4053415e+00	   1.2968101e-01	
   1.5785000e+01	  -1.4095276e+00	   1.2374173e-01	
   1.5840000e+01	  -1.4147588e+00	   1.1751213e-01	
   1.5895000e+01	  -1.4209151e+00	   1.1107196e-01	
   1.5950000e+01	  -1.4278507e+00	   1.0450693e-01	
   1.6005000e+01	  -1.4354114e+00	   9.7901373e-02	
   1.6060000e+01	  -1.4434517e+00	   9.1329433e-02	
   1.6115000e+01	  -1.4518522e+00	   8.4845539e-02	
   1.6170000e+01	  -1.4605322e+00	   7.8476199e-02	
   1.6225000e+01	  -1.4694542e+00	   7.2215908e-02	
   1.6280000e+01	  -1.4786191e+00	   6.6028416e-02	
   1.6335000e+01	  -1.4880530e+00	   5.9852900e-02	
   1.6390000e+01	  -1.4977896e+00	   5.3613687e-02	
   1.6445000e+01	  -1.5078526e+00	   4.7231622e-02	
   1.6500000e+01	  -1.5182429e+00	   4.0634811e-02	
   1.6555000e+01	  -1.5289317e+00	   3.3766896e-02	
   1.6610000e+01	  -1.5398613e+00	   2.6592022e-02	
   1.6665000e+01	  -1.5509506e+00	   1.9096461e-02	
   1.6720000e+01	  -1.5621041e+00	   1.1286950e-02	
   1.6775000e+01	  -1.5732217e+00	   3.1861076e-03	
   1.6830000e+01	  -1.5842082e+00	  -5.1736359e-03	
   1.6885000e+01	  -1.5949811e+00	  -1.3755572e-02	
   1.6940000e+01	  -1.6054740e+00	  -2.2522176e-02	
   1.6995000e+01	  -1.6156357e+00	  -3.1435547e-02	
   1.7050000e+01	  -1.6254253e+00	  -4.0454345e-02	
   1.7105000e+01	  -1.6348042e+00	  -4.9528089e-02	
   1.7160000e+01	  -1.6437293e+00	  -5.8591421e-02	
   1.7215000e+01	  -1.6521512e+00	  -6.7561059e-02	
   1.7270000e+01	  -1.6600168e+00	  -7.6336613e-02	
   1.7325000e+01	  -1.6672765e+00	  -8.4805307e-02	
   1.7380000e+01	  -1.6738947e+00	  -9.2850336e-02	
   1.7435000e+01	  -1.6798602e+00	  -1.0036202e-01	
   1.7490000e+01	  -1.6851966e+00	  -1.0724989e-01	
   1.7545000e+01	  -1.6899685e+00	  -1.1345365e-01	
   1.7600000e+01	  -1.6942834e+00	  -1.1895137e-01	
   1.7655000e+01	  -1.6982875e+00	  -1.2376374e-01	
   1.7710000e+01	  -1.7021563e+00	  -1.2795293e-01	
   1.7765000e+01	  -1.7060763e+00	  -1.3161538e-01	
   1.7820000e+01	  -1.7102223e+00	  -1.3486945e-01	
   1.7875000e+01	  -1.7147321e+00	  -1.3784076e-01	
   1.7930000e+01	  -1.7196881e+00	  -1.4064788e-01	
   1.7985000e+01	  -1.7251048e+00	  -1.4339047e-01	
   1.8040000e+01	  -1.7309261e+00	  -1.4614098e-01	
   1.8095000e+01	  -1.7370291e+00	  -1.4894068e-01	
   1.8150000e+01	  -1.7432367e+00	  -1.5180016e-01	
   1.8205000e+01	  -1.7493357e+00	  -1.5470427e-01	
   1.8260000e+01	  -1.7550992e+00	  -1.5762048e-01	
   1.8315000e+01	  -1.7603091e+00	  -1.6050931e-01	
   1.8370000e+01	  -1.7647765e+00	  -1.6333531e-01	
   1.8425000e+01	  -1.7683575e+00	  -1.6607673e-01	
   1.8480000e+01	  -1.7709626e+00	  -1.6873278e-01	
   1.8535000e+01	  -1.7725607e+00	  -1.7132747e-01	
   1.8590000e+01	  -1.7731760e+00	  -1.7390824e-01	
   1.8645000e+01	  -1.7728766e+00	  -1.7653888e-01	
   1.8700000e+01	  -1.7717570e+00	  -1.7928853e-01	
   1.8755000e+01	  -1.7699201e+00	  -1.8222015e-01	
   1.8810000e+01	  -1.7674643e+00	  -1.8538115e-01	
   1.8865000e+01	  -1.7644760e+00	  -1.8879733e-01	
   1.8920000e+01	  -1.7610290e+00	  -1.9247047e-01	
   1.8975000e+01	  -1.7571860e+00	  -1.9637952e-01	
   1.9030000e+01	  -1.7530049e+00	  -2.0048420e-01	
   1.9085000e+01	  -1.7485435e+00	  -2.0472996e-01	
   1.9140000e+01	  -1.7438655e+00	  -2.0905449e-01	
   1.9195000e+01	  -1.7390455e+00	  -2.1339613e-01	
   1.9250000e+01	  -1.7341722e+00	  -2.1770342e-01	
   1.9305000e+01	  -1.7293486e+00	  -2.2194289e-01	
   1.9360000e+01	  -1.7246851e+00	  -2.2610242e-01	
   1.9415000e+01	  -1.7202863e+00	  -2.3018833e-01	
   1.9470000e+01	  -1.7162329e+00	  -2.3421686e-01	
   1.9525000e+01	  -1.7125642e+00	  -2.3820295e-01	
   1.9580000e+01	  -1.7092670e+00	  -2.4215028e-01	
   1.9635000e+01	  -1.7062736e+00	  -2.4604505e-01	
   1.9690000e+01	  -1.7034716e+00	  -2.4985423e-01	
   1.9745000e+01	  -1.7007196e+00	  -2.5352758e-01	
   1.9800000e+01	  -1.6978659e+00	  -2.5700307e-01	
   1.9855000e+01	  -1.6947645e+00	  -2.6021458e-01	
   1.9910000e+01	  -1.6912883e+00	  -2.6310028e-01	
   1.9965000e+01	  -1.6873368e+00	  -2.6561000e-01	
   2.0020000e+01	  -1.6828413e+00	  -2.6771144e-01	
   2.0075000e+01	  -1.6777684e+00	  -2.6939526e-01	
   2.0130000e+01	  -1.6721197e+00	  -2.7067763e-01	
   2.0185000e+01	  -1.6659271e+00	  -2.7159855e-01	
   2.0240000e+01	  -1.6592437e+00	  -2.7221553e-01	
   2.0295000e+01	  -1.6521325e+00	  -2.7259502e-01	
   2.0350000e+01	  -1.6446583e+00	  -2.7280437e-01	
   2.0405000e+01	  -1.6368810e+00	  -2.7290613e-01	
   2.0460000e+01	  -1.6288545e+00	  -2.7295513e-01	
   2.0515000e+01	  -1.6206279e+00	  -2.7299795e-01	
   2.0570000e+01	  -1.6122487e+00	  -2.7307359e-01	
   2.0625000e+01	  -1.6037670e+00	  -2.7321428e-01	
   2.0680000e+01	  -1.5952386e+00	  -2.7344671e-01	
   2.0735000e+01	  -1.5867278e+00	  -2.7379407e-01	
   2.0790000e+01	  -1.5783080e+00	  -2.7427824e-01	
   2.0845000e+01	  -1.5700576e+00	  -2.7492075e-01	
   2.0900000e+01	  -1.5620503e+00	  -2.7574155e-01	
   2.0955000e+01	  -1.5543434e+00	  -2.7675537e-01	
   2.1010000e+01	  -1.5469667e+00	  -2.7796671e-01	
   2.1065000e+01	  -1.5399153e+00	  -2.7936509e-01	
   2.1120000e+01	  -1.5331472e+00	  -2.8092235e-01	
   2.1175000e+01	  -1.5265876e+00	  -2.8259360e-01	
   2.1230000e+01	  -1.5201388e+00	  -2.8432178e-01	
   2.1285000e+01	  -1.5136952e+00	  -2.8604504e-01	
   2.1340000e+01	  -1.5071600e+00	  -2.8770543e-01	
   2.1395000e+01	  -1.5004595e+00	  -2.8925718e-01	
   2.1450000e+01	  -1.4935545e+00	  -2.9067247e-01	
   2.1505000e+01	  -1.4864438e+00	  -2.9194316e-01	
   2.1560000e+01	  -1.4791615e+00	  -2.9307784e-01	
   2.1615000e+01	  -1.4717669e+00	  -2.9409529e-01	
   2.1670000e+01	  -1.4643318e+00	  -2.9501639e-01	
   2.1725000e+01	  -1.4569261e+00	  -2.9585638e-01	
   2.1780000e+01	  -1.4496078e+00	  -2.9661939e-01	
   2.1835000e+01	  -1.4424171e+00	  -2.9729613e-01	
   2.1890000e+01	  -1.4353761e+00	  -2.9786475e-01	
   2.1945000e+01	  -1.4284931e+00	  -2.9829420e-01	
   2.2000000e+01	  -1.4217700e+00	  -2.9854919e-01	
   2.2055000e+01	  -1.4152116e+00	  -2.9859617e-01	
   2.2110000e+01	  -1.4088349e+00	  -2.9841005e-01	
   2.2165000e+01	  -1.4026767e+00	  -2.9798037e-01	
   2.2220000e+01	  -1.3967959e+00	  -2.9731490e-01	
   2.2275000e+01	  -1.3912686e+00	  -2.9643917e-01	
   2.2330000e+01	  -1.3861765e+00	  -2.9539155e-01	
   2.2385000e+01	  -1.3815915e+00	  -2.9421569e-01	
   2.2440000e+01	  -1.3775612e+00	  -2.9295284e-01	
   2.2495000e+01	  -1.3740994e+00	  -2.9163648e-01	
   2.2550000e+01	  -1.3711841e+00	  -2.9028973e-01	
   2.2605000e+01	  -1.3687602e+00	  -2.8892417e-01	
   2.2660000e+01	  -1.3667460e+00	  -2.8753962e-01	
   2.2715000e+01	  -1.3650414e+00	  -2.8612587e-01	
   2.2770000e+01	  -1.3635397e+00	  -2.8466699e-01	
   2.2825000e+01	  -1.3621395e+00	  -2.8314710e-01	
   2.2880000e+01	  -1.3607573e+00	  -2.8155621e-01	
   2.2935000e+01	  -1.3593379e+00	  -2.7989531e-01	
   2.2990000e+01	  -1.3578603e+00	  -2.7818014e-01	
   2.3045000e+01	  -1.3563368e+00	  -2.7644212e-01	
   2.3100000e+01	  -1.3548036e+00	  -2.7472561e-01	
   2.3155000e+01	  -1.3533055e+00	  -2.7308142e-01	
   2.3210000e+01	  -1.3518778e+00	  -2.7155776e-01	
   2.3265000e+01	  -1.3505312e+00	  -2.7019081e-01	
   2.3320000e+01	  -1.3492418e+00	  -2.6899737e-01	
   2.3375000e+01	  -1.3479489e+00	  -2.6797139e-01	
   2.3430000e+01	  -1.3465579e+00	  -2.6708473e-01	
   2.3485000e+01	  -1.3449495e+00	  -2.6629165e-01	
   2.3540000e+01	  -1.3429930e+00	  -2.6553626e-01	
   2.3595000e+01	  -1.3405637e+00	  -2.6476190e-01	
   2.3650000e+01	  -1.3375622e+00	  -2.6392052e-01	
   2.3705000e+01	  -1.3339326e+00	  -2.6298069e-01	
   2.3760000e+01	  -1.3296767e+00	  -2.6193337e-01	
   2.3815000e+01	  -1.3248602e+00	  -2.6079490e-01	
   2.3870000e+01	  -1.3196098e+00	  -2.5960634e-01	
   2.3925000e+01	  -1.3140986e+00	  -2.5842789e-01	
   2.3980000e+01	  -1.3085242e+00	  -2.5732904e-01	
   2.4035000e+01	  -1.3030832e+00	  -2.5637670e-01	
   2.4090000e+01	  -1.2979506e+00	  -2.5562393e-01	
   2.4145000e+01	  -1.2932652e+00	  -2.5510086e-01	
   2.4200000e+01	  -1.2891229e+00	  -2.5480915e-01	
   2.4255000e+01	  -1.2855759e+00	  -2.5472078e-01	
   2.4310000e+01	  -1.2826381e+00	  -2.5478128e-01	
   2.4365000e+01	  -1.2802963e+00	  -2.5491568e-01	
   2.4420000e+01	  -1.2785228e+00	  -2.5503585e-01	
   2.4475000e+01	  -1.2772876e+00	  -2.5504879e-01	
   2.4530000e+01	  -1.2765683e+00	  -2.5486540e-01	
   2.4585000e+01	  -1.2763570e+00	  -2.5440875e-01	
   2.4640000e+01	  -1.2766631e+00	  -2.5362091e-01	
   2.4695000e+01	  -1.2775100e+00	  -2.5246738e-01	
   2.4750000e+01	  -1.2789237e+00	  -2.5093732e-01	
   2.4805000e+01	  -1.2809147e+00	  -2.4903906e-01	
   2.4860000e+01	  -1.2834613e+00	  -2.4679246e-01	
   2.4915000e+01	  -1.2864972e+00	  -2.4422110e-01	
   2.4970000e+01	  -1.2899086e+00	  -2.4134626e-01	
   2.5025000e+01	  -1.2935404e+00	  -2.3818401e-01	
   2.5080000e+01	  -1.2972101e+00	  -2.3474581e-01	
   2.5135000e+01	  -1.3007264e+00	  -2.3104247e-01	
   2.5190000e+01	  -1.3039083e+00	  -2.2708885e-01	
   2.5245000e+01	  -1.3066000e+00	  -2.2290735e-01	
   2.5300000e+01	  -1.3086815e+00	  -2.1852932e-01	
   2.5355000e+01	  -1.3100738e+00	  -2.1399504e-01	
   2.5410000e+01	  -1.3107392e+00	  -2.0935242e-01	
   2.5465000e+01	  -1.3106770e+00	  -2.0465426e-01	
   2.5520000e+01	  -1.3099136e+00	  -1.9995381e-01	
   2.5575000e+01	  -1.3084894e+00	  -1.9529910e-01	
   2.5630000e+01	  -1.3064458e+00	  -1.9072689e-01	
   2.5685000e+01	  -1.3038142e+00	  -1.8625719e-01	
   2.5740000e+01	  -1.3006094e+00	  -1.8188965e-01	
   2.5795000e+01	  -1.2968305e+00	  -1.7760334e-01	
   2.5850000e+01	  -1.2924676e+00	  -1.7336107e-01	
   2.5905000e+01	  -1.2875154e+00	  -1.6911729e-01	
   2.5960000e+01	  -1.2819879e+00	  -1.6482748e-01	
   2.6015000e+01	  -1.2759296e+00	  -1.6045660e-01	
   2.6070000e+01	  -1.2694199e+00	  -1.5598463e-01	
   2.6125000e+01	  -1.2625704e+00	  -1.5140775e-01	
   2.6180000e+01	  -1.2555130e+00	  -1.4673497e-01	
   2.6235000e+01	  -1.2483841e+00	  -1.4198209e-01	
   2.6290000e+01	  -1.2413085e+00	  -1.3716489e-01	
   2.6345000e+01	  -1.2343862e+00	  -1.3229320e-01	
   2.6400000e+01	  -1.2276855e+00	  -1.2736722e-01	
   2.6455000e+01	  -1.2212430e+00	  -1.2237729e-01	
   2.6510000e+01	  -1.2150687e+00	  -1.1730721e-01	
   2.6565000e+01	  -1.2091563e+00	  -1.1213951e-01	
   2.6620000e+01	  -1.2034944e+00	  -1.0686122e-01	
   2.6675000e+01	  -1.1980780e+00	  -1.0146945e-01	
   2.6730000e+01	  -1.1929195e+00	  -9.5976874e-02	
   2.6785000e+01	  -1.1880582e+00	  -9.0417175e-02	
   2.6840000e+01	  -1.1835675e+00	  -8.4849589e-02	
   2.6895000e+01	  -1.1795568e+00	  -7.9361279e-02	
   2.6950000e+01	  -1.1761663e+00	  -7.4065712e-02	
   2.7005000e+01	  -1.1735526e+00	  -6.9095608e-02	
   2.7060000e+01	  -1.1718667e+00	  -6.4590767e-02	
   2.7115000e+01	  -1.1712305e+00	  -6.0683310e-02	
   2.7170000e+01	  -1.1717175e+00	  -5.7483491e-02	
   2.7225000e+01	  -1.1733401e+00	  -5.5068296e-02	
   2.7280000e+01	  -1.1760441e+00	  -5.3474234e-02	
   2.7335000e+01	  -1.1797089e+00	  -5.2695439e-02	
   2.7390000e+01	  -1.1841573e+00	  -5.2687315e-02	
   2.7445000e+01	  -1.1891700e+00	  -5.3374481e-02	
   2.7500000e+01	  -1.1945051e+00	  -5.4660952e-02	
   2.7555000e+01	  -1.1999186e+00	  -5.6441108e-02	
   2.7610000e+01	  -1.2051859e+00	  -5.8610790e-02	
   2.7665000e+01	  -1.2101214e+00	  -6.1077776e-02	
   2.7720000e+01	  -1.2145944e+00	  -6.3770286e-02	
   2.7775000e+01	  -1.2185370e+00	  -6.6641881e-02	
   2.7830000e+01	  -1.2219430e+00	  -6.9671526e-02	
   2.7885000e+01	  -1.2248559e+00	  -7.2858759e-02	
   2.7940000e+01	  -1.2273500e+00	  -7.6215324e-02	
   2.7995000e+01	  -1.2295069e+00	  -7.9755463e-02	
   2.8050000e+01	  -1.2313948e+00	  -8.3486630e-02	
   2.8105000e+01	  -1.2330524e+00	  -8.7401455e-02	
   2.8160000e+01	  -1.2344788e+00	  -9.1471535e-02	
   2.8215000e+01	  -1.2356306e+00	  -9.5644117e-02	
   2.8270000e+01	  -1.2364261e+00	  -9.9842610e-02	
   2.8325000e+01	  -1.2367561e+00	  -1.0397113e-01	
   2.8380000e+01	  -1.2364995e+00	  -1.0792264e-01	
   2.8435000e+01	  -1.2355427e+00	  -1.1159014e-01	
   2.8490000e+01	  -1.2338014e+00	  -1.1487957e-01	
   2.8545000e+01	  -1.2312412e+00	  -1.1772239e-01	
   2.8600000e+01	  -1.2278914e+00	  -1.2008555e-01	
   2.8655000e+01	  -1.2238497e+00	  -1.2197728e-01	
   2.8710000e+01	  -1.2192788e+00	  -1.2344752e-01	
   2.8765000e+01	  -1.2143922e+00	  -1.2458230e-01	
   2.8820000e+01	  -1.2094351e+00	  -1.2549349e-01	
   2.8875000e+01	  -1.2046592e+00	  -1.2630653e-01	
   2.8930000e+01	  -1.2002983e+00	  -1.2714873e-01	
   2.8985000e+01	  -1.1965456e+00	  -1.2813895e-01	
   2.9040000e+01	  -1.1935364e+00	  -1.2937969e-01	
   2.9095000e+01	  -1.1913398e+00	  -1.3095254e-01	
   2.9150000e+01	  -1.1899591e+00	  -1.3291706e-01	
   2.9205000e+01	  -1.1893409e+00	  -1.3531235e-01	
   2.9260000e+01	  -1.1893893e+00	  -1.3816049e-01	
   2.9315000e+01	  -1.1899842e+00	  -1.4147153e-01	
   2.9370000e+01	  -1.1909984e+00	  -1.4524841e-01	
   2.9425000e+01	  -1.1923121e+00	  -1.4949080e-01	
   2.9480000e+01	  -1.1938205e+00	  -1.5419660e-01	
   2.9535000e+01	  -1.1954344e+00	  -1.5936120e-01	
   2.9590000e+01	  -1.1970747e+00	  -1.6497402e-01	
   2.9645000e+01	  -1.1986624e+00	  -1.7101296e-01	
   2.9700000e+01	  -1.2001090e+00	  -1.7743821e-01	
   2.9755000e+01	  -1.2013112e+00	  -1.8418777e-01	
   2.9810000e+01	  -1.2021493e+00	  -1.9117610e-01	
   2.9865000e+01	  -1.2024905e+00	  -1.9829614e-01	
   2.9920000e+01	  -1.2021966e+00	  -2.0542520e-01	
   2.9975000e+01	  -1.2011340e+00	  -2.1243447e-01	
   3.0030000e+01	  -1.1991883e+00	  -2.1920038e-01	
   3.0085000e+01	  -1.1962773e+00	  -2.2561496e-01	
   3.0140000e+01	  -1.1923603e+00	  -2.3159298e-01	
   3.0195000e+01	  -1.1874415e+00	  -2.3707524e-01	
   3.0250000e+01	  -1.1815656e+00	  -2.4202809e-01	
   3.0305000e+01	  -1.1748079e+00	  -2.4643978e-01	
   3.0360000e+01	  -1.1672617e+00	  -2.5031435e-01	
   3.0415000e+01	  -1.1590246e+00	  -2.5366514e-01	
   3.0470000e+01	  -1.1501885e+00	  -2.5650905e-01	
   3.0525000e+01	  -1.1408323e+00	  -2.5886172e-01	
   3.0580000e+01	  -1.1310201e+00	  -2.6073367e-01	
   3.0635000e+01	  -1.1208055e+00	  -2.6212846e-01	
   3.0690000e+01	  -1.1102395e+00	  -2.6304388e-01	
   3.0745000e+01	  -1.0993802e+00	  -2.6347623e-01	
   3.0800000e+01	  -1.0883018e+00	  -2.6342657e-01	
   3.0855000e+01	  -1.0771020e+00	  -2.6290764e-01	
   3.0910000e+01	  -1.0659071e+00	  -2.6194997e-01	
   3.0965000e+01	  -1.0548723e+00	  -2.6060514e-01	
   3.1020000e+01	  -1.0441746e+00	  -2.5894465e-01	
   3.1075000e+01	  -1.0339988e+00	  -2.5705404e-01	
   3.1130000e+01	  -1.0245167e+00	  -2.5502240e-01	
   3.1185000e+01	  -1.0158657e+00	  -2.5292929e-01	
   3.1240000e+01	  -1.0081294e+00	  -2.5083166e-01	
   3.1295000e+01	  -1.0013243e+00	  -2.4875395e-01	
   3.1350000e+01	  -9.9539636e-01	  -2.4668322e-01	
   3.1405000e+01	  -9.9022694e-01	  -2.4456988e-01	
   3.1460000e+01	  -9.8564593e-01	  -2.4233285e-01	
   3.1515000e+01	  -9.8144928e-01	  -2.3986827e-01	
   3.1570000e+01	  -9.7741789e-01	  -2.3706077e-01	
   3.1625000e+01	  -9.7333645e-01	  -2.3379663e-01	
   3.1680000e+01	  -9.6901188e-01	  -2.2997768e-01	
   3.1735000e+01	  -9.6429028e-01	  -2.2553499e-01	
   3.1790000e+01	  -9.5907074e-01	  -2.2044087e-01	
   3.1845000e+01	  -9.5331367e-01	  -2.1471743e-01	
   3.1900000e+01	  -9.4704129e-01	  -2.0843934e-01	
   3.1955000e+01	  -9.4032948e-01	  -2.0173007e-01	
   3.2010000e+01	  -9.3329204e-01	  -1.9475193e-01	
   3.2065000e+01	  -9.2606073e-01	  -1.8769149e-01	
   3.2120000e+01	  -9.1876460e-01	  -1.8074231e-01	
   3.2175000e+01	  -9.1151195e-01	  -1.7408758e-01	
   3.2230000e+01	  -9.0437653e-01	  -1.6788524e-01	
   3.2285000e+01	  -8.9738918e-01	  -1.6225714e-01	
   3.2340000e+01	  -8.9053573e-01	  -1.5728296e-01	
   3.2395000e+01	  -8.8376162e-01	  -1.5299914e-01	
   3.2450000e+01	  -8.7698272e-01	  -1.4940254e-01	
   3.2505000e+01	  -8.7010103e-01	  -1.4645755e-01	
   3.2560000e+01	  -8.6302338e-01	  -1.4410563e-01	
   3.2615000e+01	  -8.5568094e-01	  -1.4227660e-01	
   3.2670000e+01	  -8.4804779e-01	  -1.4090058e-01	
   3.2725000e+01	  -8.4015566e-01	  -1.3991868e-01	
   3.2780000e+01	  -8.3210200e-01	  -1.3929075e-01	
   3.2835000e+01	  -8.2404946e-01	  -1.3899952e-01	
   3.2890000e+01	  -8.1621610e-01	  -1.3905045e-01	
   3.2945000e+01	  -8.0885615e-01	  -1.3946667e-01	
   3.3000000e+01	  -8.0223336e-01	  -1.4027933e-01	
   3.3055000e+01	  -7.9659098e-01	  -1.4151500e-01	
   3.3110000e+01	  -7.9212354e-01	  -1.4318338e-01	
   3.3165000e+01	  -7.8895451e-01	  -1.4526800e-01	
   3.3220000e+01	  -7.8712169e-01	  -1.4772174e-01	
   3.3275000e+01	  -7.8657215e-01	  -1.5046734e-01	
   3.3330000e+01	  -7.8716760e-01	  -1.5340222e-01	
   3.3385000e+01	  -7.8869952e-01	  -1.5640712e-01	
   3.3440000e+01	  -7.9091137e-01	  -1.5935698e-01	
   3.3495000e+01	  -7.9352443e-01	  -1.6213312e-01	
   3.3550000e+01	  -7.9626493e-01	  -1.6463575e-01	
   3.3605000e+01	  -7.9889097e-01	  -1.6679565e-01	
   3.3660000e+01	  -8.0121662e-01	  -1.6858370e-01	
   3.3715000e+01	  -8.0313012e-01	  -1.7001669e-01	
   3.3770000e+01	  -8.0460211e-01	  -1.7115790e-01	
   3.3825000e+01	  -8.0568061e-01	  -1.7211096e-01	
   3.3880000e+01	  -8.0647311e-01	  -1.7300677e-01	
   3.3935000e+01	  -8.0712021e-01	  -1.7398589e-01	
   3.3990000e+01	  -8.0776849e-01	  -1.7518086e-01	
   3.4045000e+01	  -8.0854805e-01	  -1.7670123e-01	
   3.4100000e+01	  -8.0955682e-01	  -1.7862261e-01	
   3.4155000e+01	  -8.1085185e-01	  -1.8098006e-01	
   3.4210000e+01	  -8.1244721e-01	  -1.8376648e-01	
   3.4265000e+01	  -8.1431756e-01	  -1.8693518e-01	
   3.4320000e+01	  -8.1640540e-01	  -1.9040567e-01	
   3.4375000e+01	  -8.1863127e-01	  -1.9407201e-01	
   3.4430000e+01	  -8.2090652e-01	  -1.9781345e-01	
   3.4485000e+01	  -8.2314841e-01	  -2.0150688e-01	
   3.4540000e+01	  -8.2529606e-01	  -2.0503964e-01	
   3.4595000e+01	  -8.2732368e-01	  -2.0832089e-01	
   3.4650000e+01	  -8.2924655e-01	  -2.1128912e-01	
   3.4705000e+01	  -8.3111670e-01	  -2.1391400e-01	
   3.4760000e+01	  -8.3300825e-01	  -2.1619180e-01	
   3.4815000e+01	  -8.3499665e-01	  -2.1813630e-01	
   3.4870000e+01	  -8.3713798e-01	  -2.1976851e-01	
   3.4925000e+01	  -8.3945288e-01	  -2.2110754e-01	
   3.4980000e+01	  -8.4191704e-01	  -2.2216388e-01	
   3.5035000e+01	  -8.4445904e-01	  -2.2293528e-01	
   3.5090000e+01	  -8.4696616e-01	  -2.2340630e-01	
   3.5145000e+01	  -8.4929676e-01	  -2.2355191e-01	
   3.5200000e+01	  -8.5129693e-01	  -2.2334451e-01	
   3.5255000e+01	  -8.5281898e-01	  -2.2276269e-01	
   3.5310000e+01	  -8.5374061e-01	  -2.2180026e-01	
   3.5365000e+01	  -8.5398289e-01	  -2.2047391e-01	
   3.5420000e+01	  -8.5352257e-01	  -2.1882763e-01	
   3.5475000e+01	  -8.5239386e-01	  -2.1693179e-01	
   3.5530000e+01	  -8.5067741e-01	  -2.1487633e-01	
   3.5585000e+01	  -8.4847904e-01	  -2.1275888e-01	
   3.5640000e+01	  -8.4590329e-01	  -2.1067042e-01	
   3.5695000e+01	  -8.4302822e-01	  -2.0868162e-01	
   3.5750000e+01	  -8.3988649e-01	  -2.0683309e-01	
   3.5805000e+01	  -8.3645565e-01	  -2.0513072e-01	
   3.5860000e+01	  -8.3265847e-01	  -2.0354575e-01	
   3.5915000e+01	  -8.2837312e-01	  -2.0201904e-01	
   3.5970000e+01	  -8.2345145e-01	  -2.0046927e-01	
   3.6025000e+01	  -8.1774132e-01	  -1.9880371e-01	
   3.6080000e+01	  -8.1110855e-01	  -1.9692949e-01	
   3.6135000e+01	  -8.0345523e-01	  -1.9476374e-01	
   3.6190000e+01	  -7.9473308e-01	  -1.9224146e-01	
   3.6245000e+01	  -7.8495022e-01	  -1.8932083e-01	
   3.6300000e+01	  -7.7416936e-01	  -1.8598473e-01	
   3.6355000e+01	  -7.6249688e-01	  -1.8223802e-01	
   3.6410000e+01	  -7.5006540e-01	  -1.7810082e-01	
   3.6465000e+01	  -7.3701456e-01	  -1.7359942e-01	
   3.6520000e+01	  -7.2347352e-01	  -1.6875648e-01	
   3.6575000e+01	  -7.0954685e-01	  -1.6358276e-01	
   3.6630000e+01	  -6.9530543e-01	  -1.5807248e-01	
   3.6685000e+01	  -6.8078352e-01	  -1.5220320e-01	
   3.6740000e+01	  -6.6598188e-01	  -1.4593942e-01	
   3.6795000e+01	  -6.5087625e-01	  -1.3923897e-01	
   3.6850000e+01	  -6.3542999e-01	  -1.3206134e-01	
   3.6905000e+01	  -6.1960973e-01	  -1.2437721e-01	
   3.6960000e+01	  -6.0340119e-01	  -1.1617733e-01	
   3.7015000e+01	  -5.8682222e-01	  -1.0747903e-01	
   3.7070000e+01	  -5.6993073e-01	  -9.8329518e-02	
   3.7125000e+01	  -5.5282652e-01	  -8.8805427e-02	
   3.7180000e+01	  -5.3564609e-01	  -7.9008018e-02	
   3.7235000e+01	  -5.1855131e-01	  -6.9054021e-02	
   3.7290000e+01	  -5.0171483e-01	  -5.9063925e-02	
   3.7345000e+01	  -4.8530568e-01	  -4.9150598e-02	
   3.7400000e+01	  -4.6947751e-01	  -3.9410463e-02	
   3.7455000e+01	  -4.5436008e-01	  -2.9918237e-02	
   3.7510000e+01	  -4.4005437e-01	  -2.0725782e-02	
   3.7565000e+01	  -4.2663229e-01	  -1.1864979e-02	
   3.7620000e+01	  -4.1414060e-01	  -3.3534816e-03	
   3.7675000e+01	  -4.0260764e-01	   4.7983548e-03	
   3.7730000e+01	  -3.9205192e-01	   1.2580414e-02	
   3.7785000e+01	  -3.8249160e-01	   1.9976234e-02	
   3.7840000e+01	  -3.7395244e-01	   2.6958018e-02	
   3.7895000e+01	  -3.6647091e-01	   3.3484798e-02	
   3.7950000e+01	  -3.6008968e-01	   3.9504926e-02	
   3.8005000e+01	  -3.5484620e-01	   4.4963025e-02	
   3.8060000e+01	  -3.5075698e-01	   4.9810056e-02	
   3.8115000e+01	  -3.4780211e-01	   5.4013597e-02	
   3.8170000e+01	  -3.4591430e-01	   5.7565203e-02	
   3.8225000e+01	  -3.4497541e-01	   6.0483287e-02	
   3.8280000e+01	  -3.4481997e-01	   6.2811979e-02	
   3.8335000e+01	  -3.4524445e-01	   6.4616955e-02	
   3.8390000e+01	  -3.4602127e-01	   6.5978922e-02	
   3.8445000e+01	  -3.4691670e-01	   6.6985531e-02	
   3.8500000e+01	  -3.4771054e-01	   6.7722922e-02	
   3.8555000e+01	  -3.4821401e-01	   6.8267877e-02	
   3.8610000e+01	  -3.4828306e-01	   6.8681130e-02	
   3.8665000e+01	  -3.4782486e-01	   6.9002504e-02	
   3.8720000e+01	  -3.4679700e-01	   6.9249174e-02	
   3.8775000e+01	  -3.4519948e-01	   6.9418410e-02	
   3.8830000e+01	  -3.4306075e-01	   6.9494665e-02	
   3.8885000e+01	  -3.4042103e-01	   6.9458903e-02	
   3.8940000e+01	  -3.3731639e-01	   6.9297594e-02	
   3.8995000e+01	  -3.3376619e-01	   6.9009767e-02	
   3.9050000e+01	  -3.2976536e-01	   6.8611125e-02	
   3.9105000e+01	  -3.2528264e-01	   6.8134466e-02	
   3.9160000e+01	  -3.2026527e-01	   6.7626749e-02	
   3.9215000e+01	  -3.1464828e-01	   6.7144466e-02	
   3.9270000e+01	  -3.0836614e-01	   6.6748703e-02	
   3.9325000e+01	  -3.0136473e-01	   6.6499974e-02	
   3.9380000e+01	  -2.9361185e-01	   6.6452949e-02	
   3.9435000e+01	  -2.8510409e-01	   6.6652148e-02	
   3.9490000e+01	  -2.7586848e-01	   6.7129945e-02	
   3.9545000e+01	  -2.6595770e-01	   6.7907649e-02	
   3.9600000e+01	  -2.5543865e-01	   6.8999678e-02	
   3.9655000e+01	  -2.4437629e-01	   7.0419575e-02	
   3.9710000e+01	  -2.3281753e-01	   7.2185558e-02	
   3.9765000e+01	  -2.2078064e-01	   7.4323322e-02	
   3.9820000e+01	  -2.0825275e-01	   7.6864999e-02	
   3.9875000e+01	  -1.9519460e-01	   7.9844686e-02	
   3.9930000e+01	  -1.8154995e-01	   8.3291966e-02	
   3.9985000e+01	  -1.6725684e-01	   8.7224938e-02	
   4.0040000e+01	  -1.5225925e-01	   9.1643715e-02	
   4.0095000e+01	  -1.3651760e-01	   9.6525014e-02	
   4.0150000e+01	  -1.2001747e-01	   1.0181858e-01	
   4.0205000e+01	  -1.0277520e-01	   1.0744643e-01	
   4.0260000e+01	  -8.4838360e-02	   1.1330588e-01	
   4.0315000e+01	  -6.6279073e-02	   1.1927687e-01	
   4.0370000e+01	  -4.7181212e-02	   1.2523234e-01	
   4.0425000e+01	  -2.7625059e-02	   1.3104939e-01	
   4.0480000e+01	  -7.6730377e-03	   1.3661922e-01	
   4.0535000e+01	   1.2641242e-02	   1.4185502e-01	
   4.0590000e+01	   3.3318348e-02	   1.4669708e-01	
   4.0645000e+01	   5.4390715e-02	   1.5111391e-01	
   4.0700000e+01	   7.5913027e-02	   1.5509921e-01	
   4.0755000e+01	   9.7947851e-02	   1.5866593e-01	
   4.0810000e+01	   1.2054846e-01	   1.6183839e-01	
   4.0865000e+01	   1.4374014e-01	   1.6464337e-01	
   4.0920000e+01	   1.6750344e-01	   1.6710182e-01	
   4.0975000e+01	   1.9176450e-01	   1.6922304e-01	
   4.1030000e+01	   2.1639557e-01	   1.7100235e-01	
   4.1085000e+01	   2.4122520e-01	   1.7242277e-01	
   4.1140000e+01	   2.6605564e-01	   1.7346138e-01	
   4.1195000e+01	   2.9068405e-01	   1.7409920e-01	
   4.1250000e+01	   3.1492262e-01	   1.7433147e-01	
   4.1305000e+01	   3.3861254e-01	   1.7417468e-01	
   4.1360000e+01	   3.6162972e-01	   1.7366904e-01	
   4.1415000e+01	   3.8388298e-01	   1.7287684e-01	
   4.1470000e+01	   4.0530646e-01	   1.7187731e-01	
   4.1525000e+01	   4.2584857e-01	   1.7075849e-01	
   4.1580000e+01	   4.4546014e-01	   1.6960711e-01	
   4.1635000e+01	   4.6408421e-01	   1.6849841e-01	
   4.1690000e+01	   4.8164756e-01	   1.6748698e-01	
   4.1745000e+01	   4.9805367e-01	   1.6659884e-01	
   4.1800000e+01	   5.1317764e-01	   1.6582566e-01	
   4.1855000e+01	   5.2686517e-01	   1.6512209e-01	
   4.1910000e+01	   5.3893720e-01	   1.6440727e-01	
   4.1965000e+01	   5.4920144e-01	   1.6357069e-01	
   4.2020000e+01	   5.5746991e-01	   1.6248262e-01	
   4.2075000e+01	   5.6357956e-01	   1.6100820e-01	
   4.2130000e+01	   5.6741107e-01	   1.5902266e-01	
   4.2185000e+01	   5.6890303e-01	   1.5642494e-01	
   4.2240000e+01	   5.6806049e-01	   1.5314795e-01	
   4.2295000e+01	   5.6495764e-01	   1.4916468e-01	
   4.2350000e+01	   5.5973325e-01	   1.4448885e-01	
   4.2405000e+01	   5.5257860e-01	   1.3916973e-01	
   4.2460000e+01	   5.4372041e-01	   1.3328240e-01	
   4.2515000e+01	   5.3340270e-01	   1.2691583e-01	
   4.2570000e+01	   5.2186985e-01	   1.2016103e-01	
   4.2625000e+01	   5.0935123e-01	   1.1310055e-01	
   4.2680000e+01	   4.9604851e-01	   1.0580089e-01	
   4.2735000e+01	   4.8212878e-01	   9.8309074e-02	
   4.2790000e+01	   4.6772594e-01	   9.0653954e-02	
   4.2845000e+01	   4.5295022e-01	   8.2851323e-02	
   4.2900000e+01	   4.3790238e-01	   7.4910862e-02	
   4.2955000e+01	   4.2268883e-01	   6.6843081e-02	
   4.3010000e+01	   4.0743459e-01	   5.8665154e-02	
   4.3065000e+01	   3.9229129e-01	   5.0405066e-02	
   4.3120000e+01	   3.7743829e-01	   4.2103753e-02	
   4.3175000e+01	   3.6307691e-01	   3.3815060e-02	
   4.3230000e+01	   3.4941918e-01	   2.5603151e-02	
   4.3285000e+01	   3.3667325e-01	   1.7537496e-02	
   4.3340000e+01	   3.2502755e-01	   9.6866270e-03	
   4.3395000e+01	   3.1463594e-01	   2.1124655e-03	
   4.3450000e+01	   3.0560606e-01	  -5.1335214e-03	
   4.3505000e+01	   2.9799252e-01	  -1.2011782e-02	
   4.3560000e+01	   2.9179640e-01	  -1.8493359e-02	
   4.3615000e+01	   2.8697188e-01	  -2.4555869e-02	
   4.3670000e+01	   2.8343831e-01	  -3.0178202e-02	
   4.3725000e+01	   2.8109331e-01	  -3.5335899e-02	
   4.3780000e+01	   2.7982320e-01	  -3.9998124e-02	
   4.3835000e+01	   2.7951006e-01	  -4.4126050e-02	
   4.3890000e+01	   2.8003589e-01	  -4.7672898e-02	
   4.3945000e+01	   2.8128393e-01	  -5.0586450e-02	
   4.4000000e+01	   2.8313622e-01	  -5.2814581e-02	
   4.4055000e+01	   2.8546758e-01	  -5.4313482e-02	
   4.4110000e+01	   2.8813810e-01	  -5.5057356e-02	
   4.4165000e+01	   2.9098674e-01	  -5.5047753e-02	
   4.4220000e+01	   2.9382836e-01	  -5.4320815e-02	
   4.4275000e+01	   2.9645575e-01	  -5.2950867e-02	
   4.4330000e+01	   2.9864797e-01	  -5.1048824e-02	
   4.4385000e+01	   3.0018498e-01	  -4.8754447e-02	
   4.4440000e+01	   3.0086682e-01	  -4.6223208e-02	
   4.4495000e+01	   3.0053384e-01	  -4.3610316e-02	
   4.4550000e+01	   2.9908462e-01	  -4.1055089e-02	
   4.4605000e+01	   2.9648923e-01	  -3.8668383e-02	
   4.4660000e+01	   2.9279562e-01	  -3.6524721e-02	
   4.4715000e+01	   2.8812745e-01	  -3.4659535e-02	
   4.4770000e+01	   2.8267328e-01	  -3.3071305e-02	
   4.4825000e+01	   2.7666774e-01	  -3.1728502e-02	
   4.4880000e+01	   2.7036652e-01	  -3.0580559e-02	
   4.4935000e+01	   2.6401917e-01	  -2.9570720e-02	
   4.4990000e+01	   2.5784509e-01	  -2.8648285e-02	
   4.5045000e+01	   2.5201661e-01	  -2.7778561e-02	
   4.5100000e+01	   2.4665024e-01	  -2.6949240e-02	
   4.5155000e+01	   2.4180743e-01	  -2.6171567e-02	
   4.5210000e+01	   2.3750566e-01	  -2.5475505e-02	
   4.5265000e+01	   2.3373739e-01	  -2.4900376e-02	
   4.5320000e+01	   2.3049088e-01	  -2.4484139e-02	
   4.5375000e+01	   2.2776720e-01	  -2.4254020e-02	
   4.5430000e+01	   2.2559080e-01	  -2.4219750e-02	
   4.5485000e+01	   2.2401162e-01	  -2.4370024e-02	
   4.5540000e+01	   2.2309802e-01	  -2.4672878e-02	
   4.5595000e+01	   2.2292179e-01	  -2.5080271e-02	
   4.5650000e+01	   2.2353923e-01	  -2.5535936e-02	
   4.5705000e+01	   2.2497299e-01	  -2.5984663e-02	
   4.5760000e+01	   2.2719794e-01	  -2.6381395e-02	
   4.5815000e+01	   2.3013271e-01	  -2.6699170e-02	
   4.5870000e+01	   2.3363750e-01	  -2.6935109e-02	
   4.5925000e+01	   2.3751838e-01	  -2.7113536e-02	
   4.5980000e+01	   2.4153798e-01	  -2.7285314e-02	
   4.6035000e+01	   2.4543254e-01	  -2.7522497e-02	
   4.6090000e+01	   2.4893397e-01	  -2.7908426e-02	
   4.6145000e+01	   2.5179356e-01	  -2.8525410e-02	
   4.6200000e+01	   2.5380220e-01	  -2.9443402e-02	
   4.6255000e+01	   2.5480405e-01	  -3.0712057e-02	
   4.6310000e+01	   2.5470266e-01	  -3.2356757e-02	
   4.6365000e+01	   2.5345995e-01	  -3.4378619e-02	
   4.6420000e+01	   2.5108846e-01	  -3.6758398e-02	
   4.6475000e+01	   2.4763851e-01	  -3.9463239e-02	
   4.6530000e+01	   2.4318289e-01	  -4.2454485e-02	
   4.6585000e+01	   2.3780144e-01	  -4.5695204e-02	
   4.6640000e+01	   2.3156698e-01	  -4.9156804e-02	
   4.6695000e+01	   2.2453405e-01	  -5.2823910e-02	
   4.6750000e+01	   2.1673321e-01	  -5.6696363e-02	
   4.6805000e+01	   2.0817347e-01	  -6.0787388e-02	
   4.6860000e+01	   1.9885268e-01	  -6.5117649e-02	
   4.6915000e+01	   1.8877275e-01	  -6.9706023e-02	
   4.6970000e+01	   1.7795530e-01	  -7.4559235e-02	
   4.7025000e+01	   1.6645428e-01	  -7.9663181e-02	
   4.7080000e+01	   1.5436295e-01	  -8.4978051e-02	
   4.7135000e+01	   1.4181359e-01	  -9.0438041e-02	
   4.7190000e+01	   1.2897010e-01	  -9.5955349e-02	
   4.7245000e+01	   1.1601523e-01	  -1.0142784e-01	
   4.7300000e+01	   1.0313503e-01	  -1.0674930e-01	
   4.7355000e+01	   9.0502737e-02	  -1.1182030e-01	
   4.7410000e+01	   7.8263768e-02	  -1.1655776e-01	
   4.7465000e+01	   6.6523724e-02	  -1.2090207e-01	
   4.7520000e+01	   5.5341523e-02	  -1.2482182e-01	
   4.7575000e+01	   4.4729319e-02	  -1.2831541e-01	
   4.7630000e+01	   3.4660207e-02	  -1.3140849e-01	
   4.7685000e+01	   2.5083776e-02	  -1.3414661e-01	
   4.7740000e+01	   1.5947571e-02	  -1.3658456e-01	
   4.7795000e+01	   7.2202097e-03	  -1.3877487e-01	
   4.7850000e+01	  -1.0890147e-03	  -1.4075788e-01	
   4.7905000e+01	  -8.9183226e-03	  -1.4255520e-01	
   4.7960000e+01	  -1.6151758e-02	  -1.4416729e-01	
   4.8015000e+01	  -2.2627436e-02	  -1.4557440e-01	
   4.8070000e+01	  -2.8153324e-02	  -1.4673995e-01	
   4.8125000e+01	  -3.2527268e-02	  -1.4761561e-01	
   4.8180000e+01	  -3.5558419e-02	  -1.4814783e-01	
   4.8235000e+01	  -3.7087707e-02	  -1.4828542e-01	
   4.8290000e+01	  -3.7004537e-02	  -1.4798651e-01	
   4.8345000e+01	  -3.5256479e-02	  -1.4722319e-01	
   4.8400000e+01	  -3.1849754e-02	  -1.4598238e-01	
   4.8455000e+01	  -2.6840655e-02	  -1.4426296e-01	
   4.8510000e+01	  -2.0320522e-02	  -1.4207000e-01	
   4.8565000e+01	  -1.2398731e-02	  -1.3940775e-01	
   4.8620000e+01	  -3.1880837e-03	  -1.3627344e-01	
   4.8675000e+01	   7.2052861e-03	  -1.3265306e-01	
   4.8730000e+01	   1.8687307e-02	  -1.2851947e-01	
   4.8785000e+01	   3.1176457e-02	  -1.2383317e-01	
   4.8840000e+01	   4.4598976e-02	  -1.1854646e-01	
   4.8895000e+01	   5.8879933e-02	  -1.1261085e-01	
   4.8950000e+01	   7.3932805e-02	  -1.0598692e-01	
   4.9005000e+01	   8.9650236e-02	  -9.8654189e-02	
   4.9060000e+01	   1.0589769e-01	  -9.0619698e-02	
   4.9115000e+01	   1.2251153e-01	  -8.1923529e-02	
   4.9170000e+01	   1.3930401e-01	  -7.2639261e-02	
   4.9225000e+01	   1.5607731e-01	  -6.2867685e-02	
   4.9280000e+01	   1.7264564e-01	  -5.2724259e-02	
   4.9335000e+01	   1.8886001e-01	  -4.2323247e-02	
   4.9390000e+01	   2.0462906e-01	  -3.1762261e-02	
   4.9445000e+01	   2.1993115e-01	  -2.1110217e-02	
   4.9500000e+01	   2.3481702e-01	  -1.0400468e-02	
   4.9555000e+01	   2.4940340e-01	   3.7031012e-04	
   4.9610000e+01	   2.6385865e-01	   1.1237785e-02	
   4.9665000e+01	   2.7838105e-01	   2.2260698e-02	
   4.9720000e+01	   2.9317219e-01	   3.3507586e-02	
   4.9775000e+01	   3.0840899e-01	   4.5041532e-02	
   4.9830000e+01	   3.2421923e-01	   5.6905913e-02	
   4.9885000e+01	   3.4066471e-01	   6.9113554e-02	
   4.9940000e+01	   3.5773443e-01	   8.1640367e-02	
   4.9995000e+01	   3.7534873e-01	   9.4424155e-02	
   5.0050000e+01	   3.9337396e-01	   1.0736951e-01	
   5.0105000e+01	   4.1164388e-01	   1.2035859e-01	
   5.0160000e+01	   4.2998154e-01	   1.3326488e-01	
   5.0215000e+01	   4.4821649e-01	   1.4596608e-01	
   5.0270000e+01	   4.6619583e-01	   1.5835384e-01	
   5.0325000e+01	   4.8379051e-01	   1.7034005e-01	
   5.0380000e+01	   5.0089792e-01	   1.8185980e-01	
   5.0435000e+01	   5.1744136e-01	   1.9287132e-01	
   5.0490000e+01	   5.3336705e-01	   2.0335325e-01	
   5.0545000e+01	   5.4863865e-01	   2.1330000e-01	
   5.0600000e+01	   5.6322853e-01	   2.2271516e-01	
   5.0655000e+01	   5.7710786e-01	   2.3160357e-01	
   5.0710000e+01	   5.9023974e-01	   2.3996414e-01	
   5.0765000e+01	   6.0257883e-01	   2.4778562e-01	
   5.0820000e+01	   6.1407773e-01	   2.5504704e-01	
   5.0875000e+01	   6.2469733e-01	   2.6172262e-01	
   5.0930000e+01	   6.3441789e-01	   2.6778991e-01	
   5.0985000e+01	   6.4324783e-01	   2.7323892e-01	
   5.1040000e+01	   6.5122841e-01	   2.7807963e-01	
   5.1095000e+01	   6.5843351e-01	   2.8234581e-01	
   5.1150000e+01	   6.6496455e-01	   2.8609432e-01	
   5.1205000e+01	   6.7094103e-01	   2.8940089e-01	
   5.1260000e+01	   6.7648785e-01	   2.9235327e-01	
   5.1315000e+01	   6.8172165e-01	   2.9504268e-01	
   5.1370000e+01	   6.8673863e-01	   2.9755501e-01	
   5.1425000e+01	   6.9160534e-01	   2.9996273e-01	
   5.1480000e+01	   6.9635273e-01	   3.0231832e-01	
   5.1535000e+01	   7.0097434e-01	   3.0464997e-01	
   5.1590000e+01	   7.0543071e-01	   3.0696069e-01	
   5.1645000e+01	   7.0966108e-01	   3.0923216e-01	
   5.1700000e+01	   7.1359950e-01	   3.1143175e-01	
   5.1755000e+01	   7.1718910e-01	   3.1352017e-01	
   5.1810000e+01	   7.2039127e-01	   3.1545785e-01	
   5.1865000e+01	   7.2319011e-01	   3.1721034e-01	
   5.1920000e+01	   7.2559411e-01	   3.1875231e-01	
   5.1975000e+01	   7.2763531e-01	   3.2006949e-01	
   5.2030000e+01	   7.2936561e-01	   3.2115809e-01	
   5.2085000e+01	   7.3085039e-01	   3.2202259e-01	
   5.2140000e+01	   7.3215937e-01	   3.2267218e-01	
   5.2195000e+01	   7.3335519e-01	   3.2311595e-01	
   5.2250000e+01	   7.3448151e-01	   3.2335789e-01	
   5.2305000e+01	   7.3555523e-01	   3.2339366e-01	
   5.2360000e+01	   7.3656585e-01	   3.2321099e-01	
   5.2415000e+01	   7.3748229e-01	   3.2279382e-01	
   5.2470000e+01	   7.3826420e-01	   3.2212959e-01	
   5.2525000e+01	   7.3887497e-01	   3.2121786e-01	
   5.2580000e+01	   7.3929359e-01	   3.2007782e-01	
   5.2635000e+01	   7.3952231e-01	   3.1875217e-01	
   5.2690000e+01	   7.3958783e-01	   3.1730691e-01	
   5.2745000e+01	   7.3953557e-01	   3.1582759e-01	
   5.2800000e+01	   7.3941820e-01	   3.1441233e-01	
   5.2855000e+01	   7.3928088e-01	   3.1316195e-01	
   5.2910000e+01	   7.3914724e-01	   3.1216870e-01	
   5.2965000e+01	   7.3901035e-01	   3.1150619e-01	
   5.3020000e+01	   7.3882936e-01	   3.1122191e-01	
   5.3075000e+01	   7.3853046e-01	   3.1133236e-01	
   5.3130000e+01	   7.3801154e-01	   3.1182101e-01	
   5.3185000e+01	   7.3715256e-01	   3.1264002e-01	
   5.3240000e+01	   7.3583248e-01	   3.1371673e-01	
   5.3295000e+01	   7.3395063e-01	   3.1496465e-01	
   5.3350000e+01	   7.3144726e-01	   3.1629630e-01	
   5.3405000e+01	   7.2831888e-01	   3.1763471e-01	
   5.3460000e+01	   7.2462572e-01	   3.1892047e-01	
   5.3515000e+01	   7.2049087e-01	   3.2011369e-01	
   5.3570000e+01	   7.1609121e-01	   3.2119162e-01	
   5.3625000e+01	   7.1164120e-01	   3.2214423e-01	
   5.3680000e+01	   7.0737215e-01	   3.2296954e-01	
   5.3735000e+01	   7.0350946e-01	   3.2366913e-01	
   5.3790000e+01	   7.0024936e-01	   3.2424334e-01	
   5.3845000e+01	   6.9773597e-01	   3.2468612e-01	
   5.3900000e+01	   6.9604099e-01	   3.2498016e-01	
   5.3955000e+01	   6.9514923e-01	   3.2509251e-01	
   5.4010000e+01	   6.9495325e-01	   3.2497140e-01	
   5.4065000e+01	   6.9525943e-01	   3.2454610e-01	
   5.4120000e+01	   6.9580642e-01	   3.2373189e-01	
   5.4175000e+01	   6.9629391e-01	   3.2243989e-01	
   5.4230000e+01	   6.9641636e-01	   3.2058951e-01	
   5.4285000e+01	   6.9589533e-01	   3.1812085e-01	
   5.4340000e+01	   6.9450550e-01	   3.1500463e-01	
   5.4395000e+01	   6.9209174e-01	   3.1124781e-01	
   5.4450000e+01	   6.8857572e-01	   3.0689399e-01	
   5.4505000e+01	   6.8395302e-01	   3.0201885e-01	
   5.4560000e+01	   6.7828311e-01	   2.9672212e-01	
   5.4615000e+01	   6.7167466e-01	   2.9111733e-01	
   5.4670000e+01	   6.6426808e-01	   2.8531999e-01	
   5.4725000e+01	   6.5621637e-01	   2.7943532e-01	
   5.4780000e+01	   6.4766667e-01	   2.7354677e-01	
   5.4835000e+01	   6.3874474e-01	   2.6770663e-01	
   5.4890000e+01	   6.2954377e-01	   2.6193015e-01	
   5.4945000e+01	   6.2011894e-01	   2.5619472e-01	
   5.5000000e+01	   6.1048983e-01	   2.5044497e-01	
   5.5055000e+01	   6.0065126e-01	   2.4460320e-01	
   5.5110000e+01	   5.9058938e-01	   2.3858226e-01	
   5.5165000e+01	   5.8029807e-01	   2.3229840e-01	
   5.5220000e+01	   5.6979218e-01	   2.2568233e-01	
   5.5275000e+01	   5.5911549e-01	   2.1868760e-01	
   5.5330000e+01	   5.4834162e-01	   2.1129525e-01	
   5.5385000e+01	   5.3756827e-01	   2.0351487e-01	
   5.5440000e+01	   5.2690706e-01	   1.9538304e-01	
   5.5495000e+01	   5.1647091e-01	   1.8695911e-01	
   5.5550000e+01	   5.0635938e-01	   1.7831804e-01	
   5.5605000e+01	   4.9664341e-01	   1.6954084e-01	
   5.5660000e+01	   4.8735181e-01	   1.6070411e-01	
   5.5715000e+01	   4.7846099e-01	   1.5187050e-01	
   5.5770000e+01	   4.6988894e-01	   1.4308107e-01	
   5.5825000e+01	   4.6149543e-01	   1.3435090e-01	
   5.5880000e+01	   4.5309152e-01	   1.2566986e-01	
   5.5935000e+01	   4.4445967e-01	   1.1700880e-01	
   5.5990000e+01	   4.3538157e-01	   1.0832990e-01	
   5.6045000e+01	   4.2566700e-01	   9.9598132e-02	
   5.6100000e+01	   4.1517740e-01	   9.0791339e-02	
   5.6155000e+01	   4.0384083e-01	   8.1907186e-02	
   5.6210000e+01	   3.9165794e-01	   7.2966776e-02	
   5.6265000e+01	   3.7870035e-01	   6.4015406e-02	
   5.6320000e+01	   3.6510257e-01	   5.5120774e-02	
   5.6375000e+01	   3.5104829e-01	   4.6368557e-02	
   5.6430000e+01	   3.3675158e-01	   3.7855316e-02	
   5.6485000e+01	   3.2243493e-01	   2.9679408e-02	
   5.6540000e+01	   3.0830639e-01	   2.1931236e-02	
   5.6595000e+01	   2.9453852e-01	   1.4684172e-02	
   5.6650000e+01	   2.8125268e-01	   7.9874190e-03	
   5.6705000e+01	   2.6851190e-01	   1.8624027e-03	
   5.6760000e+01	   2.5632511e-01	  -3.6957077e-03	
   5.6815000e+01	   2.4466232e-01	  -8.7114197e-03	
   5.6870000e+01	   2.3347523e-01	  -1.3219720e-02	
   5.6925000e+01	   2.2271606e-01	  -1.7257152e-02	
   5.6980000e+01	   2.1235057e-01	  -2.0854703e-02	
   5.7035000e+01	   2.0236541e-01	  -2.4033125e-02	
   5.7090000e+01	   1.9277048e-01	  -2.6801325e-02	
   5.7145000e+01	   1.8359583e-01	  -2.9158099e-02	
   5.7200000e+01	   1.7488407e-01	  -3.1096282e-02	
   5.7255000e+01	   1.6668041e-01	  -3.2607687e-02	
   5.7310000e+01	   1.5902196e-01	  -3.3687997e-02	
   5.7365000e+01	   1.5192702e-01	  -3.4341499e-02	
   5.7420000e+01	   1.4538730e-01	  -3.4584865e-02	
   5.7475000e+01	   1.3936603e-01	  -3.4448642e-02	
   5.7530000e+01	   1.3380374e-01	  -3.3975785e-02	
   5.7585000e+01	   1.2863073e-01	  -3.3217177e-02	
   5.7640000e+01	   1.2378405e-01	  -3.2224458e-02	
   5.7695000e+01	   1.1922500e-01	  -3.1041625e-02	
   5.7750000e+01	   1.1495283e-01	  -2.9697886e-02	
   5.7805000e+01	   1.1101252e-01	  -2.8203359e-02	
   5.7860000e+01	   1.0749745e-01	  -2.6547284e-02	
   5.7915000e+01	   1.0454760e-01	  -2.4698058e-02	
   5.7970000e+01	   1.0234281e-01	  -2.2605605e-02	
   5.8025000e+01	   1.0108959e-01	  -2.0206906e-02	
   5.8080000e+01	   1.0100167e-01	  -1.7434439e-02	
   5.8135000e+01	   1.0227699e-01	  -1.4226131e-02	
   5.8190000e+01	   1.0507436e-01	  -1.0535160e-02	
   5.8245000e+01	   1.0949332e-01	  -6.3381817e-03	
   5.8300000e+01	   1.1556065e-01	  -1.6406420e-03	
   5.8355000e+01	   1.2322687e-01	   3.5221335e-03	
   5.8410000e+01	   1.3237427e-01	   9.0887964e-03	
   5.8465000e+01	   1.4283417e-01	   1.4980064e-02	
   5.8520000e+01	   1.5440865e-01	   2.1109047e-02	
   5.8575000e+01	   1.6689209e-01	   2.7391667e-02	
   5.8630000e+01	   1.8008968e-01	   3.3755589e-02	
   5.8685000e+01	   1.9383079e-01	   4.0146471e-02	
   5.8740000e+01	   2.0797558e-01	   4.6530689e-02	
   5.8795000e+01	   2.2241479e-01	   5.2894573e-02	
   5.8850000e+01	   2.3706437e-01	   5.9240565e-02	
   5.8905000e+01	   2.5185594e-01	   6.5580750e-02	
   5.8960000e+01	   2.6672422e-01	   7.1928711e-02	
   5.9015000e+01	   2.8159406e-01	   7.8291376e-02	
   5.9070000e+01	   2.9636983e-01	   8.4662011e-02	
   5.9125000e+01	   3.1092897e-01	   9.1014942e-02	
   5.9180000e+01	   3.2512103e-01	   9.7303216e-02	
   5.9235000e+01	   3.3877441e-01	   1.0346097e-01	
   5.9290000e+01	   3.5171169e-01	   1.0941100e-01	
   5.9345000e+01	   3.6377083e-01	   1.1507598e-01	
   5.9400000e+01	   3.7482728e-01	   1.2039064e-01	
   5.9455000e+01	   3.8481196e-01	   1.2531248e-01	
   5.9510000e+01	   3.9372208e-01	   1.2982906e-01	
   5.9565000e+01	   4.0162300e-01	   1.3396043e-01	
   5.9620000e+01	   4.0864195e-01	   1.3775705e-01	
   5.9675000e+01	   4.1495583e-01	   1.4129397e-01	
   5.9730000e+01	   4.2077491e-01	   1.4466285e-01	
   5.9785000e+01	   4.2632433e-01	   1.4796251e-01	
   5.9840000e+01	   4.3182488e-01	   1.5128935e-01	
   5.9895000e+01	   4.3747414e-01	   1.5472816e-01	
   5.9950000e+01	   4.4342896e-01	   1.5834352e-01	
   6.0005000e+01	   4.4979107e-01	   1.6217256e-01	
   6.0060000e+01	   4.5659873e-01	   1.6622071e-01	
   6.0115000e+01	   4.6382648e-01	   1.7046215e-01	
   6.0170000e+01	   4.7139375e-01	   1.7484572e-01	
   6.0225000e+01	   4.7918075e-01	   1.7930476e-01	
   6.0280000e+01	   4.8704824e-01	   1.8376850e-01	
   6.0335000e+01	   4.9485756e-01	   1.8817233e-01	
   6.0390000e+01	   5.0248837e-01	   1.9246538e-01	
   6.0445000e+01	   5.0985167e-01	   1.9661370e-01	
   6.0500000e+01	   5.1689599e-01	   2.0059875e-01	
   6.0555000e+01	   5.2360669e-01	   2.0441290e-01	
   6.0610000e+01	   5.3000023e-01	   2.0805439e-01	
   6.0665000e+01	   5.3611465e-01	   2.1152245e-01	
   6.0720000e+01	   5.4199680e-01	   2.1481228e-01	
   6.0775000e+01	   5.4768882e-01	   2.1791017e-01	
   6.0830000e+01	   5.5321687e-01	   2.2078988e-01	
   6.0885000e+01	   5.5858361e-01	   2.2341030e-01	
   6.0940000e+01	   5.6376560e-01	   2.2571455e-01	
   6.0995000e+01	   5.6871644e-01	   2.2763128e-01	
   6.1050000e+01	   5.7337673e-01	   2.2908007e-01	
   6.1105000e+01	   5.7768888e-01	   2.2998103e-01	
   6.1160000e+01	   5.8161237e-01	   2.3026659e-01	
   6.1215000e+01	   5.8513566e-01	   2.2989283e-01	
   6.1270000e+01	   5.8828260e-01	   2.2884837e-01	
   6.1325000e+01	   5.9111358e-01	   2.2715922e-01	
   6.1380000e+01	   5.9372199e-01	   2.2488936e-01	
   6.1435000e+01	   5.9622725e-01	   2.2213765e-01	
   6.1490000e+01	   5.9876612e-01	   2.1903226e-01	
   6.1545000e+01	   6.0148302e-01	   2.1572306e-01	
   6.1600000e+01	   6.0451955e-01	   2.1237156e-01	
   6.1655000e+01	   6.0800311e-01	   2.0913949e-01	
   6.1710000e+01	   6.1203678e-01	   2.0617784e-01	
   6.1765000e+01	   6.1669403e-01	   2.0361891e-01	
   6.1820000e+01	   6.2202107e-01	   2.0157260e-01	
   6.1875000e+01	   6.2804702e-01	   2.0012698e-01	
   6.1930000e+01	   6.3479909e-01	   1.9935206e-01	
   6.1985000e+01	   6.4231890e-01	   1.9930496e-01	
   6.2040000e+01	   6.5067518e-01	   2.0003435e-01	
   6.2095000e+01	   6.5996975e-01	   2.0158335e-01	
   6.2150000e+01	   6.7033522e-01	   2.0399082e-01	
   6.2205000e+01	   6.8192500e-01	   2.0729107e-01	
   6.2260000e+01	   6.9489719e-01	   2.1151144e-01	
   6.2315000e+01	   7.0939505e-01	   2.1666767e-01	
   6.2370000e+01	   7.2552677e-01	   2.2275820e-01	
   6.2425000e+01	   7.4334662e-01	   2.2975888e-01	
   6.2480000e+01	   7.6283900e-01	   2.3761922e-01	
   6.2535000e+01	   7.8390781e-01	   2.4626055e-01	
   6.2590000e+01	   8.0637473e-01	   2.5557757e-01	
   6.2645000e+01	   8.2998965e-01	   2.6544463e-01	
   6.2700000e+01	   8.5445215e-01	   2.7572648e-01	
   6.2755000e+01	   8.7943977e-01	   2.8629100e-01	
   6.2810000e+01	   9.0463730e-01	   2.9702068e-01	
   6.2865000e+01	   9.2976288e-01	   3.0782075e-01	
   6.2920000e+01	   9.5458735e-01	   3.1862385e-01	
   6.2975000e+01	   9.7894567e-01	   3.2939145e-01	
   6.3030000e+01	   1.0027403e+00	   3.4011280e-01	
   6.3085000e+01	   1.0259368e+00	   3.5080105e-01	
   6.3140000e+01	   1.0485520e+00	   3.6148601e-01	
   6.3195000e+01	   1.0706373e+00	   3.7220395e-01	
   6.3250000e+01	   1.0922583e+00	   3.8298638e-01	
   6.3305000e+01	   1.1134765e+00	   3.9384942e-01	
   6.3360000e+01	   1.1343324e+00	   4.0478504e-01	
   6.3415000e+01	   1.1548329e+00	   4.1575481e-01	
   6.3470000e+01	   1.1749481e+00	   4.2668806e-01	
   6.3525000e+01	   1.1946159e+00	   4.3748636e-01	
   6.3580000e+01	   1.2137564e+00	   4.4803389e-01	
   6.3635000e+01	   1.2322893e+00	   4.5821093e-01	
   6.3690000e+01	   1.2501508e+00	   4.6790741e-01	
   6.3745000e+01	   1.2673057e+00	   4.7703393e-01	
   6.3800000e+01	   1.2837536e+00	   4.8552875e-01	
   6.3855000e+01	   1.2995287e+00	   4.9336029e-01	
   6.3910000e+01	   1.3146927e+00	   5.0052602e-01	
   6.3965000e+01	   1.3293260e+00	   5.0704930e-01	
   6.4020000e+01	   1.3435167e+00	   5.1297434e-01	
   6.4075000e+01	   1.3573488e+00	   5.1835927e-01	
   6.4130000e+01	   1.3708895e+00	   5.2326735e-01	
   6.4185000e+01	   1.3841753e+00	   5.2775767e-01	
   6.4240000e+01	   1.3972002e+00	   5.3187660e-01	
   6.4295000e+01	   1.4099078e+00	   5.3565128e-01	
   6.4350000e+01	   1.4221926e+00	   5.3908692e-01	
   6.4405000e+01	   1.4339106e+00	   5.4216887e-01	
   6.4460000e+01	   1.4448970e+00	   5.4486853e-01	
   6.4515000e+01	   1.4549855e+00	   5.4715055e-01	
   6.4570000e+01	   1.4640250e+00	   5.4897930e-01	
   6.4625000e+01	   1.4718923e+00	   5.5032401e-01	
   6.4680000e+01	   1.4784996e+00	   5.5116229e-01	
   6.4735000e+01	   1.4837969e+00	   5.5148202e-01	
   6.4790000e+01	   1.4877678e+00	   5.5128164e-01	
   6.4845000e+01	   1.4904229e+00	   5.5056913e-01	
   6.4900000e+01	   1.4917901e+00	   5.4935957e-01	
   6.4955000e+01	   1.4919055e+00	   5.4767101e-01	
   6.5010000e+01	   1.4908052e+00	   5.4551958e-01	
   6.5065000e+01	   1.4885195e+00	   5.4291599e-01	
   6.5120000e+01	   1.4850723e+00	   5.3986584e-01	
   6.5175000e+01	   1.4804873e+00	   5.3637459e-01	
   6.5230000e+01	   1.4748001e+00	   5.3245535e-01	
   6.5285000e+01	   1.4680690e+00	   5.2813696e-01	
   6.5340000e+01	   1.4603840e+00	   5.2346950e-01	
   6.5395000e+01	   1.4518675e+00	   5.1852568e-01	
   6.5450000e+01	   1.4426693e+00	   5.1339755e-01	
   6.5505000e+01	   1.4329565e+00	   5.0819017e-01	
   6.5560000e+01	   1.4229009e+00	   5.0301385e-01	
   6.5615000e+01	   1.4126681e+00	   4.9797564e-01	
   6.5670000e+01	   1.4024056e+00	   4.9316996e-01	
   6.5725000e+01	   1.3922323e+00	   4.8866918e-01	
   6.5780000e+01	   1.3822295e+00	   4.8451486e-01	
   6.5835000e+01	   1.3724349e+00	   4.8071095e-01	
   6.5890000e+01	   1.3628395e+00	   4.7722040e-01	
   6.5945000e+01	   1.3533893e+00	   4.7396704e-01	
   6.6000000e+01	   1.3439937e+00	   4.7084312e-01	
   6.6055000e+01	   1.3345389e+00	   4.6772131e-01	
   6.6110000e+01	   1.3249056e+00	   4.6446885e-01	
   6.6165000e+01	   1.3149878e+00	   4.6096168e-01	
   6.6220000e+01	   1.3047118e+00	   4.5709719e-01	
   6.6275000e+01	   1.2940523e+00	   4.5280387e-01	
   6.6330000e+01	   1.2830393e+00	   4.4804623e-01	
   6.6385000e+01	   1.2717556e+00	   4.4282445e-01	
   6.6440000e+01	   1.2603258e+00	   4.3716974e-01	
   6.6495000e+01	   1.2488990e+00	   4.3113663e-01	
   6.6550000e+01	   1.2376267e+00	   4.2479339e-01	
   6.6605000e+01	   1.2266389e+00	   4.1821170e-01	
   6.6660000e+01	   1.2160203e+00	   4.1145704e-01	
   6.6715000e+01	   1.2057925e+00	   4.0458017e-01	
   6.6770000e+01	   1.1959033e+00	   3.9760997e-01	
   6.6825000e+01	   1.1862236e+00	   3.9054798e-01	
   6.6880000e+01	   1.1765546e+00	   3.8336655e-01	
   6.6935000e+01	   1.1666466e+00	   3.7601197e-01	
   6.6990000e+01	   1.1562260e+00	   3.6841271e-01	
   6.7045000e+01	   1.1450273e+00	   3.6049056e-01	
   6.7100000e+01	   1.1328215e+00	   3.5217291e-01	
   6.7155000e+01	   1.1194384e+00	   3.4340398e-01	
   6.7210000e+01	   1.1047777e+00	   3.3415313e-01	
   6.7265000e+01	   1.0888108e+00	   3.2441903e-01	
   6.7320000e+01	   1.0715757e+00	   3.1423022e-01	
   6.7375000e+01	   1.0531685e+00	   3.0364318e-01	
   6.7430000e+01	   1.0337333e+00	   2.9273801e-01	
   6.7485000e+01	   1.0134497e+00	   2.8161171e-01	
   6.7540000e+01	   9.9251771e-01	   2.7036940e-01	
   6.7595000e+01	   9.7114294e-01	   2.5911458e-01	
   6.7650000e+01	   9.4952304e-01	   2.4793943e-01	
   6.7705000e+01	   9.2783552e-01	   2.3691633e-01	
   6.7760000e+01	   9.0622739e-01	   2.2609174e-01	
   6.7815000e+01	   8.8480850e-01	   2.1548391e-01	
   6.7870000e+01	   8.6365022e-01	   2.0508481e-01	
   6.7925000e+01	   8.4279029e-01	   1.9486574e-01	
   6.7980000e+01	   8.2224228e-01	   1.8478504e-01	
   6.8035000e+01	   8.0200697e-01	   1.7479610e-01	
   6.8090000e+01	   7.8208297e-01	   1.6485389e-01	
   6.8145000e+01	   7.6247471e-01	   1.5491934e-01	
   6.8200000e+01	   7.4319662e-01	   1.4496103e-01	
   6.8255000e+01	   7.2427293e-01	   1.3495489e-01	
   6.8310000e+01	   7.0573334e-01	   1.2488254e-01	
   6.8365000e+01	   6.8760514e-01	   1.1472839e-01	
   6.8420000e+01	   6.6990323e-01	   1.0447548e-01	
   6.8475000e+01	   6.5262034e-01	   9.4100774e-02	
   6.8530000e+01	   6.3572005e-01	   8.3571928e-02	
   6.8585000e+01	   6.1913521e-01	   7.2847120e-02	
   6.8640000e+01	   6.0277327e-01	   6.1879065e-02	
   6.8695000e+01	   5.8652803e-01	   5.0622975e-02	
   6.8750000e+01	   5.7029447e-01	   3.9046768e-02	
   6.8805000e+01	   5.5398267e-01	   2.7140950e-02	
   6.8860000e+01	   5.3752914e-01	   1.4926254e-02	
   6.8915000e+01	   5.2090572e-01	   2.4580811e-03	
   6.8970000e+01	   5.0412510e-01	  -1.0173165e-02	
   6.9025000e+01	   4.8724133e-01	  -2.2846667e-02	
   6.9080000e+01	   4.7034441e-01	  -3.5420084e-02	
   6.9135000e+01	   4.5354967e-01	  -4.7740840e-02	
   6.9190000e+01	   4.3698331e-01	  -5.9658218e-02	
   6.9245000e+01	   4.2076581e-01	  -7.1035697e-02	
   6.9300000e+01	   4.0499570e-01	  -8.1762651e-02	
   6.9355000e+01	   3.8973733e-01	  -9.1763533e-02	
   6.9410000e+01	   3.7501582e-01	  -1.0100263e-01	
   6.9465000e+01	   3.6082069e-01	  -1.0948332e-01	
   6.9520000e+01	   3.4711736e-01	  -1.1724222e-01	
   6.9575000e+01	   3.3386361e-01	  -1.2433943e-01	
   6.9630000e+01	   3.2102664e-01	  -1.3084739e-01	
   6.9685000e+01	   3.0859624e-01	  -1.3683990e-01	
   6.9740000e+01	   2.9659105e-01	  -1.4238276e-01	
   6.9795000e+01	   2.8505791e-01	  -1.4752696e-01	
   6.9850000e+01	   2.7406582e-01	  -1.5230536e-01	
   6.9905000e+01	   2.6369568e-01	  -1.5673346e-01	
   6.9960000e+01	   2.5402700e-01	  -1.6081336e-01	
   7.0015000e+01	   2.4512334e-01	  -1.6453988e-01	
   7.0070000e+01	   2.3701843e-01	  -1.6790769e-01	
   7.0125000e+01	   2.2970432e-01	  -1.7091943e-01	
   7.0180000e+01	   2.2312269e-01	  -1.7359431e-01	
   7.0235000e+01	   2.1716065e-01	  -1.7597560e-01	
   7.0290000e+01	   2.1165255e-01	  -1.7813528e-01	
   7.0345000e+01	   2.0638812e-01	  -1.8017476e-01	
   7.0400000e+01	   2.0112665e-01	  -1.8222069e-01	
   7.0455000e+01	   1.9561552e-01	  -1.8441541e-01	
   7.0510000e+01	   1.8961101e-01	  -1.8690286e-01	
   7.0565000e+01	   1.8289808e-01	  -1.8981323e-01	
   7.0620000e+01	   1.7530649e-01	  -1.9324983e-01	
   7.0675000e+01	   1.6672247e-01	  -1.9727999e-01	
   7.0730000e+01	   1.5709611e-01	  -2.0193040e-01	
   7.0785000e+01	   1.4644366e-01	  -2.0718664e-01	
   7.0840000e+01	   1.3484320e-01	  -2.1299724e-01	
   7.0895000e+01	   1.2242322e-01	  -2.1928135e-01	
   7.0950000e+01	   1.0934620e-01	  -2.2593843e-01	
   7.1005000e+01	   9.5789740e-02	  -2.3285877e-01	
   7.1060000e+01	   8.1926826e-02	  -2.3993466e-01	
   7.1115000e+01	   6.7906242e-02	  -2.4707157e-01	
   7.1170000e+01	   5.3835900e-02	  -2.5419764e-01	
   7.1225000e+01	   3.9773378e-02	  -2.6126914e-01	
   7.1280000e+01	   2.5727025e-02	  -2.6827017e-01	
   7.1335000e+01	   1.1667977e-02	  -2.7520662e-01	
   7.1390000e+01	  -2.4499687e-03	  -2.8209589e-01	
   7.1445000e+01	  -1.6668370e-02	  -2.8895553e-01	
   7.1500000e+01	  -3.1006472e-02	  -2.9579382e-01	
   7.1555000e+01	  -4.5451155e-02	  -3.0260421e-01	
   7.1610000e+01	  -5.9953564e-02	  -3.0936318e-01	
   7.1665000e+01	  -7.4430599e-02	  -3.1603084e-01	
   7.1720000e+01	  -8.8771356e-02	  -3.2255450e-01	
   7.1775000e+01	  -1.0284875e-01	  -3.2887525e-01	
   7.1830000e+01	  -1.1653449e-01	  -3.3493655e-01	
   7.1885000e+01	  -1.2971442e-01	  -3.4069284e-01	
   7.1940000e+01	  -1.4230191e-01	  -3.4611691e-01	
   7.1995000e+01	  -1.5424732e-01	  -3.5120481e-01	
   7.2050000e+01	  -1.6554139e-01	  -3.5597687e-01	
   7.2105000e+01	  -1.7621072e-01	  -3.6047400e-01	
   7.2160000e+01	  -1.8630596e-01	  -3.6475013e-01	
   7.2215000e+01	  -1.9588600e-01	  -3.6886265e-01	
   7.2270000e+01	  -2.0500250e-01	  -3.7286291e-01	
   7.2325000e+01	  -2.1368794e-01	  -3.7678867e-01	
   7.2380000e+01	  -2.2194880e-01	  -3.8065959e-01	
   7.2435000e+01	  -2.2976412e-01	  -3.8447564e-01	
   7.2490000e+01	  -2.3708774e-01	  -3.8821743e-01	
   7.2545000e+01	  -2.4385265e-01	  -3.9184812e-01	
   7.2600000e+01	  -2.4997756e-01	  -3.9531760e-01	
   7.2655000e+01	  -2.5537619e-01	  -3.9856932e-01	
   7.2710000e+01	  -2.5996839e-01	  -4.0154859e-01	
   7.2765000e+01	  -2.6368982e-01	  -4.0420964e-01	
   7.2820000e+01	  -2.6649821e-01	  -4.0652005e-01	
   7.2875000e+01	  -2.6837513e-01	  -4.0846187e-01	
   7.2930000e+01	  -2.6932238e-01	  -4.1002873e-01	
   7.2985000e+01	  -2.6935327e-01	  -4.1121918e-01	
   7.3040000e+01	  -2.6848106e-01	  -4.1202842e-01	
   7.3095000e+01	  -2.6670791e-01	  -4.1244121e-01	
   7.3150000e+01	  -2.6401718e-01	  -4.1242724e-01	
   7.3205000e+01	  -2.6036997e-01	  -4.1193916e-01	
   7.3260000e+01	  -2.5570623e-01	  -4.1091378e-01	
   7.3315000e+01	  -2.4995013e-01	  -4.0927671e-01	
   7.3370000e+01	  -2.4301966e-01	  -4.0695013e-01	
   7.3425000e+01	  -2.3483983e-01	  -4.0386182e-01	
   7.3480000e+01	  -2.2535840e-01	  -3.9995439e-01	
   7.3535000e+01	  -2.1456194e-01	  -3.9519408e-01	
   7.3590000e+01	  -2.0248939e-01	  -3.8957824e-01	
   7.3645000e+01	  -1.8923960e-01	  -3.8313998e-01	
   7.3700000e+01	  -1.7497038e-01	  -3.7594807e-01	
   7.3755000e+01	  -1.5988869e-01	  -3.6810168e-01	
   7.3810000e+01	  -1.4423413e-01	  -3.5972021e-01	
   7.3865000e+01	  -1.2825859e-01	  -3.5093039e-01	
   7.3920000e+01	  -1.1220549e-01	  -3.4185306e-01	
   7.3975000e+01	  -9.6291868e-02	  -3.3259213e-01	
   7.4030000e+01	  -8.0695181e-02	  -3.2322668e-01	
   7.4085000e+01	  -6.5545685e-02	  -3.1380649e-01	
   7.4140000e+01	  -5.0924664e-02	  -3.0435146e-01	
   7.4195000e+01	  -3.6868784e-02	  -2.9485554e-01	
   7.4250000e+01	  -2.3379874e-02	  -2.8529436e-01	
   7.4305000e+01	  -1.0438650e-02	  -2.7563552e-01	
   7.4360000e+01	   1.9791593e-03	  -2.6584957e-01	
   7.4415000e+01	   1.3886220e-02	  -2.5592039e-01	
   7.4470000e+01	   2.5269706e-02	  -2.4585319e-01	
   7.4525000e+01	   3.6084048e-02	  -2.3567893e-01	
   7.4580000e+01	   4.6253188e-02	  -2.2545426e-01	
   7.4635000e+01	   5.5682722e-02	  -2.1525664e-01	
   7.4690000e+01	   6.4279157e-02	  -2.0517520e-01	
   7.4745000e+01	   7.1971489e-02	  -1.9529955e-01	
   7.4800000e+01	   7.8730692e-02	  -1.8570899e-01	
   7.4855000e+01	   8.4584168e-02	  -1.7646404e-01	
   7.4910000e+01	   8.9623314e-02	  -1.6760123e-01	
   7.4965000e+01	   9.4003578e-02	  -1.5913091e-01	
   7.5020000e+01	   9.7937551e-02	  -1.5103731e-01	
   7.5075000e+01	   1.0168167e-01	  -1.4328110e-01	
   7.5130000e+01	   1.0551695e-01	  -1.3580494e-01	
   7.5185000e+01	   1.0972491e-01	  -1.2854178e-01	
   7.5240000e+01	   1.1456149e-01	  -1.2142487e-01	
   7.5295000e+01	   1.2023233e-01	  -1.1439845e-01	
   7.5350000e+01	   1.2687280e-01	  -1.0742733e-01	
   7.5405000e+01	   1.3453607e-01	  -1.0050321e-01	
   7.5460000e+01	   1.4319169e-01	  -9.3645781e-02	
   7.5515000e+01	   1.5273505e-01	  -8.6898637e-02	
   7.5570000e+01	   1.6300543e-01	  -8.0321385e-02	
   7.5625000e+01	   1.7380828e-01	  -7.3979649e-02	
   7.5680000e+01	   1.8493764e-01	  -6.7934787e-02	
   7.5735000e+01	   1.9619601e-01	  -6.2235335e-02	
   7.5790000e+01	   2.0740986e-01	  -5.6911552e-02	
   7.5845000e+01	   2.1843939e-01	  -5.1973216e-02	
   7.5900000e+01	   2.2918103e-01	  -4.7410194e-02	
   7.5955000e+01	   2.3956220e-01	  -4.3195508e-02	
   7.6010000e+01	   2.4953012e-01	  -3.9290617e-02	
   7.6065000e+01	   2.5903874e-01	  -3.5652059e-02	
   7.6120000e+01	   2.6803760e-01	  -3.2238280e-02	
   7.6175000e+01	   2.7646441e-01	  -2.9015787e-02	
   7.6230000e+01	   2.8424134e-01	  -2.5963778e-02	
   7.6285000e+01	   2.9127495e-01	  -2.3076034e-02	
   7.6340000e+01	   2.9746173e-01	  -2.0359054e-02	
   7.6395000e+01	   3.0269945e-01	  -1.7826972e-02	
   7.6450000e+01	   3.0690229e-01	  -1.5495000e-02	
   7.6505000e+01	   3.1001542e-01	  -1.3372793e-02	
   7.6560000e+01	   3.1202591e-01	  -1.1458421e-02	
   7.6615000e+01	   3.1296831e-01	  -9.7339738e-03	
   7.6670000e+01	   3.1292427e-01	  -8.1645121e-03	
   7.6725000e+01	   3.1201631e-01	  -6.7011678e-03	
   7.6780000e+01	   3.1039628e-01	  -5.2875624e-03	
   7.6835000e+01	   3.0822961e-01	  -3.8680156e-03	
   7.6890000e+01	   3.0567741e-01	  -2.3961340e-03	
   7.6945000e+01	   3.0287959e-01	  -8.4236905e-04	
   7.7000000e+01	   2.9994217e-01	   8.0077138e-04	
   7.7055000e+01	   2.9693125e-01	   2.5169146e-03	
   7.7110000e+01	   2.9387490e-01	   4.2683113e-03	
   7.7165000e+01	   2.9077275e-01	   6.0028957e-03	
   7.7220000e+01	   2.8761118e-01	   7.6647962e-03	
   7.7275000e+01	   2.8438059e-01	   9.2058792e-03	
   7.7330000e+01	   2.8109068e-01	   1.0595577e-02	
   7.7385000e+01	   2.7778059e-01	   1.1826968e-02	
   7.7440000e+01	   2.7452233e-01	   1.2918301e-02	
   7.7495000e+01	   2.7141803e-01	   1.3910153e-02	
   7.7550000e+01	   2.6859179e-01	   1.4858938e-02	
   7.7605000e+01	   2.6617744e-01	   1.5828098e-02	
   7.7660000e+01	   2.6430306e-01	   1.6878742e-02	
   7.7715000e+01	   2.6307390e-01	   1.8060981e-02	
   7.7770000e+01	   2.6255542e-01	   1.9406159e-02	
   7.7825000e+01	   2.6275929e-01	   2.0920353e-02	
   7.7880000e+01	   2.6363606e-01	   2.2580463e-02	
   7.7935000e+01	   2.6507694e-01	   2.4334339e-02	
   7.7990000e+01	   2.6692469e-01	   2.6105653e-02	
   7.8045000e+01	   2.6899137e-01	   2.7803392e-02	
   7.8100000e+01	   2.7107922e-01	   2.9334751e-02	
   7.8155000e+01	   2.7300095e-01	   3.0618883e-02	
   7.8210000e+01	   2.7459599e-01	   3.1598411e-02	
   7.8265000e+01	   2.7574075e-01	   3.2246507e-02	
   7.8320000e+01	   2.7635297e-01	   3.2569159e-02	
   7.8375000e+01	   2.7639129e-01	   3.2603314e-02	
   7.8430000e+01	   2.7585044e-01	   3.2411609e-02	
   7.8485000e+01	   2.7475216e-01	   3.2074208e-02	
   7.8540000e+01	   2.7313214e-01	   3.1678549e-02	
   7.8595000e+01	   2.7102476e-01	   3.1308125e-02	
   7.8650000e+01	   2.6844819e-01	   3.1031178e-02	
   7.8705000e+01	   2.6539203e-01	   3.0890326e-02	
   7.8760000e+01	   2.6181009e-01	   3.0895212e-02	
   7.8815000e+01	   2.5762051e-01	   3.1020563e-02	
   7.8870000e+01	   2.5271504e-01	   3.1210397e-02	
   7.8925000e+01	   2.4697619e-01	   3.1387188e-02	
   7.8980000e+01	   2.4029872e-01	   3.1464047e-02	
   7.9035000e+01	   2.3261021e-01	   3.1357777e-02	
   7.9090000e+01	   2.2388604e-01	   3.1000408e-02	
   7.9145000e+01	   2.1415610e-01	   3.0347128e-02	
   7.9200000e+01	   2.0350345e-01	   2.9379759e-02	
   7.9255000e+01	   1.9205691e-01	   2.8106273e-02	
   7.9310000e+01	   1.7997968e-01	   2.6557643e-02	
   7.9365000e+01	   1.6745521e-01	   2.4783256e-02	
   7.9420000e+01	   1.5467144e-01	   2.2845521e-02	
   7.9475000e+01	   1.4180515e-01	   2.0813653e-02	
   7.9530000e+01	   1.2900846e-01	   1.8756773e-02	
   7.9585000e+01	   1.1639945e-01	   1.6737429e-02	
   7.9640000e+01	   1.0405903e-01	   1.4807449e-02	
   7.9695000e+01	   9.2035976e-02	   1.3007689e-02	
   7.9750000e+01	   8.0360280e-02	   1.1371571e-02	
   7.9805000e+01	   6.9061865e-02	   9.9304277e-03	
   7.9860000e+01	   5.8189331e-02	   8.7182930e-03	
   7.9915000e+01	   4.7823489e-02	   7.7747840e-03	
   7.9970000e+01	   3.8082200e-02	   7.1459090e-03	
   8.0025000e+01	   2.9115513e-02	   6.8829460e-03	
   8.0080000e+01	   2.1092933e-02	   7.0395927e-03	
   8.0135000e+01	   1.4186379e-02	   7.6676937e-03	
   8.0190000e+01	   8.5517069e-03	   8.8115418e-03	
   8.0245000e+01	   4.3100114e-03	   1.0500589e-02	
   8.0300000e+01	   1.5299444e-03	   1.2741458e-02	
   8.0355000e+01	   2.1385713e-04	   1.5511476e-02	
   8.0410000e+01	   2.9137269e-04	   1.8756051e-02	
   8.0465000e+01	   1.6229358e-03	   2.2391481e-02	
   8.0520000e+01	   4.0137578e-03	   2.6313654e-02	
   8.0575000e+01	   7.2360085e-03	   3.0411258e-02	
   8.0630000e+01	   1.1054638e-02	   3.4580026e-02	
   8.0685000e+01	   1.5251422e-02	   3.8734421e-02	
   8.0740000e+01	   1.9643404e-02	   4.2815169e-02	
   8.0795000e+01	   2.4094202e-02	   4.6793075e-02	
   8.0850000e+01	   2.8517785e-02	   5.0669693e-02	
   8.0905000e+01	   3.2874834e-02	   5.4474919e-02	
   8.0960000e+01	   3.7163147e-02	   5.8261332e-02	
   8.1015000e+01	   4.1404665e-02	   6.2095509e-02	
   8.1070000e+01	   4.5631436e-02	   6.6047179e-02	
   8.1125000e+01	   4.9871928e-02	   7.0177978e-02	
   8.1180000e+01	   5.4139267e-02	   7.4531961e-02	
   8.1235000e+01	   5.8424093e-02	   7.9129916e-02	
   8.1290000e+01	   6.2694897e-02	   8.3968850e-02	
   8.1345000e+01	   6.6906342e-02	   8.9026390e-02	
   8.1400000e+01	   7.1012624e-02	   9.4267988e-02	
   8.1455000e+01	   7.4981676e-02	   9.9654535e-02	
   8.1510000e+01	   7.8806992e-02	   1.0514920e-01	
   8.1565000e+01	   8.2514436e-02	   1.1072279e-01	
   8.1620000e+01	   8.6161672e-02	   1.1635677e-01	
   8.1675000e+01	   8.9829983e-02	   1.2204329e-01	
   8.1730000e+01	   9.3611139e-02	   1.2778258e-01	
   8.1785000e+01	   9.7592487e-02	   1.3357805e-01	
   8.1840000e+01	   1.0184253e-01	   1.3943016e-01	
   8.1895000e+01	   1.0639898e-01	   1.4533053e-01	
   8.1950000e+01	   1.1126072e-01	   1.5125754e-01	
   8.2005000e+01	   1.1638318e-01	   1.5717326e-01	
   8.2060000e+01	   1.2167686e-01	   1.6302106e-01	
   8.2115000e+01	   1.2701095e-01	   1.6872525e-01	
   8.2170000e+01	   1.3222507e-01	   1.7419483e-01	
   8.2225000e+01	   1.3714844e-01	   1.7933167e-01	
   8.2280000e+01	   1.4162220e-01	   1.8404117e-01	
   8.2335000e+01	   1.4551977e-01	   1.8824267e-01	
   8.2390000e+01	   1.4876196e-01	   1.9187771e-01	
   8.2445000e+01	   1.5132533e-01	   1.9491510e-01	
   8.2500000e+01	   1.5324255e-01	   1.9735194e-01	
   8.2555000e+01	   1.5459469e-01	   1.9921120e-01	
   8.2610000e+01	   1.5549674e-01	   2.0053698e-01	
   8.2665000e+01	   1.5607879e-01	   2.0138857e-01	
   8.2720000e+01	   1.5646529e-01	   2.0183348e-01	
   8.2775000e+01	   1.5675530e-01	   2.0194033e-01	
   8.2830000e+01	   1.5700601e-01	   2.0177249e-01	
   8.2885000e+01	   1.5722185e-01	   2.0138351e-01	
   8.2940000e+01	   1.5735035e-01	   2.0081444e-01	
   8.2995000e+01	   1.5728654e-01	   2.0009384e-01	
   8.3050000e+01	   1.5688676e-01	   1.9924057e-01	
   8.3105000e+01	   1.5598987e-01	   1.9826847e-01	
   8.3160000e+01	   1.5444114e-01	   1.9719146e-01	
   8.3215000e+01	   1.5211380e-01	   1.9602761e-01	
   8.3270000e+01	   1.4892518e-01	   1.9480184e-01	
   8.3325000e+01	   1.4484564e-01	   1.9354642e-01	
   8.3380000e+01	   1.3989924e-01	   1.9229904e-01	
   8.3435000e+01	   1.3415642e-01	   1.9109852e-01	
   8.3490000e+01	   1.2772113e-01	   1.8997949e-01	
   8.3545000e+01	   1.2071586e-01	   1.8896706e-01	
   8.3600000e+01	   1.1326748e-01	   1.8807174e-01	
   8.3655000e+01	   1.0549583e-01	   1.8728555e-01	
   8.3710000e+01	   9.7507787e-02	   1.8658085e-01	
   8.3765000e+01	   8.9399346e-02	   1.8591345e-01	
   8.3820000e+01	   8.1265411e-02	   1.8522981e-01	
   8.3875000e+01	   7.3212875e-02	   1.8447645e-01	
   8.3930000e+01	   6.5371047e-02	   1.8360952e-01	
   8.3985000e+01	   5.7895497e-02	   1.8260240e-01	
   8.4040000e+01	   5.0964831e-02	   1.8144987e-01	
   8.4095000e+01	   4.4772344e-02	   1.8016872e-01	
   8.4150000e+01	   3.9514633e-02	   1.7879571e-01	
   8.4205000e+01	   3.5377684e-02	   1.7738339e-01	
   8.4260000e+01	   3.2519987e-02	   1.7599275e-01	
   8.4315000e+01	   3.1053366e-02	   1.7468258e-01	
   8.4370000e+01	   3.1024225e-02	   1.7349697e-01	
   8.4425000e+01	   3.2398580e-02	   1.7245326e-01	
   8.4480000e+01	   3.5053621e-02	   1.7153310e-01	
   8.4535000e+01	   3.8778423e-02	   1.7067889e-01	
   8.4590000e+01	   4.3286384e-02	   1.6979740e-01	
   8.4645000e+01	   4.8239512e-02	   1.6877096e-01	
   8.4700000e+01	   5.3280458e-02	   1.6747416e-01	
   8.4755000e+01	   5.8065874e-02	   1.6579214e-01	
   8.4810000e+01	   6.2295656e-02	   1.6363667e-01	
   8.4865000e+01	   6.5734653e-02	   1.6095710e-01	
   8.4920000e+01	   6.8225043e-02	   1.5774573e-01	
   8.4975000e+01	   6.9689167e-02	   1.5403797e-01	
   8.5030000e+01	   7.0123932e-02	   1.4990795e-01	
   8.5085000e+01	   6.9588480e-02	   1.4546024e-01	
   8.5140000e+01	   6.8186953e-02	   1.4081841e-01	
   8.5195000e+01	   6.6048310e-02	   1.3611149e-01	
   8.5250000e+01	   6.3305119e-02	   1.3146006e-01	
   8.5305000e+01	   6.0073416e-02	   1.2696396e-01	
   8.5360000e+01	   5.6435522e-02	   1.2269238e-01	
   8.5415000e+01	   5.2427694e-02	   1.1867701e-01	
   8.5470000e+01	   4.8034931e-02	   1.1490898e-01	
   8.5525000e+01	   4.3195489e-02	   1.1134096e-01	
   8.5580000e+01	   3.7815433e-02	   1.0789458e-01	
   8.5635000e+01	   3.1790122e-02	   1.0447170e-01	
   8.5690000e+01	   2.5027578e-02	   1.0096774e-01	
   8.5745000e+01	   1.7469130e-02	   9.7284938e-02	
   8.5800000e+01	   9.1040126e-03	   9.3343909e-02	
   8.5855000e+01	  -2.3602907e-05	   8.9091867e-02	
   8.5910000e+01	  -9.8147428e-03	   8.4506960e-02	
   8.5965000e+01	  -2.0121673e-02	   7.9598558e-02	
   8.6020000e+01	  -3.0758998e-02	   7.4403458e-02	
   8.6075000e+01	  -4.1519438e-02	   6.8978474e-02	
   8.6130000e+01	  -5.2193327e-02	   6.3390868e-02	
   8.6185000e+01	  -6.2589613e-02	   5.7708422e-02	
   8.6240000e+01	  -7.2555510e-02	   5.1990238e-02	
   8.6295000e+01	  -8.1992249e-02	   4.6278805e-02	
   8.6350000e+01	  -9.0864547e-02	   4.0594355e-02	
   8.6405000e+01	  -9.9201458e-02	   3.4933248e-02	
   8.6460000e+01	  -1.0708743e-01	   2.9271608e-02	
   8.6515000e+01	  -1.1464491e-01	   2.3573466e-02	
   8.6570000e+01	  -1.2201205e-01	   1.7801050e-02	
   8.6625000e+01	  -1.2931977e-01	   1.1924898e-02	
   8.6680000e+01	  -1.3667213e-01	   5.9318772e-03	
   8.6735000e+01	  -1.4413341e-01	  -1.7036944e-04	
   8.6790000e+01	  -1.5172341e-01	  -6.3529366e-03	
   8.6845000e+01	  -1.5942015e-01	  -1.2568486e-02	
   8.6900000e+01	  -1.6716773e-01	  -1.8756723e-02	
   8.6955000e+01	  -1.7488773e-01	  -2.4852250e-02	
   8.7010000e+01	  -1.8249341e-01	  -3.0794056e-02	
   8.7065000e+01	  -1.8990528e-01	  -3.6534959e-02	
   8.7120000e+01	  -1.9706607e-01	  -4.2049198e-02	
   8.7175000e+01	  -2.0395190e-01	  -4.7336642e-02	
   8.7230000e+01	  -2.1057567e-01	  -5.2422197e-02	
   8.7285000e+01	  -2.1697926e-01	  -5.7349609e-02	
   8.7340000e+01	  -2.2321604e-01	  -6.2170923e-02	
   8.7395000e+01	  -2.2933044e-01	  -6.6934792e-02	
   8.7450000e+01	  -2.3534173e-01	  -7.1676622e-02	
   8.7505000e+01	  -2.4123512e-01	  -7.6411879e-02	
   8.7560000e+01	  -2.4696015e-01	  -8.1133020e-02	
   8.7615000e+01	  -2.5243537e-01	  -8.5810267e-02	
   8.7670000e+01	  -2.5755774e-01	  -9.0395808e-02	
   8.7725000e+01	  -2.6221486e-01	  -9.4830467e-02	
   8.7780000e+01	  -2.6629866e-01	  -9.9052178e-02	
   8.7835000e+01	  -2.6971997e-01	  -1.0300567e-01	
   8.7890000e+01	  -2.7242323e-01	  -1.0665217e-01	
   8.7945000e+01	  -2.7439995e-01	  -1.0997785e-01	
   8.8000000e+01	  -2.7570007e-01	  -1.1300046e-01	
   8.8055000e+01	  -2.7643885e-01	  -1.1577372e-01	
   8.8110000e+01	  -2.7679538e-01	  -1.1838788e-01	
   8.8165000e+01	  -2.7699972e-01	  -1.2096417e-01	
   8.8220000e+01	  -2.7730950e-01	  -1.2364298e-01	
   8.8275000e+01	  -2.7798163e-01	  -1.2656854e-01	
   8.8330000e+01	  -2.7924535e-01	  -1.2987342e-01	
   8.8385000e+01	  -2.8128054e-01	  -1.3366484e-01	
   8.8440000e+01	  -2.8420287e-01	  -1.3801387e-01	
   8.8495000e+01	  -2.8805618e-01	  -1.4294879e-01	
   8.8550000e+01	  -2.9281146e-01	  -1.4845321e-01	
   8.8605000e+01	  -2.9837184e-01	  -1.5446926e-01	
   8.8660000e+01	  -3.0458289e-01	  -1.6090547e-01	
   8.8715000e+01	  -3.1124819e-01	  -1.6764830e-01	
   8.8770000e+01	  -3.1814874e-01	  -1.7457507e-01	
   8.8825000e+01	  -3.2506434e-01	  -1.8156623e-01	
   8.8880000e+01	  -3.3179540e-01	  -1.8851613e-01	
   8.8935000e+01	  -3.3818332e-01	  -1.9534242e-01	
   8.8990000e+01	  -3.4412679e-01	  -2.0199369e-01	
   8.9045000e+01	  -3.4958914e-01	  -2.0845356e-01	
   8.9100000e+01	  -3.5459383e-01	  -2.1473892e-01	
   8.9155000e+01	  -3.5920894e-01	  -2.2089250e-01	
   8.9210000e+01	  -3.6352642e-01	  -2.2697176e-01	
   8.9265000e+01	  -3.6764209e-01	  -2.3303760e-01	
   8.9320000e+01	  -3.7164014e-01	  -2.3914477e-01	
   8.9375000e+01	  -3.7558265e-01	  -2.4533524e-01	
   8.9430000e+01	  -3.7950296e-01	  -2.5163436e-01	
   8.9485000e+01	  -3.8340225e-01	  -2.5804904e-01	
   8.9540000e+01	  -3.8725052e-01	  -2.6456742e-01	
   8.9595000e+01	  -3.9099316e-01	  -2.7116081e-01	
   8.9650000e+01	  -3.9456347e-01	  -2.7778870e-01	
   8.9705000e+01	  -3.9789851e-01	  -2.8440625e-01	
   8.9760000e+01	  -4.0095509e-01	  -2.9097298e-01	
   8.9815000e+01	  -4.0372333e-01	  -2.9746111e-01	
   8.9870000e+01	  -4.0623630e-01	  -3.0386216e-01	
   8.9925000e+01	  -4.0857475e-01	  -3.1019024e-01	
   8.9980000e+01	  -4.1086493e-01	  -3.1648071e-01	
   9.0035000e+01	  -4.1326880e-01	  -3.2278431e-01	
   9.0090000e+01	  -4.1596773e-01	  -3.2915861e-01	
   9.0145000e+01	  -4.1914424e-01	  -3.3565970e-01	
   9.0200000e+01	  -4.2296570e-01	  -3.4233577e-01	
   9.0255000e+01	  -4.2757187e-01	  -3.4922350e-01	
   9.0310000e+01	  -4.3306650e-01	  -3.5634662e-01	
   9.0365000e+01	  -4.3951269e-01	  -3.6371640e-01	
   9.0420000e+01	  -4.4693292e-01	  -3.7133363e-01	
   9.0475000e+01	  -4.5531386e-01	  -3.7919205e-01	
   9.0530000e+01	  -4.6461527e-01	  -3.8728305e-01	
   9.0585000e+01	  -4.7478006e-01	  -3.9560089e-01	
   9.0640000e+01	  -4.8574224e-01	  -4.0414650e-01	
   9.0695000e+01	  -4.9743068e-01	  -4.1292881e-01	
   9.0750000e+01	  -5.0976901e-01	  -4.2196348e-01	
   9.0805000e+01	  -5.2267170e-01	  -4.3126941e-01	
   9.0860000e+01	  -5.3603599e-01	  -4.4086196e-01	
   9.0915000e+01	  -5.4973085e-01	  -4.5074339e-01	
   9.0970000e+01	  -5.6358656e-01	  -4.6089274e-01	
   9.1025000e+01	  -5.7738774e-01	  -4.7125772e-01	
   9.1080000e+01	  -5.9087132e-01	  -4.8174994e-01	
   9.1135000e+01	  -6.0373064e-01	  -4.9224446e-01	
   9.1190000e+01	  -6.1562657e-01	  -5.0258383e-01	
   9.1245000e+01	  -6.2620524e-01	  -5.1258645e-01	
   9.1300000e+01	  -6.3512104e-01	  -5.2205812e-01	
   9.1355000e+01	  -6.4206209e-01	  -5.3080599e-01	
   9.1410000e+01	  -6.4677502e-01	  -5.3865323e-01	
   9.1465000e+01	  -6.4908599e-01	  -5.4545280e-01	
   9.1520000e+01	  -6.4891611e-01	  -5.5109827e-01	
   9.1575000e+01	  -6.4629023e-01	  -5.5553141e-01	
   9.1630000e+01	  -6.4133857e-01	  -5.5874599e-01	
   9.1685000e+01	  -6.3428917e-01	  -5.6078711e-01	
   9.1740000e+01	  -6.2544985e-01	  -5.6174442e-01	
   9.1795000e+01	  -6.1518182e-01	  -5.6174004e-01	
   9.1850000e+01	  -6.0387076e-01	  -5.6091406e-01	
   9.1905000e+01	  -5.9190021e-01	  -5.5941062e-01	
   9.1960000e+01	  -5.7962925e-01	  -5.5736655e-01	
   9.2015000e+01	  -5.6737570e-01	  -5.5490322e-01	
   9.2070000e+01	  -5.5540705e-01	  -5.5212237e-01	
   9.2125000e+01	  -5.4394012e-01	  -5.4910564e-01	
   9.2180000e+01	  -5.3314798e-01	  -5.4591695e-01	
   9.2235000e+01	  -5.2317105e-01	  -5.4260680e-01	
   9.2290000e+01	  -5.1413029e-01	  -5.3921829e-01	
   9.2345000e+01	  -5.0614017e-01	  -5.3579449e-01	
   9.2400000e+01	  -4.9931820e-01	  -5.3238553e-01	
   9.2455000e+01	  -4.9378884e-01	  -5.2905347e-01	
   9.2510000e+01	  -4.8968204e-01	  -5.2587366e-01	
   9.2565000e+01	  -4.8712650e-01	  -5.2293152e-01	
   9.2620000e+01	  -4.8623730e-01	  -5.2031443e-01	
   9.2675000e+01	  -4.8709857e-01	  -5.1810008e-01	
   9.2730000e+01	  -4.8974524e-01	  -5.1634448e-01	
   9.2785000e+01	  -4.9414879e-01	  -5.1507273e-01	
   9.2840000e+01	  -5.0020944e-01	  -5.1427367e-01	
   9.2895000e+01	  -5.0775496e-01	  -5.1389839e-01	
   9.2950000e+01	  -5.1654504e-01	  -5.1386289e-01	
   9.3005000e+01	  -5.2628049e-01	  -5.1405466e-01	
   9.3060000e+01	  -5.3661676e-01	  -5.1434214e-01	
   9.3115000e+01	  -5.4718133e-01	  -5.1458580e-01	
   9.3170000e+01	  -5.5759478e-01	  -5.1464979e-01	
   9.3225000e+01	  -5.6749462e-01	  -5.1441301e-01	
   9.3280000e+01	  -5.7655886e-01	  -5.1377866e-01	
   9.3335000e+01	  -5.8452524e-01	  -5.1268132e-01	
   9.3390000e+01	  -5.9120349e-01	  -5.1109117e-01	
   9.3445000e+01	  -5.9647878e-01	  -5.0901507e-01	
   9.3500000e+01	  -6.0030638e-01	  -5.0649350e-01	
   9.3555000e+01	  -6.0269912e-01	  -5.0359307e-01	
   9.3610000e+01	  -6.0371083e-01	  -5.0039593e-01	
   9.3665000e+01	  -6.0341924e-01	  -4.9698791e-01	
   9.3720000e+01	  -6.0191036e-01	  -4.9344728e-01	
   9.3775000e+01	  -5.9926587e-01	  -4.8983588e-01	
   9.3830000e+01	  -5.9555519e-01	  -4.8619415e-01	
   9.3885000e+01	  -5.9083335e-01	  -4.8254076e-01	
   9.3940000e+01	  -5.8514432e-01	  -4.7887603e-01	
   9.3995000e+01	  -5.7852854e-01	  -4.7518781e-01	
   9.4050000e+01	  -5.7103328e-01	  -4.7145853e-01	
   9.4105000e+01	  -5.6272385e-01	  -4.6767243e-01	
   9.4160000e+01	  -5.5369328e-01	  -4.6382183e-01	
   9.4215000e+01	  -5.4406806e-01	  -4.5991177e-01	
   9.4270000e+01	  -5.3400830e-01	  -4.5596214e-01	
   9.4325000e+01	  -5.2370173e-01	  -4.5200687e-01	
   9.4380000e+01	  -5.1335133e-01	  -4.4808920e-01	
   9.4435000e+01	  -5.0315842e-01	  -4.4425362e-01	
   9.4490000e+01	  -4.9330482e-01	  -4.4053711e-01	
   9.4545000e+01	  -4.8393796e-01	  -4.3696230e-01	
   9.4600000e+01	  -4.7516155e-01	  -4.3353381e-01	
   9.4655000e+01	  -4.6703294e-01	  -4.3023752e-01	
   9.4710000e+01	  -4.5956736e-01	  -4.2704259e-01	
   9.4765000e+01	  -4.5274751e-01	  -4.2390586e-01	
   9.4820000e+01	  -4.4653529e-01	  -4.2077762e-01	
   9.4875000e+01	  -4.4088367e-01	  -4.1760770e-01	
   9.4930000e+01	  -4.3574787e-01	  -4.1435193e-01	
   9.4985000e+01	  -4.3109556e-01	  -4.1097843e-01	
   9.5040000e+01	  -4.2691416e-01	  -4.0747242e-01	
   9.5095000e+01	  -4.2321291e-01	  -4.0383773e-01	
   9.5150000e+01	  -4.2001743e-01	  -4.0009430e-01	
   9.5205000e+01	  -4.1735735e-01	  -3.9627178e-01	
   9.5260000e+01	  -4.1525016e-01	  -3.9240072e-01	
   9.5315000e+01	  -4.1368676e-01	  -3.8850336e-01	
   9.5370000e+01	  -4.1262199e-01	  -3.8458665e-01	
   9.5425000e+01	  -4.1197120e-01	  -3.8063825e-01	
   9.5480000e+01	  -4.1161265e-01	  -3.7662594e-01	
   9.5535000e+01	  -4.1139511e-01	  -3.7249988e-01	
   9.5590000e+01	  -4.1114976e-01	  -3.6819758e-01	
   9.5645000e+01	  -4.1070537e-01	  -3.6365098e-01	
   9.5700000e+01	  -4.0990493e-01	  -3.5879440e-01	
   9.5755000e+01	  -4.0862182e-01	  -3.5357197e-01	
   9.5810000e+01	  -4.0677435e-01	  -3.4794372e-01	
   9.5865000e+01	  -4.0433787e-01	  -3.4189042e-01	
   9.5920000e+01	  -4.0135278e-01	  -3.3541718e-01	
   9.5975000e+01	  -3.9792481e-01	  -3.2855427e-01	
   9.6030000e+01	  -3.9421517e-01	  -3.2135426e-01	
   9.6085000e+01	  -3.9042152e-01	  -3.1388527e-01	
   9.6140000e+01	  -3.8675352e-01	  -3.0622188e-01	
   9.6195000e+01	  -3.8340857e-01	  -2.9843555e-01	
   9.6250000e+01	  -3.8055216e-01	  -2.9058750e-01	
   9.6305000e+01	  -3.7830540e-01	  -2.8272533e-01	
   9.6360000e+01	  -3.7673948e-01	  -2.7488262e-01	
   9.6415000e+01	  -3.7587523e-01	  -2.6708018e-01	
   9.6470000e+01	  -3.7568695e-01	  -2.5932890e-01	
   9.6525000e+01	  -3.7611068e-01	  -2.5163501e-01	
   9.6580000e+01	  -3.7705561e-01	  -2.4400704e-01	
   9.6635000e+01	  -3.7841643e-01	  -2.3646327e-01	
   9.6690000e+01	  -3.8008503e-01	  -2.2903818e-01	
   9.6745000e+01	  -3.8196112e-01	  -2.2178703e-01	
   9.6800000e+01	  -3.8396065e-01	  -2.1478735e-01	
   9.6855000e+01	  -3.8601986e-01	  -2.0813659e-01	
   9.6910000e+01	  -3.8809310e-01	  -2.0194562e-01	
   9.6965000e+01	  -3.9014493e-01	  -1.9632864e-01	
   9.7020000e+01	  -3.9213884e-01	  -1.9139098e-01	
   9.7075000e+01	  -3.9402658e-01	  -1.8721726e-01	
   9.7130000e+01	  -3.9574121e-01	  -1.8386222e-01	
   9.7185000e+01	  -3.9719560e-01	  -1.8134579e-01	
   9.7240000e+01	  -3.9828631e-01	  -1.7965220e-01	
   9.7295000e+01	  -3.9890235e-01	  -1.7873244e-01	
   9.7350000e+01	  -3.9893837e-01	  -1.7850962e-01	
   9.7405000e+01	  -3.9831155e-01	  -1.7888702e-01	
   9.7460000e+01	  -3.9697968e-01	  -1.7975756e-01	
   9.7515000e+01	  -3.9495657e-01	  -1.8101276e-01	
   9.7570000e+01	  -3.9232090e-01	  -1.8255038e-01	
   9.7625000e+01	  -3.8921664e-01	  -1.8427972e-01	
   9.7680000e+01	  -3.8584461e-01	  -1.8612396e-01	
   9.7735000e+01	  -3.8244620e-01	  -1.8801888e-01	
   9.7790000e+01	  -3.7928183e-01	  -1.8990877e-01	
   9.7845000e+01	  -3.7660816e-01	  -1.9174124e-01	
   9.7900000e+01	  -3.7465787e-01	  -1.9346294e-01	
   9.7955000e+01	  -3.7362372e-01	  -1.9501688e-01	
   9.8010000e+01	  -3.7364749e-01	  -1.9634182e-01	
   9.8065000e+01	  -3.7481492e-01	  -1.9737380e-01	
   9.8120000e+01	  -3.7715752e-01	  -1.9804921e-01	
   9.8175000e+01	  -3.8066028e-01	  -1.9830923e-01	
   9.8230000e+01	  -3.8527394e-01	  -1.9810526e-01	
   9.8285000e+01	  -3.9093095e-01	  -1.9740520e-01	
   9.8340000e+01	  -3.9756281e-01	  -1.9619917e-01	
   9.8395000e+01	  -4.0511494e-01	  -1.9450296e-01	
   9.8450000e+01	  -4.1355496e-01	  -1.9235803e-01	
   9.8505000e+01	  -4.2287176e-01	  -1.8982806e-01	
   9.8560000e+01	  -4.3306491e-01	  -1.8699216e-01	
   9.8615000e+01	  -4.4412629e-01	  -1.8393517e-01	
   9.8670000e+01	  -4.5601913e-01	  -1.8073688e-01	
   9.8725000e+01	  -4.6866051e-01	  -1.7746270e-01	
   9.8780000e+01	  -4.8191155e-01	  -1.7415717e-01	
   9.8835000e+01	  -4.9557578e-01	  -1.7084035e-01	
   9.8890000e+01	  -5.0940573e-01	  -1.6750691e-01	
   9.8945000e+01	  -5.2311678e-01	  -1.6412856e-01	
   9.9000000e+01	  -5.3640614e-01	  -1.6065928e-01	
   9.9055000e+01	  -5.4897340e-01	  -1.5704233e-01	
   9.9110000e+01	  -5.6054057e-01	  -1.5321861e-01	
   9.9165000e+01	  -5.7087121e-01	  -1.4913641e-01	
   9.9220000e+01	  -5.7978771e-01	  -1.4476187e-01	
   9.9275000e+01	  -5.8718410e-01	  -1.4008814e-01	
   9.9330000e+01	  -5.9303084e-01	  -1.3514065e-01	
   9.9385000e+01	  -5.9736977e-01	  -1.2997691e-01	
   9.9440000e+01	  -6.0029964e-01	  -1.2468083e-01	
   9.9495000e+01	  -6.0195610e-01	  -1.1935319e-01	
   9.9550000e+01	  -6.0249120e-01	  -1.1410092e-01	
   9.9605000e+01	  -6.0205641e-01	  -1.0902699e-01	
   9.9660000e+01	  -6.0079108e-01	  -1.0422215e-01	
   9.9715000e+01	  -5.9881650e-01	  -9.9759037e-02	
   9.9770000e+01	  -5.9623536e-01	  -9.5689063e-02	
   9.9825000e+01	  -5.9313582e-01	  -9.2042241e-02	
   9.9880000e+01	  -5.8959859e-01	  -8.8829585e-02	
   9.9935000e+01	  -5.8570444e-01	  -8.6047282e-02	
   9.9990000e+01	  -5.8154014e-01	  -8.3682208e-02	
   1.0004500e+02	  -5.7720303e-01	  -8.1718439e-02	
   1.0010000e+02	  -5.7280393e-01	  -8.0143656e-02	
   1.0015500e+02	  -5.6846668e-01	  -7.8953364e-02	
   1.0021000e+02	  -5.6432203e-01	  -7.8151152e-02	
   1.0026500e+02	  -5.6049641e-01	  -7.7744623e-02	
   1.0032000e+02	  -5.5709908e-01	  -7.7738363e-02	
   1.0037500e+02	  -5.5421244e-01	  -7.8126511e-02	
   1.0043000e+02	  -5.5188817e-01	  -7.8887257e-02	
   1.0048500e+02	  -5.5014947e-01	  -7.9980240e-02	
   1.0054000e+02	  -5.4899800e-01	  -8.1346460e-02	
   1.0059500e+02	  -5.4842387e-01	  -8.2910158e-02	
   1.0065000e+02	  -5.4841743e-01	  -8.4582863e-02	
   1.0070500e+02	  -5.4898174e-01	  -8.6269956e-02	
   1.0076000e+02	  -5.5014447e-01	  -8.7879312e-02	
   1.0081500e+02	  -5.5196758e-01	  -8.9330654e-02	
   1.0087000e+02	  -5.5455215e-01	  -9.0564311e-02	
   1.0092500e+02	  -5.5803649e-01	  -9.1548329e-02	
   1.0098000e+02	  -5.6258610e-01	  -9.2282253e-02	
   1.0103500e+02	  -5.6837530e-01	  -9.2795483e-02	
   1.0109000e+02	  -5.7556307e-01	  -9.3139804e-02	
   1.0114500e+02	  -5.8426829e-01	  -9.3378467e-02	
   1.0120000e+02	  -5.9455054e-01	  -9.3575449e-02	
   1.0125500e+02	  -6.0639998e-01	  -9.3787241e-02	
   1.0131000e+02	  -6.1973677e-01	  -9.4057783e-02	
   1.0136500e+02	  -6.3441798e-01	  -9.4416268e-02	
   1.0142000e+02	  -6.5024908e-01	  -9.4877180e-02	
   1.0147500e+02	  -6.6699692e-01	  -9.5441945e-02	
   1.0153000e+02	  -6.8440334e-01	  -9.6102321e-02	
   1.0158500e+02	  -7.0220019e-01	  -9.6846155e-02	
   1.0164000e+02	  -7.2012603e-01	  -9.7664997e-02	
   1.0169500e+02	  -7.3794236e-01	  -9.8561625e-02	
   1.0175000e+02	  -7.5544624e-01	  -9.9555479e-02	
   1.0180500e+02	  -7.7247687e-01	  -1.0068478e-01	
   1.0186000e+02	  -7.8891438e-01	  -1.0200440e-01	
   1.0191500e+02	  -8.0467085e-01	  -1.0357921e-01	
   1.0197000e+02	  -8.1967579e-01	  -1.0547447e-01	
   1.0202500e+02	  -8.3386100e-01	  -1.0774595e-01	
   1.0208000e+02	  -8.4714804e-01	  -1.1043142e-01	
   1.0213500e+02	  -8.5943973e-01	  -1.1354400e-01	
   1.0219000e+02	  -8.7061556e-01	  -1.1706796e-01	
   1.0224500e+02	  -8.8053125e-01	  -1.2095745e-01	
   1.0230000e+02	  -8.8902200e-01	  -1.2513814e-01	
   1.0235500e+02	  -8.9590920e-01	  -1.2951143e-01	
   1.0241000e+02	  -9.0101093e-01	  -1.3396092e-01	
   1.0246500e+02	  -9.0415605e-01	  -1.3836145e-01	
   1.0252000e+02	  -9.0520076e-01	  -1.4259002e-01	
   1.0257500e+02	  -9.0404448e-01	  -1.4653697e-01	
   1.0263000e+02	  -9.0064176e-01	  -1.5011523e-01	
   1.0268500e+02	  -8.9500709e-01	  -1.5326595e-01	
   1.0274000e+02	  -8.8721082e-01	  -1.5595916e-01	
   1.0279500e+02	  -8.7736629e-01	  -1.5818890e-01	
   1.0285000e+02	  -8.6561129e-01	  -1.5996447e-01	
   1.0290500e+02	  -8.5208965e-01	  -1.6130091e-01	
   1.0296000e+02	  -8.3693795e-01	  -1.6221165e-01	
   1.0301500e+02	  -8.2027957e-01	  -1.6270364e-01	
   1.0307000e+02	  -8.0222540e-01	  -1.6277525e-01	
   1.0312500e+02	  -7.8287925e-01	  -1.6241642e-01	
   1.0318000e+02	  -7.6234608e-01	  -1.6161164e-01	
   1.0323500e+02	  -7.4074205e-01	  -1.6034505e-01	
   1.0329000e+02	  -7.1820614e-01	  -1.5860741e-01	
   1.0334500e+02	  -6.9491238e-01	  -1.5640413e-01	
   1.0340000e+02	  -6.7108068e-01	  -1.5376363e-01	
   1.0345500e+02	  -6.4698288e-01	  -1.5074403e-01	
   1.0351000e+02	  -6.2294062e-01	  -1.4743598e-01	
   1.0356500e+02	  -5.9931316e-01	  -1.4395983e-01	
   1.0362000e+02	  -5.7647552e-01	  -1.4045694e-01	
   1.0367500e+02	  -5.5479023e-01	  -1.3707640e-01	
   1.0373000e+02	  -5.3457833e-01	  -1.3396000e-01	
   1.0378500e+02	  -5.1609566e-01	  -1.3122872e-01	
   1.0384000e+02	  -4.9951884e-01	  -1.2897315e-01	
   1.0389500e+02	  -4.8494143e-01	  -1.2724836e-01	
   1.0395000e+02	  -4.7237806e-01	  -1.2607291e-01	
   1.0400500e+02	  -4.6177418e-01	  -1.2543157e-01	
   1.0406000e+02	  -4.5302048e-01	  -1.2528100e-01	
   1.0411500e+02	  -4.4597101e-01	  -1.2555724e-01	
   1.0417000e+02	  -4.4046192e-01	  -1.2618379e-01	
   1.0422500e+02	  -4.3632752e-01	  -1.2707922e-01	
   1.0428000e+02	  -4.3340950e-01	  -1.2816281e-01	
   1.0433500e+02	  -4.3155692e-01	  -1.2935624e-01	
   1.0439000e+02	  -4.3061785e-01	  -1.3058071e-01	
   1.0444500e+02	  -4.3042781e-01	  -1.3175182e-01	
   1.0450000e+02	  -4.3080035e-01	  -1.3277526e-01	
   1.0455500e+02	  -4.3152126e-01	  -1.3354526e-01	
   1.0461000e+02	  -4.3234580e-01	  -1.3394547e-01	
   1.0466500e+02	  -4.3299905e-01	  -1.3385159e-01	
   1.0472000e+02	  -4.3318049e-01	  -1.3313530e-01	
   1.0477500e+02	  -4.3257428e-01	  -1.3166955e-01	
   1.0483000e+02	  -4.3086539e-01	  -1.2933531e-01	
   1.0488500e+02	  -4.2776000e-01	  -1.2602964e-01	
   1.0494000e+02	  -4.2300645e-01	  -1.2167432e-01	
   1.0499500e+02	  -4.1641222e-01	  -1.1622303e-01	
   1.0505000e+02	  -4.0785338e-01	  -1.0966504e-01	
   1.0510500e+02	  -3.9727528e-01	  -1.0202447e-01	
   1.0516000e+02	  -3.8468488e-01	  -9.3355087e-02	
   1.0521500e+02	  -3.7013782e-01	  -8.3732804e-02	
   1.0527000e+02	  -3.5372334e-01	  -7.3247847e-02	
   1.0532500e+02	  -3.3555141e-01	  -6.1998445e-02	
   1.0538000e+02	  -3.1574547e-01	  -5.0086423e-02	
   1.0543500e+02	  -2.9444226e-01	  -3.7614073e-02	
   1.0549000e+02	  -2.7179598e-01	  -2.4681961e-02	
   1.0554500e+02	  -2.4798333e-01	  -1.1388124e-02	
   1.0560000e+02	  -2.2320824e-01	   2.1710816e-03	
   1.0565500e+02	  -1.9770578e-01	   1.5899287e-02	
   1.0571000e+02	  -1.7174424e-01	   2.9698651e-02	
   1.0576500e+02	  -1.4562268e-01	   4.3469079e-02	
   1.0582000e+02	  -1.1966087e-01	   5.7108579e-02	
   1.0587500e+02	  -9.4180106e-02	   7.0515896e-02	
   1.0593000e+02	  -6.9477207e-02	   8.3596013e-02	
   1.0598500e+02	  -4.5797704e-02	   9.6267311e-02	
   1.0604000e+02	  -2.3315425e-02	   1.0846809e-01	
   1.0609500e+02	  -2.1227620e-03	   1.2016082e-01	
   1.0615000e+02	   1.7767922e-02	   1.3133325e-01	
   1.0620500e+02	   3.6413561e-02	   1.4199610e-01	
   1.0626000e+02	   5.3922765e-02	   1.5217695e-01	
   1.0631500e+02	   7.0434305e-02	   1.6191206e-01	
   1.0637000e+02	   8.6095411e-02	   1.7123822e-01	
   1.0642500e+02	   1.0104348e-01	   1.8018599e-01	
   1.0648000e+02	   1.1539345e-01	   1.8877455e-01	
   1.0653500e+02	   1.2923172e-01	   1.9700872e-01	
   1.0659000e+02	   1.4261702e-01	   2.0487933e-01	
   1.0664500e+02	   1.5558831e-01	   2.1236763e-01	
   1.0670000e+02	   1.6817764e-01	   2.1945299e-01	
   1.0675500e+02	   1.8042385e-01	   2.2612175e-01	
   1.0681000e+02	   1.9238295e-01	   2.3237481e-01	
   1.0686500e+02	   2.0413171e-01	   2.3823181e-01	
   1.0692000e+02	   2.1576360e-01	   2.4373078e-01	
   1.0697500e+02	   2.2737891e-01	   2.4892400e-01	
   1.0703000e+02	   2.3907255e-01	   2.5387186e-01	
   1.0708500e+02	   2.5092255e-01	   2.5863598e-01	
   1.0714000e+02	   2.6298062e-01	   2.6327239e-01	
   1.0719500e+02	   2.7526520e-01	   2.6782560e-01	
   1.0725000e+02	   2.8775891e-01	   2.7232525e-01	
   1.0730500e+02	   3.0041196e-01	   2.7678602e-01	
   1.0736000e+02	   3.1315080e-01	   2.8121032e-01	
   1.0741500e+02	   3.2588883e-01	   2.8559295e-01	
   1.0747000e+02	   3.3853608e-01	   2.8992665e-01	
   1.0752500e+02	   3.5100590e-01	   2.9420686e-01	
   1.0758000e+02	   3.6321806e-01	   2.9843420e-01	
   1.0763500e+02	   3.7509927e-01	   3.0261417e-01	
   1.0769000e+02	   3.8658199e-01	   3.0675440e-01	
   1.0774500e+02	   3.9760188e-01	   3.1086033e-01	
   1.0780000e+02	   4.0809521e-01	   3.1493000e-01	
   1.0785500e+02	   4.1799844e-01	   3.1894999e-01	
   1.0791000e+02	   4.2725226e-01	   3.2289418e-01	
   1.0796500e+02	   4.3581045e-01	   3.2672627e-01	
   1.0802000e+02	   4.4365114e-01	   3.3040511e-01	
   1.0807500e+02	   4.5078650e-01	   3.3389095e-01	
   1.0813000e+02	   4.5726813e-01	   3.3715092e-01	
   1.0818500e+02	   4.6318688e-01	   3.4016266e-01	
   1.0824000e+02	   4.6866713e-01	   3.4291560e-01	
   1.0829500e+02	   4.7385623e-01	   3.4541040e-01	
   1.0835000e+02	   4.7890995e-01	   3.4765696e-01	
   1.0840500e+02	   4.8397499e-01	   3.4967081e-01	
   1.0846000e+02	   4.8917042e-01	   3.5146802e-01	
   1.0851500e+02	   4.9457105e-01	   3.5305964e-01	
   1.0857000e+02	   5.0019518e-01	   3.5444698e-01	
   1.0862500e+02	   5.0599750e-01	   3.5561825e-01	
   1.0868000e+02	   5.1186850e-01	   3.5654660e-01	
   1.0873500e+02	   5.1764320e-01	   3.5719118e-01	
   1.0879000e+02	   5.2312091e-01	   3.5750272e-01	
   1.0884500e+02	   5.2809322e-01	   3.5743327e-01	
   1.0890000e+02	   5.3237383e-01	   3.5694756e-01	
   1.0895500e+02	   5.3582420e-01	   3.5603310e-01	
   1.0901000e+02	   5.3837142e-01	   3.5470690e-01	
   1.0906500e+02	   5.4001669e-01	   3.5301828e-01	
   1.0912000e+02	   5.4083403e-01	   3.5104804e-01	
   1.0917500e+02	   5.4095967e-01	   3.4890457e-01	
   1.0923000e+02	   5.4057460e-01	   3.4671772e-01	
   1.0928500e+02	   5.3988271e-01	   3.4463007e-01	
   1.0934000e+02	   5.3908688e-01	   3.4278528e-01	
   1.0939500e+02	   5.3836504e-01	   3.4131459e-01	
   1.0945000e+02	   5.3784936e-01	   3.4032341e-01	
   1.0950500e+02	   5.3761063e-01	   3.3987937e-01	
   1.0956000e+02	   5.3764944e-01	   3.4000251e-01	
   1.0961500e+02	   5.3789619e-01	   3.4065964e-01	
   1.0967000e+02	   5.3822286e-01	   3.4176538e-01	
   1.0972500e+02	   5.3846651e-01	   3.4319042e-01	
   1.0978000e+02	   5.3845900e-01	   3.4477472e-01	
   1.0983500e+02	   5.3805584e-01	   3.4634297e-01	
   1.0989000e+02	   5.3715906e-01	   3.4772007e-01	
   1.0994500e+02	   5.3573158e-01	   3.4874485e-01	
   1.1000000e+02	   5.3380156e-01	   3.4928063e-01	
   1.1005500e+02	   5.3145595e-01	   3.4922225e-01	
   1.1011000e+02	   5.2882462e-01	   3.4849915e-01	
   1.1016500e+02	   5.2605820e-01	   3.4707398e-01	
   1.1022000e+02	   5.2330389e-01	   3.4493711e-01	
   1.1027500e+02	   5.2068303e-01	   3.4209874e-01	
   1.1033000e+02	   5.1827369e-01	   3.3858080e-01	
   1.1038500e+02	   5.1610083e-01	   3.3441046e-01	
   1.1044000e+02	   5.1413537e-01	   3.2961621e-01	
   1.1049500e+02	   5.1230230e-01	   3.2422785e-01	
   1.1055000e+02	   5.1049475e-01	   3.1827968e-01	
   1.1060500e+02	   5.0858845e-01	   3.1181444e-01	
   1.1066000e+02	   5.0645237e-01	   3.0488500e-01	
   1.1071500e+02	   5.0395509e-01	   2.9755294e-01	
   1.1077000e+02	   5.0096854e-01	   2.8988492e-01	
   1.1082500e+02	   4.9737031e-01	   2.8194766e-01	
   1.1088000e+02	   4.9304385e-01	   2.7380250e-01	
   1.1093500e+02	   4.8787699e-01	   2.6550009e-01	
   1.1099000e+02	   4.8176060e-01	   2.5707643e-01	
   1.1104500e+02	   4.7458837e-01	   2.4855034e-01	
   1.1110000e+02	   4.6625767e-01	   2.3992233e-01	
   1.1115500e+02	   4.5667237e-01	   2.3117560e-01	
   1.1121000e+02	   4.4575039e-01	   2.2228051e-01	
   1.1126500e+02	   4.3343675e-01	   2.1320305e-01	
   1.1132000e+02	   4.1971954e-01	   2.0391563e-01	
   1.1137500e+02	   4.0464418e-01	   1.9440781e-01	
   1.1143000e+02	   3.8832137e-01	   1.8469481e-01	
   1.1148500e+02	   3.7092572e-01	   1.7482148e-01	
   1.1154000e+02	   3.5268426e-01	   1.6486065e-01	
   1.1159500e+02	   3.3385736e-01	   1.5490672e-01	
   1.1165000e+02	   3.1471550e-01	   1.4506620e-01	
   1.1170500e+02	   2.9551466e-01	   1.3544682e-01	
   1.1176000e+02	   2.7647224e-01	   1.2614633e-01	
   1.1181500e+02	   2.5774604e-01	   1.1724211e-01	
   1.1187000e+02	   2.3941967e-01	   1.0878283e-01	
   1.1192500e+02	   2.2149666e-01	   1.0078288e-01	
   1.1198000e+02	   2.0390474e-01	   9.3220530e-02	
   1.1203500e+02	   1.8651010e-01	   8.6040835e-02	
   1.1209000e+02	   1.6914153e-01	   7.9163689e-02	
   1.1214500e+02	   1.5162203e-01	   7.2495930e-02	
   1.1220000e+02	   1.3380234e-01	   6.5944770e-02	
   1.1225500e+02	   1.1558975e-01	   5.9430167e-02	
   1.1231000e+02	   9.6967726e-02	   5.2894755e-02	
   1.1236500e+02	   7.8004114e-02	   4.6310428e-02	
   1.1242000e+02	   5.8847921e-02	   3.9680672e-02	
   1.1247500e+02	   3.9715765e-02	   3.3038237e-02	
   1.1253000e+02	   2.0870287e-02	   2.6438737e-02	
   1.1258500e+02	   2.5933456e-03	   1.9951238e-02	
   1.1264000e+02	  -1.4842809e-02	   1.3646751e-02	
   1.1269500e+02	  -3.1202842e-02	   7.5860445e-03	
   1.1275000e+02	  -4.6310188e-02	   1.8091679e-03	
   1.1280500e+02	  -6.0060013e-02	  -3.6711593e-03	
   1.1286000e+02	  -7.2421625e-02	  -8.8714152e-03	
   1.1291500e+02	  -8.3430369e-02	  -1.3834337e-02	
   1.1297000e+02	  -9.3170066e-02	  -1.8621495e-02	
   1.1302500e+02	  -1.0174913e-01	  -2.3302741e-02	
   1.1308000e+02	  -1.0927642e-01	  -2.7944954e-02	
   1.1313500e+02	  -1.1584245e-01	  -3.2602231e-02	
   1.1319000e+02	  -1.2150808e-01	  -3.7308625e-02	
   1.1324500e+02	  -1.2630041e-01	  -4.2074230e-02	
   1.1330000e+02	  -1.3021596e-01	  -4.6885496e-02	
   1.1335500e+02	  -1.3323143e-01	  -5.1710096e-02	
   1.1341000e+02	  -1.3532045e-01	  -5.6505405e-02	
   1.1346500e+02	  -1.3647375e-01	  -6.1228925e-02	
   1.1352000e+02	  -1.3671871e-01	  -6.5848564e-02	
   1.1357500e+02	  -1.3613439e-01	  -7.0350272e-02	
   1.1363000e+02	  -1.3485795e-01	  -7.4741005e-02	
   1.1368500e+02	  -1.3308082e-01	  -7.9046678e-02	
   1.1374000e+02	  -1.3103486e-01	  -8.3305891e-02	
   1.1379500e+02	  -1.2897087e-01	  -8.7560521e-02	
   1.1385000e+02	  -1.2713428e-01	  -9.1845048e-02	
   1.1390500e+02	  -1.2574344e-01	  -9.6177428e-02	
   1.1396000e+02	  -1.2497494e-01	  -1.0055403e-01	
   1.1401500e+02	  -1.2495766e-01	  -1.0494971e-01	
   1.1407000e+02	  -1.2577369e-01	  -1.0932264e-01	
   1.1412500e+02	  -1.2746371e-01	  -1.1362264e-01	
   1.1418000e+02	  -1.3003515e-01	  -1.1780120e-01	
   1.1423500e+02	  -1.3347212e-01	  -1.2182073e-01	
   1.1429000e+02	  -1.3774487e-01	  -1.2566124e-01	
   1.1434500e+02	  -1.4281561e-01	  -1.2932326e-01	
   1.1440000e+02	  -1.4863847e-01	  -1.3282655e-01	
   1.1445500e+02	  -1.5515309e-01	  -1.3620445e-01	
   1.1451000e+02	  -1.6227458e-01	  -1.3949482e-01	
   1.1456500e+02	  -1.6988505e-01	  -1.4273012e-01	
   1.1462000e+02	  -1.7783149e-01	  -1.4592931e-01	
   1.1467500e+02	  -1.8593125e-01	  -1.4909285e-01	
   1.1473000e+02	  -1.9398335e-01	  -1.5220110e-01	
   1.1478500e+02	  -2.0178389e-01	  -1.5521578e-01	
   1.1484000e+02	  -2.0914396e-01	  -1.5808446e-01	
   1.1489500e+02	  -2.1590766e-01	  -1.6074737e-01	
   1.1495000e+02	  -2.2196713e-01	  -1.6314561e-01	
   1.1500500e+02	  -2.2727225e-01	  -1.6522915e-01	
   1.1506000e+02	  -2.3183344e-01	  -1.6696326e-01	
   1.1511500e+02	  -2.3571686e-01	  -1.6833162e-01	
   1.1517000e+02	  -2.3903163e-01	  -1.6933494e-01	
   1.1522500e+02	  -2.4191108e-01	  -1.6998560e-01	
   1.1528000e+02	  -2.4449289e-01	  -1.7030065e-01	
   1.1533500e+02	  -2.4690208e-01	  -1.7029515e-01	
   1.1539000e+02	  -2.4923845e-01	  -1.6997653e-01	
   1.1544500e+02	  -2.5156895e-01	  -1.6934068e-01	
   1.1550000e+02	  -2.5392628e-01	  -1.6837104e-01	
   1.1555500e+02	  -2.5631366e-01	  -1.6704158e-01	
   1.1561000e+02	  -2.5871336e-01	  -1.6532296e-01	
   1.1566500e+02	  -2.6109652e-01	  -1.6319055e-01	
   1.1572000e+02	  -2.6343367e-01	  -1.6063291e-01	
   1.1577500e+02	  -2.6570455e-01	  -1.5765898e-01	
   1.1583000e+02	  -2.6790490e-01	  -1.5430253e-01	
   1.1588500e+02	  -2.7004852e-01	  -1.5062277e-01	
   1.1594000e+02	  -2.7216408e-01	  -1.4670147e-01	
   1.1599500e+02	  -2.7428675e-01	  -1.4263660e-01	
   1.1605000e+02	  -2.7644665e-01	  -1.3853320e-01	
   1.1610500e+02	  -2.7865809e-01	  -1.3449317e-01	
   1.1616000e+02	  -2.8091275e-01	  -1.3060660e-01	
   1.1621500e+02	  -2.8317785e-01	  -1.2694584e-01	
   1.1627000e+02	  -2.8539906e-01	  -1.2356248e-01	
   1.1632500e+02	  -2.8750707e-01	  -1.2048663e-01	
   1.1638000e+02	  -2.8942721e-01	  -1.1772923e-01	
   1.1643500e+02	  -2.9109141e-01	  -1.1528723e-01	
   1.1649000e+02	  -2.9245031e-01	  -1.1315064e-01	
   1.1654500e+02	  -2.9348237e-01	  -1.1130976e-01	
   1.1660000e+02	  -2.9419755e-01	  -1.0976157e-01	
   1.1665500e+02	  -2.9463476e-01	  -1.0851411e-01	
   1.1671000e+02	  -2.9485312e-01	  -1.0758790e-01	
   1.1676500e+02	  -2.9491837e-01	  -1.0701370e-01	
   1.1682000e+02	  -2.9488786e-01	  -1.0682745e-01	
   1.1687500e+02	  -2.9479754e-01	  -1.0706370e-01	
   1.1693000e+02	  -2.9465281e-01	  -1.0774866e-01	
   1.1698500e+02	  -2.9442392e-01	  -1.0889355e-01	
   1.1704000e+02	  -2.9404760e-01	  -1.1049011e-01	
   1.1709500e+02	  -2.9343541e-01	  -1.1250917e-01	
   1.1715000e+02	  -2.9248734e-01	  -1.1490248e-01	
   1.1720500e+02	  -2.9110763e-01	  -1.1760731e-01	
   1.1726000e+02	  -2.8921972e-01	  -1.2055286e-01	
   1.1731500e+02	  -2.8677789e-01	  -1.2366712e-01	
   1.1737000e+02	  -2.8377305e-01	  -1.2688234e-01	
   1.1742500e+02	  -2.8023067e-01	  -1.3013818e-01	
   1.1748000e+02	  -2.7620046e-01	  -1.3338182e-01	
   1.1753500e+02	  -2.7174061e-01	  -1.3656543e-01	
   1.1759000e+02	  -2.6690231e-01	  -1.3964194e-01	
   1.1764500e+02	  -2.6171968e-01	  -1.4256108e-01	
   1.1770000e+02	  -2.5620731e-01	  -1.4526733e-01	
   1.1775500e+02	  -2.5036400e-01	  -1.4769932e-01	
   1.1781000e+02	  -2.4417988e-01	  -1.4979031e-01	
   1.1786500e+02	  -2.3764510e-01	  -1.5147013e-01	
   1.1792000e+02	  -2.3075945e-01	  -1.5266969e-01	
   1.1797500e+02	  -2.2354295e-01	  -1.5332771e-01	
   1.1803000e+02	  -2.1604585e-01	  -1.5339822e-01	
   1.1808500e+02	  -2.0835556e-01	  -1.5285694e-01	
   1.1814000e+02	  -2.0059787e-01	  -1.5170523e-01	
   1.1819500e+02	  -1.9293031e-01	  -1.4997030e-01	
   1.1825000e+02	  -1.8552818e-01	  -1.4770129e-01	
   1.1830500e+02	  -1.7856646e-01	  -1.4496207e-01	
   1.1836000e+02	  -1.7220233e-01	  -1.4182311e-01	
   1.1841500e+02	  -1.6656229e-01	  -1.3835421e-01	
   1.1847000e+02	  -1.6173564e-01	  -1.3461921e-01	
   1.1852500e+02	  -1.5777472e-01	  -1.3067342e-01	
   1.1858000e+02	  -1.5470118e-01	  -1.2656416e-01	
   1.1863500e+02	  -1.5251645e-01	  -1.2233362e-01	
   1.1869000e+02	  -1.5121300e-01	  -1.1802284e-01	
   1.1874500e+02	  -1.5078344e-01	  -1.1367567e-01	
   1.1880000e+02	  -1.5122600e-01	  -1.0934200e-01	
   1.1885500e+02	  -1.5254548e-01	  -1.0507917e-01	
   1.1891000e+02	  -1.5474827e-01	  -1.0095038e-01	
   1.1896500e+02	  -1.5783166e-01	  -9.7019728e-02	
   1.1902000e+02	  -1.6177068e-01	  -9.3345207e-02	
   1.1907500e+02	  -1.6650775e-01	  -8.9972412e-02	
   1.1913000e+02	  -1.7194912e-01	  -8.6930552e-02	
   1.1918500e+02	  -1.7796852e-01	  -8.4231250e-02	
   1.1924000e+02	  -1.8441632e-01	  -8.1869882e-02	
   1.1929500e+02	  -1.9113242e-01	  -7.9829036e-02	
   1.1935000e+02	  -1.9796078e-01	  -7.8083539e-02	
   1.1940500e+02	  -2.0476359e-01	  -7.6606477e-02	
   1.1946000e+02	  -2.1143303e-01	  -7.5375538e-02	
   1.1951500e+02	  -2.1789853e-01	  -7.4378854e-02	
   1.1957000e+02	  -2.2412729e-01	  -7.3619089e-02	
   1.1962500e+02	  -2.3011781e-01	  -7.3114597e-02	
   1.1968000e+02	  -2.3588838e-01	  -7.2897013e-02	
   1.1973500e+02	  -2.4146306e-01	  -7.3005151e-02	
   1.1979000e+02	  -2.4685753e-01	  -7.3475766e-02	
   1.1984500e+02	  -2.5206755e-01	  -7.4333106e-02	
   1.1990000e+02	  -2.5706204e-01	  -7.5579835e-02	
   1.1995500e+02	  -2.6178097e-01	  -7.7191131e-02	
   1.2001000e+02	  -2.6613769e-01	  -7.9112601e-02	
   1.2006500e+02	  -2.7002568e-01	  -8.1262049e-02	
   1.2012000e+02	  -2.7333054e-01	  -8.3534767e-02	
   1.2017500e+02	  -2.7594613e-01	  -8.5811652e-02	
   1.2023000e+02	  -2.7779241e-01	  -8.7969252e-02	
   1.2028500e+02	  -2.7883093e-01	  -8.9890614e-02	
   1.2034000e+02	  -2.7907551e-01	  -9.1475712e-02	
   1.2039500e+02	  -2.7859787e-01	  -9.2650591e-02	
   1.2045000e+02	  -2.7752909e-01	  -9.3374576e-02	
   1.2050500e+02	  -2.7605619e-01	  -9.3644732e-02	
   1.2056000e+02	  -2.7441230e-01	  -9.3496590e-02	
   1.2061500e+02	  -2.7285906e-01	  -9.3000246e-02	
   1.2067000e+02	  -2.7166298e-01	  -9.2251531e-02	
   1.2072500e+02	  -2.7106958e-01	  -9.1359485e-02	
   1.2078000e+02	  -2.7128146e-01	  -9.0432953e-02	
   1.2083500e+02	  -2.7244419e-01	  -8.9569158e-02	
   1.2089000e+02	  -2.7464103e-01	  -8.8845614e-02	
   1.2094500e+02	  -2.7789541e-01	  -8.8315760e-02	
   1.2100000e+02	  -2.8217934e-01	  -8.8008763e-02	
   1.2105500e+02	  -2.8742572e-01	  -8.7933472e-02	
   1.2111000e+02	  -2.9354197e-01	  -8.8085079e-02	
   1.2116500e+02	  -3.0042299e-01	  -8.8452544e-02	
   1.2122000e+02	  -3.0796342e-01	  -8.9025657e-02	
   1.2127500e+02	  -3.1606896e-01	  -8.9801233e-02	
   1.2133000e+02	  -3.2466481e-01	  -9.0787323e-02	
   1.2138500e+02	  -3.3369825e-01	  -9.2003831e-02	
   1.2144000e+02	  -3.4313387e-01	  -9.3478776e-02	
   1.2149500e+02	  -3.5294303e-01	  -9.5240947e-02	
   1.2155000e+02	  -3.6309091e-01	  -9.7310947e-02	
   1.2160500e+02	  -3.7352506e-01	  -9.9693003e-02	
   1.2166000e+02	  -3.8416805e-01	  -1.0236967e-01	
   1.2171500e+02	  -3.9491584e-01	  -1.0530031e-01	
   1.2177000e+02	  -4.0564206e-01	  -1.0842308e-01	
   1.2182500e+02	  -4.1620665e-01	  -1.1165938e-01	
   1.2188000e+02	  -4.2646576e-01	  -1.1491988e-01	
   1.2193500e+02	  -4.3628066e-01	  -1.1811120e-01	
   1.2199000e+02	  -4.4552479e-01	  -1.2114197e-01	
   1.2204500e+02	  -4.5408831e-01	  -1.2392706e-01	
   1.2210000e+02	  -4.6187886e-01	  -1.2638885e-01	
   1.2215500e+02	  -4.6881804e-01	  -1.2845575e-01	
   1.2221000e+02	  -4.7483485e-01	  -1.3005909e-01	
   1.2226500e+02	  -4.7985925e-01	  -1.3113015e-01	
   1.2232000e+02	  -4.8381763e-01	  -1.3159894e-01	
   1.2237500e+02	  -4.8663139e-01	  -1.3139509e-01	
   1.2243000e+02	  -4.8821898e-01	  -1.3044967e-01	
   1.2248500e+02	  -4.8850156e-01	  -1.2869732e-01	
   1.2254000e+02	  -4.8741170e-01	  -1.2607892e-01	
   1.2259500e+02	  -4.8490444e-01	  -1.2254596e-01	
   1.2265000e+02	  -4.8096939e-01	  -1.1806697e-01	
   1.2270500e+02	  -4.7564204e-01	  -1.1263474e-01	
   1.2276000e+02	  -4.6901137e-01	  -1.0627190e-01	
   1.2281500e+02	  -4.6122026e-01	  -9.9032941e-02	
   1.2287000e+02	  -4.5245572e-01	  -9.1001430e-02	
   1.2292500e+02	  -4.4293055e-01	  -8.2282817e-02	
   1.2298000e+02	  -4.3286142e-01	  -7.2995169e-02	
   1.2303500e+02	  -4.2244895e-01	  -6.3260104e-02	
   1.2309000e+02	  -4.1186215e-01	  -5.3195335e-02	
   1.2314500e+02	  -4.0122824e-01	  -4.2909534e-02	
   1.2320000e+02	  -3.9062877e-01	  -3.2500170e-02	
   1.2325500e+02	  -3.8010298e-01	  -2.2054308e-02	
   1.2331000e+02	  -3.6965824e-01	  -1.1651569e-02	
   1.2336500e+02	  -3.5928551e-01	  -1.3682625e-03	
   1.2342000e+02	  -3.4897690e-01	   8.7181276e-03	
   1.2347500e+02	  -3.3874190e-01	   1.8525100e-02	
   1.2353000e+02	  -3.2861773e-01	   2.7963505e-02	
   1.2358500e+02	  -3.1867030e-01	   3.6939703e-02	
   1.2364000e+02	  -3.0898542e-01	   4.5362057e-02	
   1.2369500e+02	  -2.9965404e-01	   5.3150387e-02	
   1.2375000e+02	  -2.9075688e-01	   6.0245805e-02	
   1.2380500e+02	  -2.8235211e-01	   6.6618451e-02	
   1.2386000e+02	  -2.7446720e-01	   7.2271703e-02	
   1.2391500e+02	  -2.6709434e-01	   7.7242926e-02	
   1.2397000e+02	  -2.6018895e-01	   8.1601461e-02	
   1.2402500e+02	  -2.5367258e-01	   8.5443855e-02	
   1.2408000e+02	  -2.4744166e-01	   8.8885933e-02	
   1.2413500e+02	  -2.4138157e-01	   9.2052204e-02	
   1.2419000e+02	  -2.3538274e-01	   9.5064216e-02	
   1.2424500e+02	  -2.2935465e-01	   9.8029719e-02	
   1.2430000e+02	  -2.2323448e-01	   1.0103423e-01	
   1.2435500e+02	  -2.1698868e-01	   1.0413634e-01	
   1.2441000e+02	  -2.1060719e-01	   1.0736777e-01	
   1.2446500e+02	  -2.0409181e-01	   1.1073826e-01	
   1.2452000e+02	  -1.9744326e-01	   1.1424350e-01	
   1.2457500e+02	  -1.9065145e-01	   1.1787341e-01	
   1.2463000e+02	  -1.8369133e-01	   1.2161930e-01	
   1.2468500e+02	  -1.7652343e-01	   1.2547926e-01	
   1.2474000e+02	  -1.6909794e-01	   1.2946071e-01	
   1.2479500e+02	  -1.6136212e-01	   1.3357887e-01	
   1.2485000e+02	  -1.5327013e-01	   1.3785186e-01	
   1.2490500e+02	  -1.4479246e-01	   1.4229467e-01	
   1.2496000e+02	  -1.3592328e-01	   1.4691430e-01	
   1.2501500e+02	  -1.2668426e-01	   1.5170712e-01	
   1.2507000e+02	  -1.1712298e-01	   1.5665932e-01	
   1.2512500e+02	  -1.0730509e-01	   1.6175076e-01	
   1.2518000e+02	  -9.7302371e-02	   1.6696098e-01	
   1.2523500e+02	  -8.7180968e-02	   1.7227522e-01	
   1.2529000e+02	  -7.6992083e-02	   1.7768902e-01	
   1.2534500e+02	  -6.6766059e-02	   1.8321104e-01	
   1.2540000e+02	  -5.6510176e-02	   1.8886318e-01	
   1.2545500e+02	  -4.6210867e-02	   1.9467741e-01	
   1.2551000e+02	  -3.5840128e-02	   2.0068953e-01	
   1.2556500e+02	  -2.5364048e-02	   2.0693109e-01	
   1.2562000e+02	  -1.4750315e-02	   2.1342137e-01	
   1.2567500e+02	  -3.9721918e-03	   2.2016147e-01	
   1.2573000e+02	   6.9927018e-03	   2.2713238e-01	
   1.2578500e+02	   1.8169032e-02	   2.3429764e-01	
   1.2584000e+02	   2.9592994e-02	   2.4160901e-01	
   1.2589500e+02	   4.1319441e-02	   2.4901311e-01	
   1.2595000e+02	   5.3424026e-02	   2.5645733e-01	
   1.2600500e+02	   6.6000486e-02	   2.6389430e-01	
   1.2606000e+02	   7.9154437e-02	   2.7128446e-01	
   1.2611500e+02	   9.2994557e-02	   2.7859641e-01	
   1.2617000e+02	   1.0762181e-01	   2.8580513e-01	
   1.2622500e+02	   1.2311781e-01	   2.9288886e-01	
   1.2628000e+02	   1.3953366e-01	   2.9982502e-01	
   1.2633500e+02	   1.5688081e-01	   3.0658594e-01	
   1.2639000e+02	   1.7512557e-01	   3.1313610e-01	
   1.2644500e+02	   1.9418994e-01	   3.1943380e-01	
   1.2650000e+02	   2.1395989e-01	   3.2543741e-01	
   1.2655500e+02	   2.3429931e-01	   3.3111386e-01	
   1.2661000e+02	   2.5506583e-01	   3.3644578e-01	
   1.2666500e+02	   2.7612468e-01	   3.4143584e-01	
   1.2672000e+02	   2.9735779e-01	   3.4610744e-01	
   1.2677500e+02	   3.1866659e-01	   3.5050214e-01	
   1.2683000e+02	   3.3996883e-01	   3.5467495e-01	
