
0   3   6	
   0.0000000e+00	   4.7478962e-01	  -3.0282312e-01	
   5.5000000e-02	   4.4098872e-01	  -3.2299766e-01	
   1.1000000e-01	   4.0859364e-01	  -3.4299563e-01	
   1.6500000e-01	   3.7796760e-01	  -3.6256769e-01	
   2.2000000e-01	   3.4941320e-01	  -3.8147868e-01	
   2.7500000e-01	   3.2316240e-01	  -3.9951380e-01	
   3.3000000e-01	   2.9937441e-01	  -4.1648484e-01	
   3.8500000e-01	   2.7814102e-01	  -4.3223606e-01	
   4.4000000e-01	   2.5949661e-01	  -4.4664793e-01	
   4.9500000e-01	   2.4342734e-01	  -4.5963756e-01	
   5.5000000e-01	   2.2987587e-01	  -4.7115536e-01	
   6.0500000e-01	   2.1874254e-01	  -4.8117858e-01	
   6.6000000e-01	   2.0988650e-01	  -4.8970427e-01	
   7.1500000e-01	   2.0312853e-01	  -4.9674367e-01	
   7.7000000e-01	   1.9825542e-01	  -5.0231903e-01	
   8.2500000e-01	   1.9502568e-01	  -5.0646239e-01	
   8.8000000e-01	   1.9317647e-01	  -5.0921613e-01	
   9.3500000e-01	   1.9243247e-01	  -5.1063499e-01	
   9.9000000e-01	   1.9251765e-01	  -5.1078876e-01	
   1.0450000e+00	   1.9317014e-01	  -5.0976418e-01	
   1.1000000e+00	   1.9415739e-01	  -5.0766397e-01	
   1.1550000e+00	   1.9528762e-01	  -5.0460136e-01	
   1.2100000e+00	   1.9641395e-01	  -5.0069064e-01	
   1.2650000e+00	   1.9743110e-01	  -4.9603693e-01	
   1.3200000e+00	   1.9826669e-01	  -4.9072796e-01	
   1.3750000e+00	   1.9887044e-01	  -4.8482955e-01	
   1.4300000e+00	   1.9920517e-01	  -4.7838522e-01	
   1.4850000e+00	   1.9924246e-01	  -4.7141968e-01	
   1.5400000e+00	   1.9896334e-01	  -4.6394529e-01	
   1.5950000e+00	   1.9836196e-01	  -4.5597040e-01	
   1.6500000e+00	   1.9744913e-01	  -4.4750808e-01	
   1.7050000e+00	   1.9625559e-01	  -4.3858322e-01	
   1.7600000e+00	   1.9483627e-01	  -4.2923511e-01	
   1.8150000e+00	   1.9327600e-01	  -4.1951393e-01	
   1.8700000e+00	   1.9169450e-01	  -4.0947290e-01	
   1.9250000e+00	   1.9024727e-01	  -3.9915953e-01	
   1.9800000e+00	   1.8912045e-01	  -3.8860903e-01	
   2.0350000e+00	   1.8852009e-01	  -3.7784165e-01	
   2.0900000e+00	   1.8865718e-01	  -3.6686491e-01	
   2.1450000e+00	   1.8973067e-01	  -3.5567996e-01	
   2.2000000e+00	   1.9191102e-01	  -3.4429021e-01	
   2.2550000e+00	   1.9532680e-01	  -3.3270983e-01	
   2.3100000e+00	   2.0005475e-01	  -3.2097066e-01	
   2.3650000e+00	   2.0611386e-01	  -3.0912559e-01	
   2.4200000e+00	   2.1346415e-01	  -2.9724721e-01	
   2.4750000e+00	   2.2201070e-01	  -2.8542189e-01	
   2.5300000e+00	   2.3161210e-01	  -2.7374032e-01	
   2.5850000e+00	   2.4209173e-01	  -2.6228661e-01	
   2.6400000e+00	   2.5325013e-01	  -2.5112809e-01	
   2.6950000e+00	   2.6487707e-01	  -2.4030854e-01	
   2.7500000e+00	   2.7676225e-01	  -2.2984667e-01	
   2.8050000e+00	   2.8870360e-01	  -2.1973994e-01	
   2.8600000e+00	   3.0051255e-01	  -2.0997226e-01	
   2.9150000e+00	   3.1201641e-01	  -2.0052391e-01	
   2.9700000e+00	   3.2305925e-01	  -1.9138266e-01	
   3.0250000e+00	   3.3350158e-01	  -1.8255422e-01	
   3.0800000e+00	   3.4321881e-01	  -1.7406971e-01	
   3.1350000e+00	   3.5209932e-01	  -1.6598754e-01	
   3.1900000e+00	   3.6004258e-01	  -1.5838924e-01	
   3.2450000e+00	   3.6695688e-01	  -1.5136936e-01	
   3.3000000e+00	   3.7275706e-01	  -1.4502130e-01	
   3.3550000e+00	   3.7736395e-01	  -1.3942265e-01	
   3.4100000e+00	   3.8070579e-01	  -1.3462400e-01	
   3.4650000e+00	   3.8272144e-01	  -1.3064262e-01	
   3.5200000e+00	   3.8336433e-01	  -1.2746059e-01	
   3.5750000e+00	   3.8260612e-01	  -1.2502684e-01	
   3.6300000e+00	   3.8043808e-01	  -1.2326334e-01	
   3.6850000e+00	   3.7686967e-01	  -1.2207467e-01	
   3.7400000e+00	   3.7192471e-01	  -1.2135946e-01	
   3.7950000e+00	   3.6563725e-01	  -1.2102121e-01	
   3.8500000e+00	   3.5804874e-01	  -1.2097614e-01	
   3.9050000e+00	   3.4920771e-01	  -1.2115566e-01	
   3.9600000e+00	   3.3917139e-01	  -1.2150364e-01	
   4.0150000e+00	   3.2800878e-01	  -1.2197115e-01	
   4.0700000e+00	   3.1580407e-01	  -1.2251126e-01	
   4.1250000e+00	   3.0265996e-01	  -1.2307557e-01	
   4.1800000e+00	   2.8869959e-01	  -1.2361276e-01	
   4.2350000e+00	   2.7406668e-01	  -1.2406956e-01	
   4.2900000e+00	   2.5892412e-01	  -1.2439412e-01	
   4.3450000e+00	   2.4345095e-01	  -1.2454125e-01	
   4.4000000e+00	   2.2783781e-01	  -1.2447792e-01	
   4.4550000e+00	   2.1228172e-01	  -1.2418816e-01	
   4.5100000e+00	   1.9698056e-01	  -1.2367648e-01	
   4.5650000e+00	   1.8212757e-01	  -1.2296818e-01	
   4.6200000e+00	   1.6790727e-01	  -1.2210478e-01	
   4.6750000e+00	   1.5449236e-01	  -1.2113556e-01	
   4.7300000e+00	   1.4203993e-01	  -1.2010902e-01	
   4.7850000e+00	   1.3068638e-01	  -1.1906694e-01	
   4.8400000e+00	   1.2054251e-01	  -1.1804134e-01	
   4.8950000e+00	   1.1168988e-01	  -1.1705398e-01	
   4.9500000e+00	   1.0417828e-01	  -1.1611858e-01	
   5.0050000e+00	   9.8024992e-02	  -1.1524531e-01	
   5.0600000e+00	   9.3215811e-02	  -1.1444702e-01	
   5.1150000e+00	   8.9706380e-02	  -1.1374608e-01	
   5.1700000e+00	   8.7421750e-02	  -1.1318113e-01	
   5.2250000e+00	   8.6253960e-02	  -1.1281172e-01	
   5.2800000e+00	   8.6060181e-02	  -1.1271859e-01	
   5.3350000e+00	   8.6664431e-02	  -1.1299815e-01	
   5.3900000e+00	   8.7863625e-02	  -1.1375239e-01	
   5.4450000e+00	   8.9436857e-02	  -1.1507713e-01	
   5.5000000e+00	   9.1156410e-02	  -1.1705170e-01	
   5.5550000e+00	   9.2798592e-02	  -1.1973194e-01	
   5.6100000e+00	   9.4151612e-02	  -1.2314743e-01	
   5.6650000e+00	   9.5018641e-02	  -1.2730256e-01	
   5.7200000e+00	   9.5216836e-02	  -1.3218085e-01	
   5.7750000e+00	   9.4574400e-02	  -1.3775180e-01	
   5.8300000e+00	   9.2926552e-02	  -1.4397944e-01	
   5.8850000e+00	   9.0111115e-02	  -1.5083079e-01	
   5.9400000e+00	   8.5966001e-02	  -1.5828181e-01	
   5.9950000e+00	   8.0330426e-02	  -1.6631959e-01	
   6.0500000e+00	   7.3049558e-02	  -1.7494018e-01	
   6.1050000e+00	   6.3981730e-02	  -1.8414262e-01	
   6.1600000e+00	   5.3007592e-02	  -1.9392062e-01	
   6.2150000e+00	   4.0039792e-02	  -2.0425511e-01	
   6.2700000e+00	   2.5031479e-02	  -2.1510989e-01	
   6.3250000e+00	   7.9834861e-03	  -2.2643074e-01	
   6.3800000e+00	  -1.1048255e-02	  -2.3814700e-01	
   6.4350000e+00	  -3.1944194e-02	  -2.5017522e-01	
   6.4900000e+00	  -5.4512979e-02	  -2.6242489e-01	
   6.5450000e+00	  -7.8485114e-02	  -2.7480613e-01	
   6.6000000e+00	  -1.0350763e-01	  -2.8723802e-01	
   6.6550000e+00	  -1.2913948e-01	  -2.9965524e-01	
   6.7100000e+00	  -1.5485151e-01	  -3.1201072e-01	
   6.7650000e+00	  -1.8003563e-01	  -3.2427325e-01	
   6.8200000e+00	  -2.0402481e-01	  -3.3642005e-01	
   6.8750000e+00	  -2.2612361e-01	  -3.4842572e-01	
   6.9300000e+00	  -2.4565004e-01	  -3.6025010e-01	
   6.9850000e+00	  -2.6198886e-01	  -3.7182690e-01	
   7.0400000e+00	  -2.7465407e-01	  -3.8305301e-01	
   7.0950000e+00	  -2.8335536e-01	  -3.9377830e-01	
   7.1500000e+00	  -2.8805673e-01	  -4.0379774e-01	
   7.2050000e+00	  -2.8900586e-01	  -4.1284928e-01	
   7.2600000e+00	  -2.8671993e-01	  -4.2062042e-01	
   7.3150000e+00	  -2.8193765e-01	  -4.2676322e-01	
   7.3700000e+00	  -2.7556010e-01	  -4.3091321e-01	
   7.4250000e+00	  -2.6859311e-01	  -4.3270674e-01	
   7.4800000e+00	  -2.6209306e-01	  -4.3179363e-01	
   7.5350000e+00	  -2.5711627e-01	  -4.2784545e-01	
   7.5900000e+00	  -2.5467329e-01	  -4.2056253e-01	
   7.6450000e+00	  -2.5568814e-01	  -4.0968165e-01	
   7.7000000e+00	  -2.6096108e-01	  -3.9498543e-01	
   7.7550000e+00	  -2.7113481e-01	  -3.7631368e-01	
   7.8100000e+00	  -2.8666563e-01	  -3.5357694e-01	
   7.8650000e+00	  -3.0780147e-01	  -3.2677149e-01	
   7.9200000e+00	  -3.3456629e-01	  -2.9599346e-01	
   7.9750000e+00	  -3.6674805e-01	  -2.6145017e-01	
   8.0300000e+00	  -4.0388905e-01	  -2.2346706e-01	
   8.0850000e+00	  -4.4528098e-01	  -1.8248872e-01	
   8.1400000e+00	  -4.8996797e-01	  -1.3907322e-01	
   8.1950000e+00	  -5.3676018e-01	  -9.3880957e-02	
   8.2500000e+00	  -5.8425977e-01	  -4.7660031e-02	
   8.3050000e+00	  -6.3090141e-01	  -1.2295639e-03	
   8.3600000e+00	  -6.7500834e-01	   4.4539098e-02	
   8.4150000e+00	  -7.1486377e-01	   8.8744126e-02	
   8.4700000e+00	  -7.4879581e-01	   1.3047942e-01	
   8.5250000e+00	  -7.7527062e-01	   1.6886671e-01	
   8.5800000e+00	  -7.9298276e-01	   2.0309209e-01	
   8.6350000e+00	  -8.0092985e-01	   2.3244230e-01	
   8.6900000e+00	  -7.9846587e-01	   2.5633602e-01	
   8.7450000e+00	  -7.8533319e-01	   2.7434949e-01	
   8.8000000e+00	  -7.6167446e-01	   2.8623724e-01	
   8.8550000e+00	  -7.2802395e-01	   2.9194691e-01	
   8.9100000e+00	  -6.8528000e-01	   2.9162611e-01	
   8.9650000e+00	  -6.3466159e-01	   2.8561958e-01	
   9.0200000e+00	  -5.7765009e-01	   2.7445698e-01	
   9.0750000e+00	  -5.1591403e-01	   2.5883123e-01	
   9.1300000e+00	  -4.5121685e-01	   2.3956668e-01	
   9.1850000e+00	  -3.8531647e-01	   2.1757720e-01	
   9.2400000e+00	  -3.1987607e-01	   1.9381816e-01	
   9.2950000e+00	  -2.5640184e-01	   1.6923924e-01	
   9.3500000e+00	  -1.9620805e-01	   1.4474525e-01	
   9.4050000e+00	  -1.4039973e-01	   1.2116805e-01	
   9.4600000e+00	  -8.9864850e-02	   9.9248977e-02	
   9.5150000e+00	  -4.5272923e-02	   7.9628418e-02	
   9.5700000e+00	  -7.0804833e-03	   6.2838929e-02	
   9.6250000e+00	   2.4456754e-02	   4.9299752e-02	
   9.6800000e+00	   4.9268860e-02	   3.9312761e-02	
   9.7350000e+00	   6.7459159e-02	   3.3060499e-02	
   9.7900000e+00	   7.9295981e-02	   3.0606334e-02	
   9.8450000e+00	   8.5206302e-02	   3.1896252e-02	
   9.9000000e+00	   8.5767234e-02	   3.6762563e-02	
   9.9550000e+00	   8.1692025e-02	   4.4930911e-02	
   1.0010000e+01	   7.3808892e-02	   5.6032375e-02	
   1.0065000e+01	   6.3033334e-02	   6.9621471e-02	
   1.0120000e+01	   5.0336346e-02	   8.5198961e-02	
   1.0175000e+01	   3.6711041e-02	   1.0223673e-01	
   1.0230000e+01	   2.3138084e-02	   1.2020179e-01	
   1.0285000e+01	   1.0547377e-02	   1.3857769e-01	
   1.0340000e+01	  -2.2596133e-04	   1.5688297e-01	
   1.0395000e+01	  -8.4859994e-03	   1.7468606e-01	
   1.0450000e+01	  -1.3707723e-02	   1.9161447e-01	
   1.0505000e+01	  -1.5546201e-02	   2.0735561e-01	
   1.0560000e+01	  -1.3826881e-02	   2.2165169e-01	
   1.0615000e+01	  -8.5297420e-03	   2.3429520e-01	
   1.0670000e+01	   2.2277404e-04	   2.4513069e-01	
   1.0725000e+01	   1.2170647e-02	   2.5406330e-01	
   1.0780000e+01	   2.6914500e-02	   2.6107164e-01	
   1.0835000e+01	   4.3910337e-02	   2.6622178e-01	
   1.0890000e+01	   6.2468564e-02	   2.6967904e-01	
   1.0945000e+01	   8.1769646e-02	   2.7171293e-01	
   1.1000000e+01	   1.0090280e-01	   2.7268998e-01	
   1.1055000e+01	   1.1891723e-01	   2.7305287e-01	
   1.1110000e+01	   1.3486812e-01	   2.7329017e-01	
   1.1165000e+01	   1.4785036e-01	   2.7390443e-01	
   1.1220000e+01	   1.5702366e-01	   2.7538598e-01	
   1.1275000e+01	   1.6163219e-01	   2.7819563e-01	
   1.1330000e+01	   1.6101888e-01	   2.8275558e-01	
   1.1385000e+01	   1.5463168e-01	   2.8944503e-01	
   1.1440000e+01	   1.4201986e-01	   2.9859733e-01	
   1.1495000e+01	   1.2282375e-01	   3.1049762e-01	
   1.1550000e+01	   9.6770387e-02	   3.2537991e-01	
   1.1605000e+01	   6.3693297e-02	   3.4342173e-01	
   1.1660000e+01	   2.3581561e-02	   3.6473344e-01	
   1.1715000e+01	  -2.3363366e-02	   3.8934138e-01	
   1.1770000e+01	  -7.6691415e-02	   4.1716835e-01	
   1.1825000e+01	  -1.3569662e-01	   4.4801834e-01	
   1.1880000e+01	  -1.9943219e-01	   4.8157132e-01	
   1.1935000e+01	  -2.6674488e-01	   5.1738995e-01	
   1.1990000e+01	  -3.3633126e-01	   5.5493640e-01	
   1.2045000e+01	  -4.0681498e-01	   5.9359760e-01	
   1.2100000e+01	  -4.7683519e-01	   6.3271704e-01	
   1.2155000e+01	  -5.4512738e-01	   6.7162974e-01	
   1.2210000e+01	  -6.1058083e-01	   7.0969457e-01	
   1.2265000e+01	  -6.7227050e-01	   7.4631928e-01	
   1.2320000e+01	  -7.2947033e-01	   7.8097678e-01	
   1.2375000e+01	  -7.8165401e-01	   8.1321389e-01	
   1.2430000e+01	  -8.2848658e-01	   8.4265518e-01	
   1.2485000e+01	  -8.6980879e-01	   8.6900482e-01	
   1.2540000e+01	  -9.0561565e-01	   8.9204862e-01	
   1.2595000e+01	  -9.3603218e-01	   9.1165683e-01	
   1.2650000e+01	  -9.6129040e-01	   9.2778607e-01	
   1.2705000e+01	  -9.8170921e-01	   9.4047823e-01	
   1.2760000e+01	  -9.9767599e-01	   9.4985515e-01	
   1.2815000e+01	  -1.0096280e+00	   9.5610903e-01	
   1.2870000e+01	  -1.0180353e+00	   9.5948921e-01	
   1.2925000e+01	  -1.0233882e+00	   9.6028605e-01	
   1.2980000e+01	  -1.0261874e+00	   9.5881353e-01	
   1.3035000e+01	  -1.0269332e+00	   9.5539312e-01	
   1.3090000e+01	  -1.0261134e+00	   9.5034036e-01	
   1.3145000e+01	  -1.0241909e+00	   9.4395523e-01	
   1.3200000e+01	  -1.0215917e+00	   9.3651699e-01	
   1.3255000e+01	  -1.0186929e+00	   9.2828379e-01	
   1.3310000e+01	  -1.0158140e+00	   9.1949489e-01	
   1.3365000e+01	  -1.0132129e+00	   9.1037328e-01	
   1.3420000e+01	  -1.0110851e+00	   9.0112628e-01	
   1.3475000e+01	  -1.0095644e+00	   8.9194301e-01	
   1.3530000e+01	  -1.0087231e+00	   8.8298857e-01	
   1.3585000e+01	  -1.0085739e+00	   8.7439625e-01	
   1.3640000e+01	  -1.0090732e+00	   8.6626010e-01	
   1.3695000e+01	  -1.0101274e+00	   8.5862984e-01	
   1.3750000e+01	  -1.0116011e+00	   8.5150872e-01	
   1.3805000e+01	  -1.0133300e+00	   8.4485472e-01	
   1.3860000e+01	  -1.0151344e+00	   8.3858550e-01	
   1.3915000e+01	  -1.0168327e+00	   8.3258762e-01	
   1.3970000e+01	  -1.0182533e+00	   8.2672848e-01	
   1.4025000e+01	  -1.0192448e+00	   8.2086878e-01	
   1.4080000e+01	  -1.0196821e+00	   8.1487357e-01	
   1.4135000e+01	  -1.0194708e+00	   8.0862130e-01	
   1.4190000e+01	  -1.0185460e+00	   8.0201030e-01	
   1.4245000e+01	  -1.0168705e+00	   7.9496180e-01	
   1.4300000e+01	  -1.0144288e+00	   7.8741891e-01	
   1.4355000e+01	  -1.0112185e+00	   7.7934233e-01	
   1.4410000e+01	  -1.0072423e+00	   7.7070437e-01	
   1.4465000e+01	  -1.0025017e+00	   7.6148215e-01	
   1.4520000e+01	  -9.9699727e-01	   7.5165159e-01	
   1.4575000e+01	  -9.9073271e-01	   7.4118327e-01	
   1.4630000e+01	  -9.8372015e-01	   7.3004164e-01	
   1.4685000e+01	  -9.7598497e-01	   7.1818843e-01	
   1.4740000e+01	  -9.6756780e-01	   7.0559052e-01	
   1.4795000e+01	  -9.5852345e-01	   6.9223029e-01	
   1.4850000e+01	  -9.4891854e-01	   6.7811468e-01	
   1.4905000e+01	  -9.3882987e-01	   6.6328039e-01	
   1.4960000e+01	  -9.2834337e-01	   6.4779511e-01	
   1.5015000e+01	  -9.1755328e-01	   6.3175591e-01	
   1.5070000e+01	  -9.0656235e-01	   6.1528465e-01	
   1.5125000e+01	  -8.9548433e-01	   5.9852015e-01	
   1.5180000e+01	  -8.8444758e-01	   5.8160793e-01	
   1.5235000e+01	  -8.7359643e-01	   5.6468879e-01	
   1.5290000e+01	  -8.6308861e-01	   5.4788735e-01	
   1.5345000e+01	  -8.5308945e-01	   5.3130160e-01	
   1.5400000e+01	  -8.4376327e-01	   5.1499570e-01	
   1.5455000e+01	  -8.3526305e-01	   4.9899799e-01	
   1.5510000e+01	  -8.2772120e-01	   4.8330456e-01	
   1.5565000e+01	  -8.2124500e-01	   4.6788681e-01	
   1.5620000e+01	  -8.1591541e-01	   4.5270130e-01	
   1.5675000e+01	  -8.1178633e-01	   4.3770007e-01	
   1.5730000e+01	  -8.0888352e-01	   4.2283927e-01	
   1.5785000e+01	  -8.0720531e-01	   4.0808466e-01	
   1.5840000e+01	  -8.0672601e-01	   3.9341340e-01	
   1.5895000e+01	  -8.0740020e-01	   3.7881254e-01	
   1.5950000e+01	  -8.0916616e-01	   3.6427462e-01	
   1.6005000e+01	  -8.1194811e-01	   3.4979098e-01	
   1.6060000e+01	  -8.1565673e-01	   3.3534394e-01	
   1.6115000e+01	  -8.2018699e-01	   3.2090013e-01	
   1.6170000e+01	  -8.2541488e-01	   3.0640711e-01	
   1.6225000e+01	  -8.3119747e-01	   2.9179527e-01	
   1.6280000e+01	  -8.3737908e-01	   2.7698541e-01	
   1.6335000e+01	  -8.4380256e-01	   2.6190047e-01	
   1.6390000e+01	  -8.5032168e-01	   2.4647845e-01	
   1.6445000e+01	  -8.5681169e-01	   2.3068321e-01	
   1.6500000e+01	  -8.6317683e-01	   2.1451149e-01	
   1.6555000e+01	  -8.6935362e-01	   1.9799516e-01	
   1.6610000e+01	  -8.7530989e-01	   1.8119890e-01	
   1.6665000e+01	  -8.8104034e-01	   1.6421331e-01	
   1.6720000e+01	  -8.8655961e-01	   1.4714494e-01	
   1.6775000e+01	  -8.9189332e-01	   1.3010513e-01	
   1.6830000e+01	  -8.9706913e-01	   1.1320037e-01	
   1.6885000e+01	  -9.0211011e-01	   9.6525810e-02	
   1.6940000e+01	  -9.0703085e-01	   8.0163636e-02	
   1.6995000e+01	  -9.1183645e-01	   6.4186069e-02	
   1.7050000e+01	  -9.1652471e-01	   4.8661123e-02	
   1.7105000e+01	  -9.2109020e-01	   3.3658001e-02	
   1.7160000e+01	  -9.2552793e-01	   1.9250209e-02	
   1.7215000e+01	  -9.2983519e-01	   5.5153384e-03	
   1.7270000e+01	  -9.3401244e-01	  -7.4690971e-03	
   1.7325000e+01	  -9.3806381e-01	  -1.9633089e-02	
   1.7380000e+01	  -9.4199630e-01	  -3.0922642e-02	
   1.7435000e+01	  -9.4581770e-01	  -4.1307496e-02	
   1.7490000e+01	  -9.4953448e-01	  -5.0787422e-02	
   1.7545000e+01	  -9.5314991e-01	  -5.9396620e-02	
   1.7600000e+01	  -9.5666137e-01	  -6.7204977e-02	
   1.7655000e+01	  -9.6005627e-01	  -7.4315020e-02	
   1.7710000e+01	  -9.6330919e-01	  -8.0854156e-02	
   1.7765000e+01	  -9.6638339e-01	  -8.6962665e-02	
   1.7820000e+01	  -9.6923576e-01	  -9.2779003e-02	
   1.7875000e+01	  -9.7182165e-01	  -9.8425080e-02	
   1.7930000e+01	  -9.7409770e-01	  -1.0399396e-01	
   1.7985000e+01	  -9.7602293e-01	  -1.0954131e-01	
   1.8040000e+01	  -9.7755828e-01	  -1.1508112e-01	
   1.8095000e+01	  -9.7866533e-01	  -1.2058636e-01	
   1.8150000e+01	  -9.7930619e-01	  -1.2599554e-01	
   1.8205000e+01	  -9.7944574e-01	  -1.3122466e-01	
   1.8260000e+01	  -9.7905439e-01	  -1.3618240e-01	
   1.8315000e+01	  -9.7810889e-01	  -1.4078541e-01	
   1.8370000e+01	  -9.7658980e-01	  -1.4497166e-01	
   1.8425000e+01	  -9.7447625e-01	  -1.4871060e-01	
   1.8480000e+01	  -9.7174003e-01	  -1.5200857e-01	
   1.8535000e+01	  -9.6834275e-01	  -1.5490766e-01	
   1.8590000e+01	  -9.6423894e-01	  -1.5747764e-01	
   1.8645000e+01	  -9.5938544e-01	  -1.5980298e-01	
   1.8700000e+01	  -9.5375228e-01	  -1.6196788e-01	
   1.8755000e+01	  -9.4733033e-01	  -1.6404252e-01	
   1.8810000e+01	  -9.4013408e-01	  -1.6607283e-01	
   1.8865000e+01	  -9.3220226e-01	  -1.6807541e-01	
   1.8920000e+01	  -9.2359777e-01	  -1.7003768e-01	
   1.8975000e+01	  -9.1440660e-01	  -1.7192265e-01	
   1.9030000e+01	  -9.0473442e-01	  -1.7367782e-01	
   1.9085000e+01	  -8.9470180e-01	  -1.7524700e-01	
   1.9140000e+01	  -8.8444049e-01	  -1.7658353e-01	
   1.9195000e+01	  -8.7409202e-01	  -1.7766196e-01	
   1.9250000e+01	  -8.6380735e-01	  -1.7848615e-01	
   1.9305000e+01	  -8.5374599e-01	  -1.7909170e-01	
   1.9360000e+01	  -8.4407314e-01	  -1.7954159e-01	
   1.9415000e+01	  -8.3495406e-01	  -1.7991592e-01	
   1.9470000e+01	  -8.2654744e-01	  -1.8029886e-01	
   1.9525000e+01	  -8.1900097e-01	  -1.8076681e-01	
   1.9580000e+01	  -8.1244917e-01	  -1.8137981e-01	
   1.9635000e+01	  -8.0701141e-01	  -1.8217680e-01	
   1.9690000e+01	  -8.0278922e-01	  -1.8317536e-01	
   1.9745000e+01	  -7.9986347e-01	  -1.8437518e-01	
   1.9800000e+01	  -7.9829179e-01	  -1.8576355e-01	
   1.9855000e+01	  -7.9810552e-01	  -1.8732087e-01	
   1.9910000e+01	  -7.9930655e-01	  -1.8902554e-01	
   1.9965000e+01	  -8.0186436e-01	  -1.9085888e-01	
   2.0020000e+01	  -8.0571364e-01	  -1.9280944e-01	
   2.0075000e+01	  -8.1075279e-01	  -1.9487524e-01	
   2.0130000e+01	  -8.1684542e-01	  -1.9706222e-01	
   2.0185000e+01	  -8.2382754e-01	  -1.9937936e-01	
   2.0240000e+01	  -8.3151947e-01	  -2.0183185e-01	
   2.0295000e+01	  -8.3973763e-01	  -2.0441432e-01	
   2.0350000e+01	  -8.4830238e-01	  -2.0710599e-01	
   2.0405000e+01	  -8.5704219e-01	  -2.0986865e-01	
   2.0460000e+01	  -8.6579640e-01	  -2.1264779e-01	
   2.0515000e+01	  -8.7441818e-01	  -2.1537636e-01	
   2.0570000e+01	  -8.8277714e-01	  -2.1798158e-01	
   2.0625000e+01	  -8.9076051e-01	  -2.2039421e-01	
   2.0680000e+01	  -8.9827108e-01	  -2.2255836e-01	
   2.0735000e+01	  -9.0522145e-01	  -2.2443896e-01	
   2.0790000e+01	  -9.1152676e-01	  -2.2602424e-01	
   2.0845000e+01	  -9.1709965e-01	  -2.2732263e-01	
   2.0900000e+01	  -9.2184836e-01	  -2.2835536e-01	
   2.0955000e+01	  -9.2567603e-01	  -2.2914700e-01	
   2.1010000e+01	  -9.2848038e-01	  -2.2971680e-01	
   2.1065000e+01	  -9.3015542e-01	  -2.3007273e-01	
   2.1120000e+01	  -9.3059655e-01	  -2.3020929e-01	
   2.1175000e+01	  -9.2970890e-01	  -2.3010850e-01	
   2.1230000e+01	  -9.2741702e-01	  -2.2974374e-01	
   2.1285000e+01	  -9.2367364e-01	  -2.2908588e-01	
   2.1340000e+01	  -9.1846454e-01	  -2.2811008e-01	
   2.1395000e+01	  -9.1180717e-01	  -2.2680093e-01	
   2.1450000e+01	  -9.0374389e-01	  -2.2515403e-01	
   2.1505000e+01	  -8.9433324e-01	  -2.2317347e-01	
   2.1560000e+01	  -8.8364237e-01	  -2.2086590e-01	
   2.1615000e+01	  -8.7174180e-01	  -2.1823330e-01	
   2.1670000e+01	  -8.5870123e-01	  -2.1526692e-01	
   2.1725000e+01	  -8.4458667e-01	  -2.1194438e-01	
   2.1780000e+01	  -8.2945962e-01	  -2.0823028e-01	
   2.1835000e+01	  -8.1337810e-01	  -2.0407924e-01	
   2.1890000e+01	  -7.9639719e-01	  -1.9944074e-01	
   2.1945000e+01	  -7.7856892e-01	  -1.9426566e-01	
   2.2000000e+01	  -7.5994349e-01	  -1.8851383e-01	
   2.2055000e+01	  -7.4057315e-01	  -1.8216173e-01	
   2.2110000e+01	  -7.2051863e-01	  -1.7520915e-01	
   2.2165000e+01	  -6.9985615e-01	  -1.6768421e-01	
   2.2220000e+01	  -6.7868259e-01	  -1.5964470e-01	
   2.2275000e+01	  -6.5711616e-01	  -1.5117367e-01	
   2.2330000e+01	  -6.3529259e-01	  -1.4236923e-01	
   2.2385000e+01	  -6.1335894e-01	  -1.3333197e-01	
   2.2440000e+01	  -5.9146693e-01	  -1.2415453e-01	
   2.2495000e+01	  -5.6976656e-01	  -1.1491588e-01	
   2.2550000e+01	  -5.4840073e-01	  -1.0568095e-01	
   2.2605000e+01	  -5.2750214e-01	  -9.6504715e-02	
   2.2660000e+01	  -5.0719231e-01	  -8.7439009e-02	
   2.2715000e+01	  -4.8758118e-01	  -7.8539994e-02	
   2.2770000e+01	  -4.6876682e-01	  -6.9875150e-02	
   2.2825000e+01	  -4.5083623e-01	  -6.1529266e-02	
   2.2880000e+01	  -4.3386607e-01	  -5.3608096e-02	
   2.2935000e+01	  -4.1792222e-01	  -4.6238146e-02	
   2.2990000e+01	  -4.0305809e-01	  -3.9562066e-02	
   2.3045000e+01	  -3.8931196e-01	  -3.3730030e-02	
   2.3100000e+01	  -3.7670196e-01	  -2.8888036e-02	
   2.3155000e+01	  -3.6521880e-01	  -2.5164884e-02	
   2.3210000e+01	  -3.5481958e-01	  -2.2660172e-02	
   2.3265000e+01	  -3.4542662e-01	  -2.1435014e-02	
   2.3320000e+01	  -3.3693120e-01	  -2.1506005e-02	
   2.3375000e+01	  -3.2920004e-01	  -2.2842758e-02	
   2.3430000e+01	  -3.2208216e-01	  -2.5369709e-02	
   2.3485000e+01	  -3.1541548e-01	  -2.8972360e-02	
   2.3540000e+01	  -3.0903356e-01	  -3.3506960e-02	
   2.3595000e+01	  -3.0277296e-01	  -3.8812099e-02	
   2.3650000e+01	  -2.9648064e-01	  -4.4721200e-02	
   2.3705000e+01	  -2.9002083e-01	  -5.1074802e-02	
   2.3760000e+01	  -2.8328121e-01	  -5.7730687e-02	
   2.3815000e+01	  -2.7617807e-01	  -6.4569335e-02	
   2.3870000e+01	  -2.6865975e-01	  -7.1493526e-02	
   2.3925000e+01	  -2.6070738e-01	  -7.8423076e-02	
   2.3980000e+01	  -2.5233225e-01	  -8.5287193e-02	
   2.4035000e+01	  -2.4356902e-01	  -9.2016962e-02	
   2.4090000e+01	  -2.3446628e-01	  -9.8540107e-02	
   2.4145000e+01	  -2.2507793e-01	  -1.0477974e-01	
   2.4200000e+01	  -2.1545785e-01	  -1.1065740e-01	
   2.4255000e+01	  -2.0565776e-01	  -1.1609904e-01	
   2.4310000e+01	  -1.9572604e-01	  -1.2104211e-01	
   2.4365000e+01	  -1.8570687e-01	  -1.2544256e-01	
   2.4420000e+01	  -1.7563881e-01	  -1.2928106e-01	
   2.4475000e+01	  -1.6555218e-01	  -1.3256793e-01	
   2.4530000e+01	  -1.5546522e-01	  -1.3534602e-01	
   2.4585000e+01	  -1.4538034e-01	  -1.3769155e-01	
   2.4640000e+01	  -1.3528240e-01	  -1.3971177e-01	
   2.4695000e+01	  -1.2513986e-01	  -1.4153777e-01	
   2.4750000e+01	  -1.1490926e-01	  -1.4331204e-01	
   2.4805000e+01	  -1.0454240e-01	  -1.4517314e-01	
   2.4860000e+01	  -9.3995150e-02	  -1.4724120e-01	
   2.4915000e+01	  -8.3235595e-02	  -1.4960638e-01	
   2.4970000e+01	  -7.2249813e-02	  -1.5232183e-01	
   2.5025000e+01	  -6.1045601e-02	  -1.5540210e-01	
   2.5080000e+01	  -4.9655419e-02	  -1.5882724e-01	
   2.5135000e+01	  -3.8138670e-02	  -1.6255150e-01	
   2.5190000e+01	  -2.6582965e-02	  -1.6651482e-01	
   2.5245000e+01	  -1.5104529e-02	  -1.7065500e-01	
   2.5300000e+01	  -3.8477179e-03	  -1.7491770e-01	
   2.5355000e+01	   7.0173789e-03	  -1.7926120e-01	
   2.5410000e+01	   1.7300210e-02	  -1.8365535e-01	
   2.5465000e+01	   2.6797509e-02	  -1.8807633e-01	
   2.5520000e+01	   3.5301988e-02	  -1.9249986e-01	
   2.5575000e+01	   4.2610366e-02	  -1.9689511e-01	
   2.5630000e+01	   4.8529575e-02	  -2.0122144e-01	
   2.5685000e+01	   5.2881479e-02	  -2.0542886e-01	
   2.5740000e+01	   5.5508482e-02	  -2.0946159e-01	
   2.5795000e+01	   5.6282034e-02	  -2.1326298e-01	
   2.5850000e+01	   5.5113525e-02	  -2.1678081e-01	
   2.5905000e+01	   5.1965410e-02	  -2.1997236e-01	
   2.5960000e+01	   4.6860762e-02	  -2.2280888e-01	
   2.6015000e+01	   3.9890433e-02	  -2.2527802e-01	
   2.6070000e+01	   3.1216862e-02	  -2.2738319e-01	
   2.6125000e+01	   2.1072491e-02	  -2.2913856e-01	
   2.6180000e+01	   9.7513148e-03	  -2.3055995e-01	
   2.6235000e+01	  -2.4049904e-03	  -2.3165366e-01	
   2.6290000e+01	  -1.5023453e-02	  -2.3240660e-01	
   2.6345000e+01	  -2.7717078e-02	  -2.3278069e-01	
   2.6400000e+01	  -4.0102311e-02	  -2.3271249e-01	
   2.6455000e+01	  -5.1815607e-02	  -2.3211749e-01	
   2.6510000e+01	  -6.2527979e-02	  -2.3089793e-01	
   2.6565000e+01	  -7.1956782e-02	  -2.2895346e-01	
   2.6620000e+01	  -7.9873620e-02	  -2.2619337e-01	
   2.6675000e+01	  -8.6107416e-02	  -2.2254924e-01	
   2.6730000e+01	  -9.0543378e-02	  -2.1798644e-01	
   2.6785000e+01	  -9.3119972e-02	  -2.1251395e-01	
   2.6840000e+01	  -9.3824619e-02	  -2.0619066e-01	
   2.6895000e+01	  -9.2686968e-02	  -1.9912502e-01	
   2.6950000e+01	  -8.9769879e-02	  -1.9146612e-01	
   2.7005000e+01	  -8.5160458e-02	  -1.8338759e-01	
   2.7060000e+01	  -7.8963104e-02	  -1.7506748e-01	
   2.7115000e+01	  -7.1294756e-02	  -1.6666737e-01	
   2.7170000e+01	  -6.2282503e-02	  -1.5831451e-01	
   2.7225000e+01	  -5.2063318e-02	  -1.5009039e-01	
   2.7280000e+01	  -4.0783469e-02	  -1.4202700e-01	
   2.7335000e+01	  -2.8594913e-02	  -1.3411039e-01	
   2.7390000e+01	  -1.5649455e-02	  -1.2629035e-01	
   2.7445000e+01	  -2.0944028e-03	  -1.1849538e-01	
   2.7500000e+01	   1.1927659e-02	  -1.1065108e-01	
   2.7555000e+01	   2.6275392e-02	  -1.0269914e-01	
   2.7610000e+01	   4.0803404e-02	  -9.4614253e-02	
   2.7665000e+01	   5.5357135e-02	  -8.6416584e-02	
   2.7720000e+01	   6.9769945e-02	  -7.8177603e-02	
   2.7775000e+01	   8.3863995e-02	  -7.0017908e-02	
   2.7830000e+01	   9.7454568e-02	  -6.2097260e-02	
   2.7885000e+01	   1.1035577e-01	  -5.4599000e-02	
   2.7940000e+01	   1.2238655e-01	  -4.7712009e-02	
   2.7995000e+01	   1.3337813e-01	  -4.1613280e-02	
   2.8050000e+01	   1.4318344e-01	  -3.6453397e-02	
   2.8105000e+01	   1.5168687e-01	  -3.2346156e-02	
   2.8160000e+01	   1.5881185e-01	  -2.9362282e-02	
   2.8215000e+01	   1.6452513e-01	  -2.7526587e-02	
   2.8270000e+01	   1.6883857e-01	  -2.6818328e-02	
   2.8325000e+01	   1.7180882e-01	  -2.7175046e-02	
   2.8380000e+01	   1.7353472e-01	  -2.8499995e-02	
   2.8435000e+01	   1.7415339e-01	  -3.0672440e-02	
   2.8490000e+01	   1.7383556e-01	  -3.3559580e-02	
   2.8545000e+01	   1.7277870e-01	  -3.7028813e-02	
   2.8600000e+01	   1.7119591e-01	  -4.0958506e-02	
   2.8655000e+01	   1.6930125e-01	  -4.5245019e-02	
   2.8710000e+01	   1.6729357e-01	  -4.9804750e-02	
   2.8765000e+01	   1.6534182e-01	  -5.4571454e-02	
   2.8820000e+01	   1.6357582e-01	  -5.9490041e-02	
   2.8875000e+01	   1.6208533e-01	  -6.4508773e-02	
   2.8930000e+01	   1.6092635e-01	  -6.9572234e-02	
   2.8985000e+01	   1.6013017e-01	  -7.4616895e-02	
   2.9040000e+01	   1.5971184e-01	  -7.9569740e-02	
   2.9095000e+01	   1.5967648e-01	  -8.4349427e-02	
   2.9150000e+01	   1.6002288e-01	  -8.8869576e-02	
   2.9205000e+01	   1.6074394e-01	  -9.3044435e-02	
   2.9260000e+01	   1.6182540e-01	  -9.6796920e-02	
   2.9315000e+01	   1.6324474e-01	  -1.0006780e-01	
   2.9370000e+01	   1.6497035e-01	  -1.0282391e-01	
   2.9425000e+01	   1.6696096e-01	  -1.0506326e-01	
   2.9480000e+01	   1.6916656e-01	  -1.0681538e-01	
   2.9535000e+01	   1.7153234e-01	  -1.0813576e-01	
   2.9590000e+01	   1.7400308e-01	  -1.0909495e-01	
   2.9645000e+01	   1.7652269e-01	  -1.0976564e-01	
   2.9700000e+01	   1.7902730e-01	  -1.1021134e-01	
   2.9755000e+01	   1.8143650e-01	  -1.1047897e-01	
   2.9810000e+01	   1.8364984e-01	  -1.1059520e-01	
   2.9865000e+01	   1.8555094e-01	  -1.1056598e-01	
   2.9920000e+01	   1.8701764e-01	  -1.1037875e-01	
   2.9975000e+01	   1.8793559e-01	  -1.1000747e-01	
   3.0030000e+01	   1.8821257e-01	  -1.0941967e-01	
   3.0085000e+01	   1.8779029e-01	  -1.0858442e-01	
   3.0140000e+01	   1.8665049e-01	  -1.0747975e-01	
   3.0195000e+01	   1.8481476e-01	  -1.0609786e-01	
   3.0250000e+01	   1.8234053e-01	  -1.0444612e-01	
   3.0305000e+01	   1.7931553e-01	  -1.0254302e-01	
   3.0360000e+01	   1.7585211e-01	  -1.0041060e-01	
   3.0415000e+01	   1.7208305e-01	  -9.8066227e-02	
   3.0470000e+01	   1.6815917e-01	  -9.5515738e-02	
   3.0525000e+01	   1.6424697e-01	  -9.2749677e-02	
   3.0580000e+01	   1.6052358e-01	  -8.9743220e-02	
   3.0635000e+01	   1.5716894e-01	  -8.6459846e-02	
   3.0690000e+01	   1.5435750e-01	  -8.2858212e-02	
   3.0745000e+01	   1.5225063e-01	  -7.8901439e-02	
   3.0800000e+01	   1.5098943e-01	  -7.4567296e-02	
   3.0855000e+01	   1.5068875e-01	  -6.9857005e-02	
   3.0910000e+01	   1.5143431e-01	  -6.4800743e-02	
   3.0965000e+01	   1.5328249e-01	  -5.9458728e-02	
   3.1020000e+01	   1.5626150e-01	  -5.3916699e-02	
   3.1075000e+01	   1.6037364e-01	  -4.8274755e-02	
   3.1130000e+01	   1.6559856e-01	  -4.2631009e-02	
   3.1185000e+01	   1.7189570e-01	  -3.7064421e-02	
   3.1240000e+01	   1.7920375e-01	  -3.1621151e-02	
   3.1295000e+01	   1.8743892e-01	  -2.6306390e-02	
   3.1350000e+01	   1.9649470e-01	  -2.1081756e-02	
   3.1405000e+01	   2.0624320e-01	  -1.5868110e-02	
   3.1460000e+01	   2.1653677e-01	  -1.0553428e-02	
   3.1515000e+01	   2.2720861e-01	  -5.0045819e-03	
   3.1570000e+01	   2.3807173e-01	   9.1826568e-04	
   3.1625000e+01	   2.4891784e-01	   7.3453945e-03	
   3.1680000e+01	   2.5951848e-01	   1.4380129e-02	
   3.1735000e+01	   2.6963101e-01	   2.2081942e-02	
   3.1790000e+01	   2.7900987e-01	   3.0452627e-02	
   3.1845000e+01	   2.8742207e-01	   3.9428267e-02	
   3.1900000e+01	   2.9466478e-01	   4.8879249e-02	
   3.1955000e+01	   3.0058241e-01	   5.8619489e-02	
   3.2010000e+01	   3.0508018e-01	   6.8424170e-02	
   3.2065000e+01	   3.0813170e-01	   7.8052862e-02	
   3.2120000e+01	   3.0978020e-01	   8.7273588e-02	
   3.2175000e+01	   3.1013460e-01	   9.5884069e-02	
   3.2230000e+01	   3.0936137e-01	   1.0372819e-01	
   3.2285000e+01	   3.0767315e-01	   1.1070669e-01	
   3.2340000e+01	   3.0531523e-01	   1.1678127e-01	
   3.2395000e+01	   3.0255209e-01	   1.2197190e-01	
   3.2450000e+01	   2.9965471e-01	   1.2634771e-01	
   3.2505000e+01	   2.9688833e-01	   1.3001241e-01	
   3.2560000e+01	   2.9450019e-01	   1.3308575e-01	
   3.2615000e+01	   2.9270913e-01	   1.3568455e-01	
   3.2670000e+01	   2.9169891e-01	   1.3790699e-01	
   3.2725000e+01	   2.9161509e-01	   1.3982150e-01	
   3.2780000e+01	   2.9256226e-01	   1.4146018e-01	
   3.2835000e+01	   2.9459966e-01	   1.4281697e-01	
   3.2890000e+01	   2.9773622e-01	   1.4385145e-01	
   3.2945000e+01	   3.0192596e-01	   1.4449835e-01	
   3.3000000e+01	   3.0706401e-01	   1.4468091e-01	
   3.3055000e+01	   3.1298454e-01	   1.4432571e-01	
   3.3110000e+01	   3.1946401e-01	   1.4337656e-01	
   3.3165000e+01	   3.2623191e-01	   1.4180498e-01	
   3.3220000e+01	   3.3298829e-01	   1.3961561e-01	
   3.3275000e+01	   3.3942292e-01	   1.3684597e-01	
   3.3330000e+01	   3.4523160e-01	   1.3356105e-01	
   3.3385000e+01	   3.5012907e-01	   1.2984410e-01	
   3.3440000e+01	   3.5386106e-01	   1.2578536e-01	
   3.3495000e+01	   3.5621686e-01	   1.2147084e-01	
   3.3550000e+01	   3.5704148e-01	   1.1697282e-01	
   3.3605000e+01	   3.5624368e-01	   1.1234238e-01	
   3.3660000e+01	   3.5379676e-01	   1.0760414e-01	
   3.3715000e+01	   3.4973255e-01	   1.0275420e-01	
   3.3770000e+01	   3.4413222e-01	   9.7763114e-02	
   3.3825000e+01	   3.3711641e-01	   9.2584504e-02	
   3.3880000e+01	   3.2883468e-01	   8.7167523e-02	
   3.3935000e+01	   3.1945450e-01	   8.1470411e-02	
   3.3990000e+01	   3.0915039e-01	   7.5472342e-02	
   3.4045000e+01	   2.9809355e-01	   6.9181698e-02	
   3.4100000e+01	   2.8644335e-01	   6.2639682e-02	
   3.4155000e+01	   2.7434318e-01	   5.5919192e-02	
   3.4210000e+01	   2.6192220e-01	   4.9119753e-02	
   3.4265000e+01	   2.4930070e-01	   4.2359307e-02	
   3.4320000e+01	   2.3659547e-01	   3.5763612e-02	
   3.4375000e+01	   2.2392253e-01	   2.9454702e-02	
   3.4430000e+01	   2.1139756e-01	   2.3540094e-02	
   3.4485000e+01	   1.9913445e-01	   1.8103411e-02	
   3.4540000e+01	   1.8724305e-01	   1.3196496e-02	
   3.4595000e+01	   1.7582639e-01	   8.8340686e-03	
   3.4650000e+01	   1.6497698e-01	   4.9929456e-03	
   3.4705000e+01	   1.5477093e-01	   1.6168813e-03	
   3.4760000e+01	   1.4525990e-01	  -1.3738560e-03	
   3.4815000e+01	   1.3646401e-01	  -4.0699916e-03	
   3.4870000e+01	   1.2836863e-01	  -6.5596522e-03	
   3.4925000e+01	   1.2092488e-01	  -8.9160038e-03	
   3.4980000e+01	   1.1405176e-01	  -1.1188675e-02	
   3.5035000e+01	   1.0763903e-01	  -1.3400124e-02	
   3.5090000e+01	   1.0155224e-01	  -1.5546504e-02	
   3.5145000e+01	   9.5639906e-02	  -1.7602317e-02	
   3.5200000e+01	   8.9740350e-02	  -1.9528208e-02	
   3.5255000e+01	   8.3686086e-02	  -2.1280522e-02	
   3.5310000e+01	   7.7307631e-02	  -2.2820893e-02	
   3.5365000e+01	   7.0439777e-02	  -2.4124613e-02	
   3.5420000e+01	   6.2930936e-02	  -2.5186917e-02	
   3.5475000e+01	   5.4653404e-02	  -2.6025679e-02	
   3.5530000e+01	   4.5511933e-02	  -2.6678975e-02	
   3.5585000e+01	   3.5449517e-02	  -2.7197802e-02	
   3.5640000e+01	   2.4450689e-02	  -2.7636433e-02	
   3.5695000e+01	   1.2542990e-02	  -2.8043255e-02	
   3.5750000e+01	  -2.0257148e-04	  -2.8453872e-02	
   3.5805000e+01	  -1.3671777e-02	  -2.8887623e-02	
   3.5860000e+01	  -2.7709541e-02	  -2.9348135e-02	
   3.5915000e+01	  -4.2126213e-02	  -2.9827327e-02	
   3.5970000e+01	  -5.6707707e-02	  -3.0311360e-02	
   3.6025000e+01	  -7.1226622e-02	  -3.0787341e-02	
   3.6080000e+01	  -8.5451361e-02	  -3.1250227e-02	
   3.6135000e+01	  -9.9152944e-02	  -3.1709473e-02	
   3.6190000e+01	  -1.1211163e-01	  -3.2194135e-02	
   3.6245000e+01	  -1.2412545e-01	  -3.2754224e-02	
   3.6300000e+01	  -1.3502156e-01	  -3.3456401e-02	
   3.6355000e+01	  -1.4466849e-01	  -3.4373765e-02	
   3.6410000e+01	  -1.5298559e-01	  -3.5571485e-02	
   3.6465000e+01	  -1.5994669e-01	  -3.7091713e-02	
   3.6520000e+01	  -1.6557910e-01	  -3.8941675e-02	
   3.6575000e+01	  -1.6995939e-01	  -4.1087392e-02	
   3.6630000e+01	  -1.7320622e-01	  -4.3453455e-02	
   3.6685000e+01	  -1.7547031e-01	  -4.5928423e-02	
   3.6740000e+01	  -1.7692187e-01	  -4.8374864e-02	
   3.6795000e+01	  -1.7773686e-01	  -5.0642224e-02	
   3.6850000e+01	  -1.7808341e-01	  -5.2580732e-02	
   3.6905000e+01	  -1.7810953e-01	  -5.4055558e-02	
   3.6960000e+01	  -1.7793327e-01	  -5.4960623e-02	
   3.7015000e+01	  -1.7763625e-01	  -5.5229899e-02	
   3.7070000e+01	  -1.7726039e-01	  -5.4842899e-02	
   3.7125000e+01	  -1.7680909e-01	  -5.3822224e-02	
   3.7180000e+01	  -1.7625490e-01	  -5.2223887e-02	
   3.7235000e+01	  -1.7555345e-01	  -5.0123418e-02	
   3.7290000e+01	  -1.7465994e-01	  -4.7601334e-02	
   3.7345000e+01	  -1.7354292e-01	  -4.4730799e-02	
   3.7400000e+01	  -1.7219229e-01	  -4.1569292e-02	
   3.7455000e+01	  -1.7062099e-01	  -3.8155132e-02	
   3.7510000e+01	  -1.6886220e-01	  -3.4508608e-02	
   3.7565000e+01	  -1.6696384e-01	  -3.0636898e-02	
   3.7620000e+01	  -1.6498140e-01	  -2.6541958e-02	
   3.7675000e+01	  -1.6297093e-01	  -2.2230030e-02	
   3.7730000e+01	  -1.6098423e-01	  -1.7720646e-02	
   3.7785000e+01	  -1.5906680e-01	  -1.3053555e-02	
   3.7840000e+01	  -1.5725856e-01	  -8.2929638e-03	
   3.7895000e+01	  -1.5559652e-01	  -3.5284618e-03	
   3.7950000e+01	  -1.5411762e-01	   1.1286799e-03	
   3.8005000e+01	  -1.5285916e-01	   5.5543190e-03	
   3.8060000e+01	  -1.5185727e-01	   9.6236906e-03	
   3.8115000e+01	  -1.5114512e-01	   1.3224351e-02	
   3.8170000e+01	  -1.5075211e-01	   1.6267672e-02	
   3.8225000e+01	  -1.5070311e-01	   1.8697317e-02	
   3.8280000e+01	  -1.5101758e-01	   2.0493305e-02	
   3.8335000e+01	  -1.5170952e-01	   2.1671091e-02	
   3.8390000e+01	  -1.5278797e-01	   2.2276484e-02	
   3.8445000e+01	  -1.5425629e-01	   2.2377547e-02	
   3.8500000e+01	  -1.5610909e-01	   2.2053941e-02	
   3.8555000e+01	  -1.5832806e-01	   2.1384223e-02	
   3.8610000e+01	  -1.6087825e-01	   2.0432946e-02	
   3.8665000e+01	  -1.6370544e-01	   1.9240546e-02	
   3.8720000e+01	  -1.6673470e-01	   1.7819329e-02	
   3.8775000e+01	  -1.6987046e-01	   1.6157626e-02	
   3.8830000e+01	  -1.7299917e-01	   1.4231218e-02	
   3.8885000e+01	  -1.7599496e-01	   1.2018255e-02	
   3.8940000e+01	  -1.7872814e-01	   9.5129758e-03	
   3.8995000e+01	  -1.8107487e-01	   6.7344898e-03	
   3.9050000e+01	  -1.8292623e-01	   3.7289217e-03	
   3.9105000e+01	  -1.8419497e-01	   5.6530672e-04	
   3.9160000e+01	  -1.8481984e-01	  -2.6729830e-03	
   3.9215000e+01	  -1.8476829e-01	  -5.8990450e-03	
   3.9270000e+01	  -1.8403752e-01	  -9.0331406e-03	
   3.9325000e+01	  -1.8265418e-01	  -1.2011201e-02	
   3.9380000e+01	  -1.8067259e-01	  -1.4789822e-02	
   3.9435000e+01	  -1.7817070e-01	  -1.7346941e-02	
   3.9490000e+01	  -1.7524204e-01	  -1.9677751e-02	
   3.9545000e+01	  -1.7198435e-01	  -2.1786792e-02	
   3.9600000e+01	  -1.6849028e-01	  -2.3679054e-02	
   3.9655000e+01	  -1.6484568e-01	  -2.5353088e-02	
   3.9710000e+01	  -1.6113494e-01	  -2.6797301e-02	
   3.9765000e+01	  -1.5744819e-01	  -2.7988980e-02	
   3.9820000e+01	  -1.5388610e-01	  -2.8895743e-02	
   3.9875000e+01	  -1.5056127e-01	  -2.9479924e-02	
   3.9930000e+01	  -1.4759643e-01	  -2.9705671e-02	
   3.9985000e+01	  -1.4511796e-01	  -2.9546979e-02	
   4.0040000e+01	  -1.4324506e-01	  -2.8994623e-02	
   4.0095000e+01	  -1.4207770e-01	  -2.8060835e-02	
   4.0150000e+01	  -1.4168688e-01	  -2.6780659e-02	
   4.0205000e+01	  -1.4210726e-01	  -2.5208827e-02	
   4.0260000e+01	  -1.4333074e-01	  -2.3412128e-02	
   4.0315000e+01	  -1.4530181e-01	  -2.1458696e-02	
   4.0370000e+01	  -1.4791739e-01	  -1.9406312e-02	
   4.0425000e+01	  -1.5103313e-01	  -1.7292141e-02	
   4.0480000e+01	  -1.5447492e-01	  -1.5126299e-02	
   4.0535000e+01	  -1.5805287e-01	  -1.2890632e-02	
   4.0590000e+01	  -1.6157439e-01	  -1.0542517e-02	
   4.0645000e+01	  -1.6485493e-01	  -8.0228665e-03	
   4.0700000e+01	  -1.6772799e-01	  -5.2674918e-03	
   4.0755000e+01	  -1.7005517e-01	  -2.2203506e-03	
   4.0810000e+01	  -1.7173517e-01	   1.1534480e-03	
   4.0865000e+01	  -1.7271035e-01	   4.8566349e-03	
   4.0920000e+01	  -1.7297005e-01	   8.8519825e-03	
   4.0975000e+01	  -1.7254995e-01	   1.3059175e-02	
   4.1030000e+01	  -1.7152530e-01	   1.7358082e-02	
   4.1085000e+01	  -1.6999752e-01	   2.1599007e-02	
   4.1140000e+01	  -1.6807640e-01	   2.5618103e-02	
   4.1195000e+01	  -1.6586216e-01	   2.9254723e-02	
   4.1250000e+01	  -1.6343108e-01	   3.2367770e-02	
   4.1305000e+01	  -1.6082701e-01	   3.4848947e-02	
   4.1360000e+01	  -1.5806070e-01	   3.6631323e-02	
   4.1415000e+01	  -1.5511629e-01	   3.7692194e-02	
   4.1470000e+01	  -1.5196194e-01	   3.8049876e-02	
   4.1525000e+01	  -1.4856065e-01	   3.7755000e-02	
   4.1580000e+01	  -1.4487937e-01	   3.6877725e-02	
   4.1635000e+01	  -1.4089584e-01	   3.5493078e-02	
   4.1690000e+01	  -1.3660172e-01	   3.3667246e-02	
   4.1745000e+01	  -1.3200157e-01	   3.1447406e-02	
   4.1800000e+01	  -1.2710952e-01	   2.8856087e-02	
   4.1855000e+01	  -1.2194570e-01	   2.5889881e-02	
   4.1910000e+01	  -1.1653184e-01	   2.2522757e-02	
   4.1965000e+01	  -1.1088371e-01	   1.8714330e-02	
   4.2020000e+01	  -1.0500188e-01	   1.4421755e-02	
   4.2075000e+01	  -9.8865539e-02	   9.6122170e-03	
   4.2130000e+01	  -9.2432279e-02	   4.2733729e-03	
   4.2185000e+01	  -8.5643751e-02	  -1.5796321e-03	
   4.2240000e+01	  -7.8435348e-02	  -7.9013161e-03	
   4.2295000e+01	  -7.0749387e-02	  -1.4617622e-02	
   4.2350000e+01	  -6.2550099e-02	  -2.1631876e-02	
   4.2405000e+01	  -5.3836196e-02	  -2.8833871e-02	
   4.2460000e+01	  -4.4646955e-02	  -3.6110862e-02	
   4.2515000e+01	  -3.5061156e-02	  -4.3358911e-02	
   4.2570000e+01	  -2.5190554e-02	  -5.0492777e-02	
   4.2625000e+01	  -1.5169547e-02	  -5.7452927e-02	
   4.2680000e+01	  -5.1424118e-03	  -6.4208710e-02	
   4.2735000e+01	   4.7499752e-03	  -7.0756772e-02	
   4.2790000e+01	   1.4382359e-02	  -7.7114209e-02	
   4.2845000e+01	   2.3655525e-02	  -8.3307461e-02	
   4.2900000e+01	   3.2503916e-02	  -8.9359807e-02	
   4.2955000e+01	   4.0898190e-02	  -9.5281025e-02	
   4.3010000e+01	   4.8840520e-02	  -1.0106186e-01	
   4.3065000e+01	   5.6353068e-02	  -1.0667405e-01	
   4.3120000e+01	   6.3463078e-02	  -1.1207525e-01	
   4.3175000e+01	   7.0189062e-02	  -1.1721716e-01	
   4.3230000e+01	   7.6531777e-02	  -1.2205525e-01	
   4.3285000e+01	   8.2472065e-02	  -1.2655771e-01	
   4.3340000e+01	   8.7975438e-02	  -1.3071206e-01	
   4.3395000e+01	   9.3001168e-02	  -1.3452904e-01	
   4.3450000e+01	   9.7513091e-02	  -1.3804293e-01	
   4.3505000e+01	   1.0149009e-01	  -1.4130795e-01	
   4.3560000e+01	   1.0493429e-01	  -1.4439093e-01	
   4.3615000e+01	   1.0787482e-01	  -1.4736150e-01	
   4.3670000e+01	   1.1036620e-01	  -1.5028193e-01	
   4.3725000e+01	   1.1248369e-01	  -1.5319780e-01	
   4.3780000e+01	   1.1431782e-01	  -1.5613080e-01	
   4.3835000e+01	   1.1596941e-01	  -1.5907477e-01	
   4.3890000e+01	   1.1754511e-01	  -1.6199610e-01	
   4.3945000e+01	   1.1915309e-01	  -1.6483852e-01	
   4.4000000e+01	   1.2089747e-01	  -1.6753219e-01	
   4.4055000e+01	   1.2287079e-01	  -1.7000606e-01	
   4.4110000e+01	   1.2514598e-01	  -1.7220119e-01	
   4.4165000e+01	   1.2776990e-01	  -1.7408203e-01	
   4.4220000e+01	   1.3075908e-01	  -1.7564337e-01	
   4.4275000e+01	   1.3409683e-01	  -1.7691220e-01	
   4.4330000e+01	   1.3773156e-01	  -1.7794450e-01	
   4.4385000e+01	   1.4157755e-01	  -1.7881758e-01	
   4.4440000e+01	   1.4551935e-01	  -1.7961906e-01	
   4.4495000e+01	   1.4941944e-01	  -1.8043512e-01	
   4.4550000e+01	   1.5312706e-01	  -1.8134000e-01	
   4.4605000e+01	   1.5648728e-01	  -1.8238826e-01	
   4.4660000e+01	   1.5934968e-01	  -1.8361050e-01	
   4.4715000e+01	   1.6157629e-01	  -1.8501354e-01	
   4.4770000e+01	   1.6304815e-01	  -1.8658496e-01	
   4.4825000e+01	   1.6367145e-01	  -1.8830069e-01	
   4.4880000e+01	   1.6338402e-01	  -1.9013363e-01	
   4.4935000e+01	   1.6216225e-01	  -1.9206215e-01	
   4.4990000e+01	   1.6002646e-01	  -1.9407711e-01	
   4.5045000e+01	   1.5704155e-01	  -1.9618621e-01	
   4.5100000e+01	   1.5331089e-01	  -1.9841419e-01	
   4.5155000e+01	   1.4896427e-01	  -2.0079819e-01	
   4.5210000e+01	   1.4414340e-01	  -2.0337857e-01	
   4.5265000e+01	   1.3898887e-01	  -2.0618682e-01	
   4.5320000e+01	   1.3363051e-01	  -2.0923335e-01	
   4.5375000e+01	   1.2818008e-01	  -2.1249867e-01	
   4.5430000e+01	   1.2272583e-01	  -2.1593036e-01	
   4.5485000e+01	   1.1733119e-01	  -2.1944557e-01	
   4.5540000e+01	   1.1203952e-01	  -2.2293780e-01	
   4.5595000e+01	   1.0688389e-01	  -2.2628624e-01	
   4.5650000e+01	   1.0189858e-01	  -2.2936689e-01	
   4.5705000e+01	   9.7130388e-02	  -2.3206376e-01	
   4.5760000e+01	   9.2648448e-02	  -2.3427904e-01	
   4.5815000e+01	   8.8551255e-02	  -2.3594212e-01	
   4.5870000e+01	   8.4969160e-02	  -2.3701722e-01	
   4.5925000e+01	   8.2060960e-02	  -2.3750750e-01	
   4.5980000e+01	   8.0004529e-02	  -2.3745263e-01	
   4.6035000e+01	   7.8982561e-02	  -2.3692001e-01	
   4.6090000e+01	   7.9166086e-02	  -2.3599252e-01	
   4.6145000e+01	   8.0700526e-02	  -2.3475649e-01	
   4.6200000e+01	   8.3698399e-02	  -2.3329230e-01	
   4.6255000e+01	   8.8237973e-02	  -2.3166900e-01	
   4.6310000e+01	   9.4364138e-02	  -2.2994266e-01	
   4.6365000e+01	   1.0208965e-01	  -2.2815724e-01	
   4.6420000e+01	   1.1139714e-01	  -2.2634715e-01	
   4.6475000e+01	   1.2224205e-01	  -2.2454172e-01	
   4.6530000e+01	   1.3455590e-01	  -2.2277215e-01	
   4.6585000e+01	   1.4824996e-01	  -2.2108021e-01	
   4.6640000e+01	   1.6321974e-01	  -2.1952600e-01	
   4.6695000e+01	   1.7934979e-01	  -2.1819156e-01	
   4.6750000e+01	   1.9651792e-01	  -2.1717861e-01	
   4.6805000e+01	   2.1459712e-01	  -2.1660021e-01	
   4.6860000e+01	   2.3345463e-01	  -2.1656734e-01	
   4.6915000e+01	   2.5294795e-01	  -2.1717347e-01	
   4.6970000e+01	   2.7291971e-01	  -2.1848081e-01	
   4.7025000e+01	   2.9319378e-01	  -2.2051079e-01	
   4.7080000e+01	   3.1357373e-01	  -2.2323936e-01	
   4.7135000e+01	   3.3384254e-01	  -2.2659729e-01	
   4.7190000e+01	   3.5376222e-01	  -2.3047618e-01	
   4.7245000e+01	   3.7307454e-01	  -2.3473957e-01	
   4.7300000e+01	   3.9150524e-01	  -2.3923714e-01	
   4.7355000e+01	   4.0877137e-01	  -2.4382012e-01	
   4.7410000e+01	   4.2458972e-01	  -2.4835658e-01	
   4.7465000e+01	   4.3868586e-01	  -2.5274436e-01	
   4.7520000e+01	   4.5080423e-01	  -2.5691902e-01	
   4.7575000e+01	   4.6071911e-01	  -2.6085515e-01	
   4.7630000e+01	   4.6824471e-01	  -2.6456079e-01	
   4.7685000e+01	   4.7324339e-01	  -2.6806605e-01	
   4.7740000e+01	   4.7563149e-01	  -2.7140910e-01	
   4.7795000e+01	   4.7538233e-01	  -2.7462360e-01	
   4.7850000e+01	   4.7252561e-01	  -2.7773054e-01	
   4.7905000e+01	   4.6714414e-01	  -2.8073497e-01	
   4.7960000e+01	   4.5936984e-01	  -2.8362618e-01	
   4.8015000e+01	   4.4938038e-01	  -2.8637958e-01	
   4.8070000e+01	   4.3739498e-01	  -2.8895930e-01	
   4.8125000e+01	   4.2366812e-01	  -2.9132159e-01	
   4.8180000e+01	   4.0848172e-01	  -2.9341954e-01	
   4.8235000e+01	   3.9213710e-01	  -2.9520853e-01	
   4.8290000e+01	   3.7494740e-01	  -2.9665121e-01	
   4.8345000e+01	   3.5723149e-01	  -2.9771999e-01	
   4.8400000e+01	   3.3931044e-01	  -2.9839529e-01	
   4.8455000e+01	   3.2150455e-01	  -2.9865870e-01	
   4.8510000e+01	   3.0412734e-01	  -2.9848315e-01	
   4.8565000e+01	   2.8747622e-01	  -2.9782295e-01	
   4.8620000e+01	   2.7182321e-01	  -2.9660678e-01	
   4.8675000e+01	   2.5740730e-01	  -2.9473542e-01	
   4.8730000e+01	   2.4442717e-01	  -2.9208601e-01	
   4.8785000e+01	   2.3303274e-01	  -2.8852260e-01	
   4.8840000e+01	   2.2331759e-01	  -2.8391107e-01	
   4.8895000e+01	   2.1531566e-01	  -2.7813603e-01	
   4.8950000e+01	   2.0900320e-01	  -2.7111778e-01	
   4.9005000e+01	   2.0430400e-01	  -2.6282718e-01	
   4.9060000e+01	   2.0109642e-01	  -2.5329561e-01	
   4.9115000e+01	   1.9922246e-01	  -2.4261757e-01	
   4.9170000e+01	   1.9849896e-01	  -2.3094543e-01	
   4.9225000e+01	   1.9873055e-01	  -2.1847711e-01	
   4.9280000e+01	   1.9972346e-01	  -2.0543881e-01	
   4.9335000e+01	   2.0129879e-01	  -1.9206562e-01	
   4.9390000e+01	   2.0330190e-01	  -1.7858340e-01	
   4.9445000e+01	   2.0560636e-01	  -1.6519414e-01	
   4.9500000e+01	   2.0811295e-01	  -1.5206600e-01	
   4.9555000e+01	   2.1074473e-01	  -1.3932821e-01	
   4.9610000e+01	   2.1343838e-01	  -1.2707091e-01	
   4.9665000e+01	   2.1613384e-01	  -1.1534948e-01	
   4.9720000e+01	   2.1876555e-01	  -1.0419255e-01	
   4.9775000e+01	   2.2125786e-01	  -9.3611626e-02	
   4.9830000e+01	   2.2352559e-01	  -8.3610790e-02	
   4.9885000e+01	   2.2547855e-01	  -7.4194864e-02	
   4.9940000e+01	   2.2702917e-01	  -6.5374514e-02	
   4.9995000e+01	   2.2810168e-01	  -5.7166831e-02	
   5.0050000e+01	   2.2864098e-01	  -4.9591040e-02	
   5.0105000e+01	   2.2861844e-01	  -4.2660294e-02	
   5.0160000e+01	   2.2803350e-01	  -3.6371627e-02	
   5.0215000e+01	   2.2691182e-01	  -3.0697218e-02	
   5.0270000e+01	   2.2530189e-01	  -2.5579908e-02	
   5.0325000e+01	   2.2327079e-01	  -2.0933868e-02	
   5.0380000e+01	   2.2089837e-01	  -1.6649223e-02	
   5.0435000e+01	   2.1826946e-01	  -1.2599097e-02	
   5.0490000e+01	   2.1546433e-01	  -8.6484829e-03	
   5.0545000e+01	   2.1254985e-01	  -4.6649780e-03	
   5.0600000e+01	   2.0957505e-01	  -5.3091525e-04	
   5.0655000e+01	   2.0657416e-01	   3.8447486e-03	
   5.0710000e+01	   2.0357628e-01	   8.5174190e-03	
   5.0765000e+01	   2.0061717e-01	   1.3503356e-02	
   5.0820000e+01	   1.9774904e-01	   1.8782992e-02	
   5.0875000e+01	   1.9504635e-01	   2.4310012e-02	
   5.0930000e+01	   1.9260688e-01	   3.0023082e-02	
   5.0985000e+01	   1.9054796e-01	   3.5857139e-02	
   5.1040000e+01	   1.8899829e-01	   4.1752774e-02	
   5.1095000e+01	   1.8808754e-01	   4.7663018e-02	
   5.1150000e+01	   1.8793472e-01	   5.3556456e-02	
   5.1205000e+01	   1.8863635e-01	   5.9415960e-02	
   5.1260000e+01	   1.9025617e-01	   6.5234098e-02	
   5.1315000e+01	   1.9281835e-01	   7.1007462e-02	
   5.1370000e+01	   1.9630415e-01	   7.6731339e-02	
   5.1425000e+01	   2.0065082e-01	   8.2394897e-02	
   5.1480000e+01	   2.0575272e-01	   8.7977375e-02	
   5.1535000e+01	   2.1146698e-01	   9.3447287e-02	
   5.1590000e+01	   2.1762493e-01	   9.8766694e-02	
   5.1645000e+01	   2.2404694e-01	   1.0390027e-01	
   5.1700000e+01	   2.3055636e-01	   1.0882630e-01	
   5.1755000e+01	   2.3698954e-01	   1.1354627e-01	
   5.1810000e+01	   2.4320078e-01	   1.1809013e-01	
   5.1865000e+01	   2.4906264e-01	   1.2251604e-01	
   5.1920000e+01	   2.5446361e-01	   1.2690401e-01	
   5.1975000e+01	   2.5930549e-01	   1.3134490e-01	
   5.2030000e+01	   2.6350130e-01	   1.3592748e-01	
   5.2085000e+01	   2.6697329e-01	   1.4072617e-01	
   5.2140000e+01	   2.6965087e-01	   1.4579137e-01	
   5.2195000e+01	   2.7147024e-01	   1.5114334e-01	
   5.2250000e+01	   2.7237719e-01	   1.5676997e-01	
   5.2305000e+01	   2.7233216e-01	   1.6262896e-01	
   5.2360000e+01	   2.7131619e-01	   1.6865466e-01	
   5.2415000e+01	   2.6933679e-01	   1.7476918e-01	
   5.2470000e+01	   2.6643079e-01	   1.8089561e-01	
   5.2525000e+01	   2.6266091e-01	   1.8697008e-01	
   5.2580000e+01	   2.5810605e-01	   1.9295032e-01	
   5.2635000e+01	   2.5284944e-01	   1.9881965e-01	
   5.2690000e+01	   2.4696933e-01	   2.0458580e-01	
   5.2745000e+01	   2.4053491e-01	   2.1027428e-01	
   5.2800000e+01	   2.3360870e-01	   2.1591769e-01	
   5.2855000e+01	   2.2625424e-01	   2.2154329e-01	
   5.2910000e+01	   2.1854584e-01	   2.2716112e-01	
   5.2965000e+01	   2.1057636e-01	   2.3275392e-01	
   5.3020000e+01	   2.0246148e-01	   2.3827027e-01	
   5.3075000e+01	   1.9434082e-01	   2.4362299e-01	
   5.3130000e+01	   1.8637692e-01	   2.4869398e-01	
   5.3185000e+01	   1.7875197e-01	   2.5334559e-01	
   5.3240000e+01	   1.7166230e-01	   2.5743671e-01	
   5.3295000e+01	   1.6531152e-01	   2.6084079e-01	
   5.3350000e+01	   1.5990213e-01	   2.6346250e-01	
   5.3405000e+01	   1.5562399e-01	   2.6524960e-01	
   5.3460000e+01	   1.5263754e-01	   2.6619830e-01	
   5.3515000e+01	   1.5105424e-01	   2.6635198e-01	
   5.3570000e+01	   1.5091987e-01	   2.6579443e-01	
   5.3625000e+01	   1.5220536e-01	   2.6463904e-01	
   5.3680000e+01	   1.5480595e-01	   2.6301500e-01	
   5.3735000e+01	   1.5854790e-01	   2.6105224e-01	
   5.3790000e+01	   1.6320126e-01	   2.5886670e-01	
   5.3845000e+01	   1.6849706e-01	   2.5654717e-01	
   5.3900000e+01	   1.7414659e-01	   2.5414526e-01	
   5.3955000e+01	   1.7986203e-01	   2.5167063e-01	
   5.4010000e+01	   1.8537852e-01	   2.4909330e-01	
   5.4065000e+01	   1.9047599e-01	   2.4635346e-01	
   5.4120000e+01	   1.9499689e-01	   2.4337687e-01	
   5.4175000e+01	   1.9885625e-01	   2.4009303e-01	
   5.4230000e+01	   2.0204215e-01	   2.3645250e-01	
   5.4285000e+01	   2.0460681e-01	   2.3243949e-01	
   5.4340000e+01	   2.0664971e-01	   2.2807740e-01	
   5.4395000e+01	   2.0829596e-01	   2.2342804e-01	
   5.4450000e+01	   2.0967420e-01	   2.1858640e-01	
   5.4505000e+01	   2.1089757e-01	   2.1367223e-01	
   5.4560000e+01	   2.1204982e-01	   2.0881950e-01	
   5.4615000e+01	   2.1317714e-01	   2.0416437e-01	
   5.4670000e+01	   2.1428614e-01	   1.9983295e-01	
   5.4725000e+01	   2.1534803e-01	   1.9592932e-01	
   5.4780000e+01	   2.1630769e-01	   1.9252471e-01	
   5.4835000e+01	   2.1709563e-01	   1.8964923e-01	
   5.4890000e+01	   2.1764041e-01	   1.8728819e-01	
   5.4945000e+01	   2.1788029e-01	   1.8538395e-01	
   5.5000000e+01	   2.1777326e-01	   1.8384362e-01	
   5.5055000e+01	   2.1730509e-01	   1.8255177e-01	
   5.5110000e+01	   2.1649440e-01	   1.8138620e-01	
   5.5165000e+01	   2.1539381e-01	   1.8023298e-01	
   5.5220000e+01	   2.1408566e-01	   1.7899807e-01	
   5.5275000e+01	   2.1267254e-01	   1.7761430e-01	
   5.5330000e+01	   2.1126511e-01	   1.7604386e-01	
   5.5385000e+01	   2.0997014e-01	   1.7427664e-01	
   5.5440000e+01	   2.0887988e-01	   1.7232469e-01	
   5.5495000e+01	   2.0806316e-01	   1.7021375e-01	
   5.5550000e+01	   2.0755920e-01	   1.6797272e-01	
   5.5605000e+01	   2.0737514e-01	   1.6562233e-01	
   5.5660000e+01	   2.0748703e-01	   1.6316453e-01	
   5.5715000e+01	   2.0784411e-01	   1.6057505e-01	
   5.5770000e+01	   2.0837711e-01	   1.5780164e-01	
   5.5825000e+01	   2.0901101e-01	   1.5476928e-01	
   5.5880000e+01	   2.0967890e-01	   1.5139205e-01	
   5.5935000e+01	   2.1033268e-01	   1.4758874e-01	
   5.5990000e+01	   2.1094818e-01	   1.4329858e-01	
   5.6045000e+01	   2.1152472e-01	   1.3849350e-01	
   5.6100000e+01	   2.1208024e-01	   1.3318555e-01	
   5.6155000e+01	   2.1264481e-01	   1.2742935e-01	
   5.6210000e+01	   2.1325574e-01	   1.2132025e-01	
   5.6265000e+01	   2.1395588e-01	   1.1498884e-01	
   5.6320000e+01	   2.1479371e-01	   1.0859211e-01	
   5.6375000e+01	   2.1582252e-01	   1.0230170e-01	
   5.6430000e+01	   2.1709688e-01	   9.6290031e-02	
   5.6485000e+01	   2.1866757e-01	   9.0715270e-02	
   5.6540000e+01	   2.2057727e-01	   8.5706671e-02	
   5.6595000e+01	   2.2285909e-01	   8.1352656e-02	
   5.6650000e+01	   2.2553759e-01	   7.7694872e-02	
   5.6705000e+01	   2.2863016e-01	   7.4730338e-02	
   5.6760000e+01	   2.3214634e-01	   7.2421528e-02	
   5.6815000e+01	   2.3608431e-01	   7.0711547e-02	
   5.6870000e+01	   2.4042505e-01	   6.9540047e-02	
   5.6925000e+01	   2.4512590e-01	   6.8856299e-02	
   5.6980000e+01	   2.5011534e-01	   6.8627808e-02	
   5.7035000e+01	   2.5529013e-01	   6.8844029e-02	
   5.7090000e+01	   2.6051469e-01	   6.9515049e-02	
   5.7145000e+01	   2.6562260e-01	   7.0665597e-02	
   5.7200000e+01	   2.7042102e-01	   7.2325699e-02	
   5.7255000e+01	   2.7469989e-01	   7.4520102e-02	
   5.7310000e+01	   2.7824726e-01	   7.7258441e-02	
   5.7365000e+01	   2.8086764e-01	   8.0527331e-02	
   5.7420000e+01	   2.8239770e-01	   8.4285207e-02	
   5.7475000e+01	   2.8271612e-01	   8.8461411e-02	
   5.7530000e+01	   2.8174919e-01	   9.2961310e-02	
   5.7585000e+01	   2.7947387e-01	   9.7677315e-02	
   5.7640000e+01	   2.7591698e-01	   1.0250264e-01	
   5.7695000e+01	   2.7114857e-01	   1.0734404e-01	
   5.7750000e+01	   2.6527087e-01	   1.1213175e-01	
   5.7805000e+01	   2.5840668e-01	   1.1682587e-01	
   5.7860000e+01	   2.5068959e-01	   1.2141814e-01	
   5.7915000e+01	   2.4225560e-01	   1.2592813e-01	
   5.7970000e+01	   2.3323619e-01	   1.3039515e-01	
   5.8025000e+01	   2.2375283e-01	   1.3486772e-01	
   5.8080000e+01	   2.1391271e-01	   1.3939208e-01	
   5.8135000e+01	   2.0380549e-01	   1.4400032e-01	
   5.8190000e+01	   1.9350265e-01	   1.4869996e-01	
   5.8245000e+01	   1.8306190e-01	   1.5346745e-01	
   5.8300000e+01	   1.7253678e-01	   1.5824775e-01	
   5.8355000e+01	   1.6198874e-01	   1.6296075e-01	
   5.8410000e+01	   1.5149714e-01	   1.6751404e-01	
   5.8465000e+01	   1.4116387e-01	   1.7181995e-01	
   5.8520000e+01	   1.3111090e-01	   1.7581269e-01	
   5.8575000e+01	   1.2147143e-01	   1.7946143e-01	
   5.8630000e+01	   1.1237735e-01	   1.8277692e-01	
   5.8685000e+01	   1.0394718e-01	   1.8581200e-01	
   5.8740000e+01	   9.6277823e-02	   1.8865686e-01	
   5.8795000e+01	   8.9441301e-02	   1.9142959e-01	
   5.8850000e+01	   8.3485693e-02	   1.9426365e-01	
   5.8905000e+01	   7.8438238e-02	   1.9729397e-01	
   5.8960000e+01	   7.4308580e-02	   2.0064310e-01	
   5.9015000e+01	   7.1092013e-02	   2.0440765e-01	
   5.9070000e+01	   6.8774296e-02	   2.0864607e-01	
   5.9125000e+01	   6.7338941e-02	   2.1336988e-01	
   5.9180000e+01	   6.6775732e-02	   2.1854107e-01	
   5.9235000e+01	   6.7087815e-02	   2.2407689e-01	
   5.9290000e+01	   6.8294993e-02	   2.2986131e-01	
   5.9345000e+01	   7.0431979e-02	   2.3576135e-01	
   5.9400000e+01	   7.3541209e-02	   2.4164490e-01	
   5.9455000e+01	   7.7660803e-02	   2.4739646e-01	
   5.9510000e+01	   8.2810224e-02	   2.5292811e-01	
   5.9565000e+01	   8.8977975e-02	   2.5818460e-01	
   5.9620000e+01	   9.6114404e-02	   2.6314291e-01	
   5.9675000e+01	   1.0412904e-01	   2.6780691e-01	
   5.9730000e+01	   1.1289022e-01	   2.7219818e-01	
   5.9785000e+01	   1.2222680e-01	   2.7634482e-01	
   5.9840000e+01	   1.3193369e-01	   2.8026992e-01	
   5.9895000e+01	   1.4178189e-01	   2.8398107e-01	
   5.9950000e+01	   1.5153152e-01	   2.8746153e-01	
   6.0005000e+01	   1.6094552e-01	   2.9066532e-01	
   6.0060000e+01	   1.6980245e-01	   2.9351829e-01	
   6.0115000e+01	   1.7790663e-01	   2.9592590e-01	
   6.0170000e+01	   1.8509500e-01	   2.9778673e-01	
   6.0225000e+01	   1.9124066e-01	   2.9900893e-01	
   6.0280000e+01	   1.9625358e-01	   2.9952613e-01	
   6.0335000e+01	   2.0007890e-01	   2.9930919e-01	
   6.0390000e+01	   2.0269455e-01	   2.9837218e-01	
   6.0445000e+01	   2.0410987e-01	   2.9677263e-01	
   6.0500000e+01	   2.0436538e-01	   2.9460717e-01	
   6.0555000e+01	   2.0353288e-01	   2.9200335e-01	
   6.0610000e+01	   2.0171469e-01	   2.8910830e-01	
   6.0665000e+01	   1.9904118e-01	   2.8607535e-01	
   6.0720000e+01	   1.9566537e-01	   2.8304961e-01	
   6.0775000e+01	   1.9175474e-01	   2.8015426e-01	
   6.0830000e+01	   1.8748247e-01	   2.7747916e-01	
   6.0885000e+01	   1.8302074e-01	   2.7507410e-01	
   6.0940000e+01	   1.7853704e-01	   2.7294809e-01	
   6.0995000e+01	   1.7419146e-01	   2.7107564e-01	
   6.1050000e+01	   1.7013225e-01	   2.6940879e-01	
   6.1105000e+01	   1.6648911e-01	   2.6789150e-01	
   6.1160000e+01	   1.6336673e-01	   2.6647218e-01	
   6.1215000e+01	   1.6084091e-01	   2.6511123e-01	
   6.1270000e+01	   1.5895718e-01	   2.6378292e-01	
   6.1325000e+01	   1.5773076e-01	   2.6247323e-01	
   6.1380000e+01	   1.5714731e-01	   2.6117617e-01	
   6.1435000e+01	   1.5716408e-01	   2.5988991e-01	
   6.1490000e+01	   1.5771163e-01	   2.5861310e-01	
   6.1545000e+01	   1.5869626e-01	   2.5734089e-01	
   6.1600000e+01	   1.6000403e-01	   2.5606160e-01	
   6.1655000e+01	   1.6150775e-01	   2.5475479e-01	
   6.1710000e+01	   1.6307743e-01	   2.5339139e-01	
   6.1765000e+01	   1.6459197e-01	   2.5193683e-01	
   6.1820000e+01	   1.6594860e-01	   2.5035821e-01	
   6.1875000e+01	   1.6706646e-01	   2.4863474e-01	
   6.1930000e+01	   1.6788302e-01	   2.4676891e-01	
   6.1985000e+01	   1.6834618e-01	   2.4479526e-01	
   6.2040000e+01	   1.6840671e-01	   2.4278475e-01	
   6.2095000e+01	   1.6801334e-01	   2.4084391e-01	
   6.2150000e+01	   1.6710943e-01	   2.3910805e-01	
   6.2205000e+01	   1.6563029e-01	   2.3772957e-01	
   6.2260000e+01	   1.6350239e-01	   2.3686391e-01	
   6.2315000e+01	   1.6064714e-01	   2.3665579e-01	
   6.2370000e+01	   1.5698952e-01	   2.3722621e-01	
   6.2425000e+01	   1.5246984e-01	   2.3866040e-01	
   6.2480000e+01	   1.4705663e-01	   2.4099873e-01	
   6.2535000e+01	   1.4075756e-01	   2.4423317e-01	
   6.2590000e+01	   1.3362486e-01	   2.4831003e-01	
   6.2645000e+01	   1.2575378e-01	   2.5313875e-01	
   6.2700000e+01	   1.1727618e-01	   2.5860564e-01	
   6.2755000e+01	   1.0835387e-01	   2.6459065e-01	
   6.2810000e+01	   9.9173231e-02	   2.7098285e-01	
   6.2865000e+01	   8.9939335e-02	   2.7769084e-01	
   6.2920000e+01	   8.0867338e-02	   2.8464674e-01	
   6.2975000e+01	   7.2172090e-02	   2.9180462e-01	
   6.3030000e+01	   6.4058716e-02	   2.9913506e-01	
   6.3085000e+01	   5.6715477e-02	   3.0661748e-01	
   6.3140000e+01	   5.0309538e-02	   3.1423248e-01	
   6.3195000e+01	   4.4986780e-02	   3.2195489e-01	
   6.3250000e+01	   4.0875669e-02	   3.2974769e-01	
   6.3305000e+01	   3.8092550e-02	   3.3755656e-01	
   6.3360000e+01	   3.6744685e-02	   3.4530611e-01	
   6.3415000e+01	   3.6928641e-02	   3.5289960e-01	
   6.3470000e+01	   3.8723891e-02	   3.6022363e-01	
   6.3525000e+01	   4.2183724e-02	   3.6715766e-01	
   6.3580000e+01	   4.7326289e-02	   3.7358669e-01	
   6.3635000e+01	   5.4127011e-02	   3.7941457e-01	
   6.3690000e+01	   6.2511139e-02	   3.8457576e-01	
   6.3745000e+01	   7.2344818e-02	   3.8904318e-01	
   6.3800000e+01	   8.3426610e-02	   3.9283026e-01	
   6.3855000e+01	   9.5485466e-02	   3.9598780e-01	
   6.3910000e+01	   1.0818977e-01	   3.9859741e-01	
   6.3965000e+01	   1.2116626e-01	   4.0076333e-01	
   6.4020000e+01	   1.3402414e-01	   4.0260285e-01	
   6.4075000e+01	   1.4638015e-01	   4.0423571e-01	
   6.4130000e+01	   1.5788143e-01	   4.0577322e-01	
   6.4185000e+01	   1.6822484e-01	   4.0730784e-01	
   6.4240000e+01	   1.7717264e-01	   4.0890470e-01	
   6.4295000e+01	   1.8456377e-01	   4.1059726e-01	
   6.4350000e+01	   1.9031785e-01	   4.1238820e-01	
   6.4405000e+01	   1.9443028e-01	   4.1425499e-01	
   6.4460000e+01	   1.9695975e-01	   4.1615808e-01	
   6.4515000e+01	   1.9801239e-01	   4.1804970e-01	
   6.4570000e+01	   1.9772596e-01	   4.1988147e-01	
   6.4625000e+01	   1.9625537e-01	   4.2161013e-01	
   6.4680000e+01	   1.9375934e-01	   4.2320104e-01	
   6.4735000e+01	   1.9039000e-01	   4.2462939e-01	
   6.4790000e+01	   1.8628694e-01	   4.2587891e-01	
   6.4845000e+01	   1.8157564e-01	   4.2693792e-01	
   6.4900000e+01	   1.7636903e-01	   4.2779316e-01	
   6.4955000e+01	   1.7077059e-01	   4.2842275e-01	
   6.5010000e+01	   1.6487748e-01	   4.2879044e-01	
   6.5065000e+01	   1.5878302e-01	   4.2884357e-01	
   6.5120000e+01	   1.5257875e-01	   4.2851624e-01	
   6.5175000e+01	   1.4635664e-01	   4.2773760e-01	
   6.5230000e+01	   1.4021147e-01	   4.2644355e-01	
   6.5285000e+01	   1.3424242e-01	   4.2458864e-01	
   6.5340000e+01	   1.2855228e-01	   4.2215533e-01	
   6.5395000e+01	   1.2324328e-01	   4.1915908e-01	
   6.5450000e+01	   1.1841058e-01	   4.1564848e-01	
   6.5505000e+01	   1.1413673e-01	   4.1170067e-01	
   6.5560000e+01	   1.1048869e-01	   4.0741225e-01	
   6.5615000e+01	   1.0751760e-01	   4.0288718e-01	
   6.5670000e+01	   1.0526155e-01	   3.9822410e-01	
   6.5725000e+01	   1.0375198e-01	   3.9350464e-01	
   6.5780000e+01	   1.0302005e-01	   3.8878366e-01	
   6.5835000e+01	   1.0309946e-01	   3.8408288e-01	
   6.5890000e+01	   1.0402604e-01	   3.7939037e-01	
   6.5945000e+01	   1.0583623e-01	   3.7466682e-01	
   6.6000000e+01	   1.0856454e-01	   3.6985700e-01	
   6.6055000e+01	   1.1223891e-01	   3.6490305e-01	
   6.6110000e+01	   1.1687415e-01	   3.5975702e-01	
   6.6165000e+01	   1.2246441e-01	   3.5439085e-01	
   6.6220000e+01	   1.2897465e-01	   3.4880209e-01	
   6.6275000e+01	   1.3633194e-01	   3.4301486e-01	
   6.6330000e+01	   1.4441853e-01	   3.3707644e-01	
   6.6385000e+01	   1.5306971e-01	   3.3105033e-01	
   6.6440000e+01	   1.6207875e-01	   3.2500672e-01	
   6.6495000e+01	   1.7120971e-01	   3.1901144e-01	
   6.6550000e+01	   1.8021547e-01	   3.1311574e-01	
   6.6605000e+01	   1.8885648e-01	   3.0734776e-01	
   6.6660000e+01	   1.9691599e-01	   3.0170568e-01	
   6.6715000e+01	   2.0421059e-01	   2.9615250e-01	
   6.6770000e+01	   2.1059730e-01	   2.9061386e-01	
   6.6825000e+01	   2.1597966e-01	   2.8498089e-01	
   6.6880000e+01	   2.2031321e-01	   2.7911933e-01	
   6.6935000e+01	   2.2360944e-01	   2.7288433e-01	
   6.6990000e+01	   2.2593653e-01	   2.6613825e-01	
   6.7045000e+01	   2.2741625e-01	   2.5876766e-01	
   6.7100000e+01	   2.2821637e-01	   2.5069620e-01	
   6.7155000e+01	   2.2853846e-01	   2.4189144e-01	
   6.7210000e+01	   2.2860178e-01	   2.3236667e-01	
   6.7265000e+01	   2.2862625e-01	   2.2217866e-01	
   6.7320000e+01	   2.2881731e-01	   2.1142233e-01	
   6.7375000e+01	   2.2935450e-01	   2.0022198e-01	
   6.7430000e+01	   2.3038395e-01	   1.8871964e-01	
   6.7485000e+01	   2.3201405e-01	   1.7706138e-01	
   6.7540000e+01	   2.3431278e-01	   1.6538311e-01	
   6.7595000e+01	   2.3730585e-01	   1.5379737e-01	
   6.7650000e+01	   2.4097678e-01	   1.4238353e-01	
   6.7705000e+01	   2.4527062e-01	   1.3118317e-01	
   6.7760000e+01	   2.5010211e-01	   1.2020107e-01	
   6.7815000e+01	   2.5536637e-01	   1.0941144e-01	
   6.7870000e+01	   2.6094949e-01	   9.8768618e-02	
   6.7925000e+01	   2.6673691e-01	   8.8220191e-02	
   6.7980000e+01	   2.7261833e-01	   7.7719464e-02	
   6.8035000e+01	   2.7848930e-01	   6.7235282e-02	
   6.8090000e+01	   2.8425087e-01	   5.6758542e-02	
   6.8145000e+01	   2.8980938e-01	   4.6305167e-02	
   6.8200000e+01	   2.9507623e-01	   3.5914680e-02	
   6.8255000e+01	   2.9996551e-01	   2.5643728e-02	
   6.8310000e+01	   3.0439004e-01	   1.5555657e-02	
   6.8365000e+01	   3.0825966e-01	   5.7090472e-03	
   6.8420000e+01	   3.1148549e-01	  -3.8519897e-03	
   6.8475000e+01	   3.1398898e-01	  -1.3104224e-02	
   6.8530000e+01	   3.1571229e-01	  -2.2047811e-02	
   6.8585000e+01	   3.1662660e-01	  -3.0704227e-02	
   6.8640000e+01	   3.1673626e-01	  -3.9109403e-02	
   6.8695000e+01	   3.1607816e-01	  -4.7303350e-02	
   6.8750000e+01	   3.1471673e-01	  -5.5319316e-02	
   6.8805000e+01	   3.1273722e-01	  -6.3175830e-02	
   6.8860000e+01	   3.1023871e-01	  -7.0873557e-02	
   6.8915000e+01	   3.0732611e-01	  -7.8396552e-02	
   6.8970000e+01	   3.0410016e-01	  -8.5716172e-02	
   6.9025000e+01	   3.0064767e-01	  -9.2796439e-02	
   6.9080000e+01	   2.9703410e-01	  -9.9600614e-02	
   6.9135000e+01	   2.9329967e-01	  -1.0609887e-01	
   6.9190000e+01	   2.8946070e-01	  -1.1227612e-01	
   6.9245000e+01	   2.8551667e-01	  -1.1813850e-01	
   6.9300000e+01	   2.8146013e-01	  -1.2371718e-01	
   6.9355000e+01	   2.7728498e-01	  -1.2906861e-01	
   6.9410000e+01	   2.7299160e-01	  -1.3427090e-01	
   6.9465000e+01	   2.6858876e-01	  -1.3941574e-01	
   6.9520000e+01	   2.6409160e-01	  -1.4459657e-01	
   6.9575000e+01	   2.5951438e-01	  -1.4989491e-01	
   6.9630000e+01	   2.5485913e-01	  -1.5536815e-01	
   6.9685000e+01	   2.5010375e-01	  -1.6104065e-01	
   6.9740000e+01	   2.4519411e-01	  -1.6689947e-01	
   6.9795000e+01	   2.4004167e-01	  -1.7289539e-01	
   6.9850000e+01	   2.3452648e-01	  -1.7894977e-01	
   6.9905000e+01	   2.2850594e-01	  -1.8496560e-01	
   6.9960000e+01	   2.2182947e-01	  -1.9084018e-01	
   7.0015000e+01	   2.1435760e-01	  -1.9647780e-01	
   7.0070000e+01	   2.0598179e-01	  -2.0180224e-01	
   7.0125000e+01	   1.9664195e-01	  -2.0676831e-01	
   7.0180000e+01	   1.8633986e-01	  -2.1137073e-01	
   7.0235000e+01	   1.7514756e-01	  -2.1564831e-01	
   7.0290000e+01	   1.6320983e-01	  -2.1968149e-01	
   7.0345000e+01	   1.5073995e-01	  -2.2358245e-01	
   7.0400000e+01	   1.3800994e-01	  -2.2747879e-01	
   7.0455000e+01	   1.2533641e-01	  -2.3149474e-01	
   7.0510000e+01	   1.1306179e-01	  -2.3573473e-01	
   7.0565000e+01	   1.0153112e-01	  -2.4027204e-01	
   7.0620000e+01	   9.1067541e-02	  -2.4514249e-01	
   7.0675000e+01	   8.1950337e-02	  -2.5034281e-01	
   7.0730000e+01	   7.4397380e-02	  -2.5583329e-01	
   7.0785000e+01	   6.8552673e-02	  -2.6154483e-01	
   7.0840000e+01	   6.4480225e-02	  -2.6738923e-01	
   7.0895000e+01	   6.2164090e-02	  -2.7327246e-01	
   7.0950000e+01	   6.1511981e-02	  -2.7910949e-01	
   7.1005000e+01	   6.2360749e-02	  -2.8483853e-01	
   7.1060000e+01	   6.4485499e-02	  -2.9043154e-01	
   7.1115000e+01	   6.7614066e-02	  -2.9589991e-01	
   7.1170000e+01	   7.1445382e-02	  -3.0129486e-01	
   7.1225000e+01	   7.5669166e-02	  -3.0670223e-01	
   7.1280000e+01	   7.9985278e-02	  -3.1223062e-01	
   7.1335000e+01	   8.4120466e-02	  -3.1799459e-01	
   7.1390000e+01	   8.7839836e-02	  -3.2409663e-01	
   7.1445000e+01	   9.0952806e-02	  -3.3061125e-01	
   7.1500000e+01	   9.3315479e-02	  -3.3757353e-01	
   7.1555000e+01	   9.4830788e-02	  -3.4497319e-01	
   7.1610000e+01	   9.5446279e-02	  -3.5275467e-01	
   7.1665000e+01	   9.5149726e-02	  -3.6082226e-01	
   7.1720000e+01	   9.3963683e-02	  -3.6904875e-01	
   7.1775000e+01	   9.1939737e-02	  -3.7728683e-01	
   7.1830000e+01	   8.9152780e-02	  -3.8538274e-01	
   7.1885000e+01	   8.5696302e-02	  -3.9319142e-01	
   7.1940000e+01	   8.1679677e-02	  -4.0059070e-01	
   7.1995000e+01	   7.7227172e-02	  -4.0749127e-01	
   7.2050000e+01	   7.2477650e-02	  -4.1384026e-01	
   7.2105000e+01	   6.7583926e-02	  -4.1961776e-01	
   7.2160000e+01	   6.2711087e-02	  -4.2482820e-01	
   7.2215000e+01	   5.8032866e-02	  -4.2948883e-01	
   7.2270000e+01	   5.3724331e-02	  -4.3361852e-01	
   7.2325000e+01	   4.9949830e-02	  -4.3722961e-01	
   7.2380000e+01	   4.6848007e-02	  -4.4032371e-01	
   7.2435000e+01	   4.4517133e-02	  -4.4289115e-01	
   7.2490000e+01	   4.3003262e-02	  -4.4491350e-01	
   7.2545000e+01	   4.2293751e-02	  -4.4636868e-01	
   7.2600000e+01	   4.2318760e-02	  -4.4723743e-01	
   7.2655000e+01	   4.2961316e-02	  -4.4750917e-01	
   7.2710000e+01	   4.4073153e-02	  -4.4718658e-01	
   7.2765000e+01	   4.5491905e-02	  -4.4628836e-01	
   7.2820000e+01	   4.7056068e-02	  -4.4484922e-01	
   7.2875000e+01	   4.8616188e-02	  -4.4291610e-01	
   7.2930000e+01	   5.0041711e-02	  -4.4054031e-01	
   7.2985000e+01	   5.1222993e-02	  -4.3776731e-01	
   7.3040000e+01	   5.2068889e-02	  -4.3462635e-01	
   7.3095000e+01	   5.2501846e-02	  -4.3112177e-01	
   7.3150000e+01	   5.2452367e-02	  -4.2722746e-01	
   7.3205000e+01	   5.1854209e-02	  -4.2288605e-01	
   7.3260000e+01	   5.0642506e-02	  -4.1801422e-01	
   7.3315000e+01	   4.8756942e-02	  -4.1251342e-01	
   7.3370000e+01	   4.6149666e-02	  -4.0628376e-01	
   7.3425000e+01	   4.2795398e-02	  -3.9923880e-01	
   7.3480000e+01	   3.8701765e-02	  -3.9131905e-01	
   7.3535000e+01	   3.3918827e-02	  -3.8250233e-01	
   7.3590000e+01	   2.8545496e-02	  -3.7281000e-01	
   7.3645000e+01	   2.2729818e-02	  -3.6230809e-01	
   7.3700000e+01	   1.6662412e-02	  -3.5110226e-01	
   7.3755000e+01	   1.0564368e-02	  -3.3932567e-01	
   7.3810000e+01	   4.6704952e-03	  -3.2712219e-01	
   7.3865000e+01	  -7.9084226e-04	  -3.1462935e-01	
   7.3920000e+01	  -5.6177673e-03	  -3.0196442e-01	
   7.3975000e+01	  -9.6506089e-03	  -2.8921475e-01	
   7.4030000e+01	  -1.2781594e-02	  -2.7643349e-01	
   7.4085000e+01	  -1.4959395e-02	  -2.6364102e-01	
   7.4140000e+01	  -1.6189218e-02	  -2.5083150e-01	
   7.4195000e+01	  -1.6527729e-02	  -2.3798274e-01	
   7.4250000e+01	  -1.6072370e-02	  -2.2506801e-01	
   7.4305000e+01	  -1.4946904e-02	  -2.1206881e-01	
   7.4360000e+01	  -1.3287030e-02	  -1.9898718e-01	
   7.4415000e+01	  -1.1229204e-02	  -1.8585560e-01	
   7.4470000e+01	  -8.9026908e-03	  -1.7274212e-01	
   7.4525000e+01	  -6.4227180e-03	  -1.5974907e-01	
   7.4580000e+01	  -3.8830776e-03	  -1.4700445e-01	
   7.4635000e+01	  -1.3486570e-03	  -1.3464694e-01	
   7.4690000e+01	   1.1501957e-03	  -1.2280768e-01	
   7.4745000e+01	   3.6196592e-03	  -1.1159344e-01	
   7.4800000e+01	   6.0998834e-03	  -1.0107467e-01	
   7.4855000e+01	   8.6583223e-03	  -9.1279713e-02	
   7.4910000e+01	   1.1380573e-02	  -8.2194905e-02	
   7.4965000e+01	   1.4359919e-02	  -7.3769633e-02	
   7.5020000e+01	   1.7685620e-02	  -6.5925643e-02	
   7.5075000e+01	   2.1430508e-02	  -5.8569240e-02	
   7.5130000e+01	   2.5639584e-02	  -5.1604561e-02	
   7.5185000e+01	   3.0321067e-02	  -4.4946292e-02	
   7.5240000e+01	   3.5441035e-02	  -3.8530703e-02	
   7.5295000e+01	   4.0923230e-02	  -3.2324127e-02	
   7.5350000e+01	   4.6654917e-02	  -2.6327901e-02	
   7.5405000e+01	   5.2497723e-02	  -2.0578641e-02	
   7.5460000e+01	   5.8301106e-02	  -1.5142879e-02	
   7.5515000e+01	   6.3915650e-02	  -1.0106098e-02	
   7.5570000e+01	   6.9203465e-02	  -5.5583671e-03	
   7.5625000e+01	   7.4044635e-02	  -1.5803119e-03	
   7.5680000e+01	   7.8340645e-02	   1.7675201e-03	
   7.5735000e+01	   8.2016170e-02	   4.4509526e-03	
   7.5790000e+01	   8.5019818e-02	   6.4648616e-03	
   7.5845000e+01	   8.7323483e-02	   7.8329992e-03	
   7.5900000e+01	   8.8919838e-02	   8.6050161e-03	
   7.5955000e+01	   8.9819283e-02	   8.8508875e-03	
   7.6010000e+01	   9.0048911e-02	   8.6535882e-03	
   7.6065000e+01	   8.9653895e-02	   8.1007579e-03	
   7.6120000e+01	   8.8699262e-02	   7.2762122e-03	
   7.6175000e+01	   8.7270440e-02	   6.2533504e-03	
   7.6230000e+01	   8.5471532e-02	   5.0927990e-03	
   7.6285000e+01	   8.3419822e-02	   3.8447560e-03	
   7.6340000e+01	   8.1235980e-02	   2.5546213e-03	
   7.6395000e+01	   7.9032126e-02	   1.2702926e-03	
   7.6450000e+01	   7.6901573e-02	   4.9791131e-05	
   7.6505000e+01	   7.4913133e-02	  -1.0324965e-03	
   7.6560000e+01	   7.3109553e-02	  -1.8830983e-03	
   7.6615000e+01	   7.1507318e-02	  -2.3919250e-03	
   7.6670000e+01	   7.0096416e-02	  -2.4402212e-03	
   7.6725000e+01	   6.8841413e-02	  -1.9125895e-03	
   7.6780000e+01	   6.7685487e-02	  -7.1048224e-04	
   7.6835000e+01	   6.6557641e-02	   1.2353731e-03	
   7.6890000e+01	   6.5382848e-02	   3.9552606e-03	
   7.6945000e+01	   6.4094601e-02	   7.4345405e-03	
   7.7000000e+01	   6.2647206e-02	   1.1612410e-02	
   7.7055000e+01	   6.1023283e-02	   1.6386293e-02	
   7.7110000e+01	   5.9234097e-02	   2.1622739e-02	
   7.7165000e+01	   5.7314604e-02	   2.7174400e-02	
   7.7220000e+01	   5.5316540e-02	   3.2900143e-02	
   7.7275000e+01	   5.3301572e-02	   3.8683867e-02	
   7.7330000e+01	   5.1335720e-02	   4.4448281e-02	
   7.7385000e+01	   4.9485455e-02	   5.0161357e-02	
   7.7440000e+01	   4.7814299e-02	   5.5834710e-02	
   7.7495000e+01	   4.6378811e-02	   6.1515288e-02	
   7.7550000e+01	   4.5224703e-02	   6.7273345e-02	
   7.7605000e+01	   4.4384012e-02	   7.3189099e-02	
   7.7660000e+01	   4.3872973e-02	   7.9338911e-02	
   7.7715000e+01	   4.3690714e-02	   8.5781564e-02	
   7.7770000e+01	   4.3820279e-02	   9.2546314e-02	
   7.7825000e+01	   4.4232675e-02	   9.9624913e-02	
   7.7880000e+01	   4.4892389e-02	   1.0696934e-01	
   7.7935000e+01	   4.5762089e-02	   1.1449665e-01	
   7.7990000e+01	   4.6805440e-02	   1.2210135e-01	
   7.8045000e+01	   4.7987678e-02	   1.2967311e-01	
   7.8100000e+01	   4.9273374e-02	   1.3711418e-01	
   7.8155000e+01	   5.0621246e-02	   1.4435151e-01	
   7.8210000e+01	   5.1977792e-02	   1.5134201e-01	
   7.8265000e+01	   5.3272941e-02	   1.5807267e-01	
   7.8320000e+01	   5.4419837e-02	   1.6455694e-01	
   7.8375000e+01	   5.5318489e-02	   1.7082832e-01	
   7.8430000e+01	   5.5861835e-02	   1.7693151e-01	
   7.8485000e+01	   5.5942885e-02	   1.8291273e-01	
   7.8540000e+01	   5.5461909e-02	   1.8880986e-01	
   7.8595000e+01	   5.4333145e-02	   1.9464233e-01	
   7.8650000e+01	   5.2491176e-02	   2.0040187e-01	
   7.8705000e+01	   4.9897021e-02	   2.0604622e-01	
   7.8760000e+01	   4.6543520e-02	   2.1149780e-01	
   7.8815000e+01	   4.2459440e-02	   2.1664844e-01	
   7.8870000e+01	   3.7710851e-02	   2.2137008e-01	
   7.8925000e+01	   3.2397484e-02	   2.2553011e-01	
   7.8980000e+01	   2.6643212e-02	   2.2900784e-01	
   7.9035000e+01	   2.0582454e-02	   2.3170851e-01	
   7.9090000e+01	   1.4345451e-02	   2.3357281e-01	
   7.9145000e+01	   8.0446942e-03	   2.3458195e-01	
   7.9200000e+01	   1.7636292e-03	   2.3475815e-01	
   7.9255000e+01	  -4.4517937e-03	   2.3416039e-01	
   7.9310000e+01	  -1.0597727e-02	   2.3287610e-01	
   7.9365000e+01	  -1.6711537e-02	   2.3101073e-01	
   7.9420000e+01	  -2.2864637e-02	   2.2867706e-01	
   7.9475000e+01	  -2.9150640e-02	   2.2598526e-01	
   7.9530000e+01	  -3.5671433e-02	   2.2303475e-01	
   7.9585000e+01	  -4.2522704e-02	   2.1990957e-01	
   7.9640000e+01	  -4.9780132e-02	   2.1667838e-01	
   7.9695000e+01	  -5.7488904e-02	   2.1339931e-01	
   7.9750000e+01	  -6.5660275e-02	   2.1012862e-01	
   7.9805000e+01	  -7.4276785e-02	   2.0693046e-01	
   7.9860000e+01	  -8.3303502e-02	   2.0388485e-01	
   7.9915000e+01	  -9.2700261e-02	   2.0109196e-01	
   7.9970000e+01	  -1.0243047e-01	   1.9867201e-01	
   8.0025000e+01	  -1.1246331e-01	   1.9676128e-01	
   8.0080000e+01	  -1.2276845e-01	   1.9550462e-01	
   8.0135000e+01	  -1.3330627e-01	   1.9504510e-01	
   8.0190000e+01	  -1.4401845e-01	   1.9551159e-01	
   8.0245000e+01	  -1.5482257e-01	   1.9700658e-01	
   8.0300000e+01	  -1.6561187e-01	   1.9959563e-01	
   8.0355000e+01	  -1.7625934e-01	   2.0329913e-01	
   8.0410000e+01	  -1.8662477e-01	   2.0808722e-01	
   8.0465000e+01	  -1.9656335e-01	   2.1388012e-01	
   8.0520000e+01	  -2.0593500e-01	   2.2055602e-01	
   8.0575000e+01	  -2.1461427e-01	   2.2796523e-01	
   8.0630000e+01	  -2.2249911e-01	   2.3594703e-01	
   8.0685000e+01	  -2.2951585e-01	   2.4434598e-01	
   8.0740000e+01	  -2.3561940e-01	   2.5302462e-01	
   8.0795000e+01	  -2.4079199e-01	   2.6187055e-01	
   8.0850000e+01	  -2.4504331e-01	   2.7079675e-01	
   8.0905000e+01	  -2.4841139e-01	   2.7973671e-01	
   8.0960000e+01	  -2.5096133e-01	   2.8863669e-01	
   8.1015000e+01	  -2.5278089e-01	   2.9744714e-01	
   8.1070000e+01	  -2.5397455e-01	   3.0611425e-01	
   8.1125000e+01	  -2.5465749e-01	   3.1457273e-01	
   8.1180000e+01	  -2.5494984e-01	   3.2274145e-01	
   8.1235000e+01	  -2.5497125e-01	   3.3052392e-01	
   8.1290000e+01	  -2.5483536e-01	   3.3781463e-01	
   8.1345000e+01	  -2.5464416e-01	   3.4451093e-01	
   8.1400000e+01	  -2.5448271e-01	   3.5052773e-01	
   8.1455000e+01	  -2.5441626e-01	   3.5581094e-01	
   8.1510000e+01	  -2.5449039e-01	   3.6034657e-01	
   8.1565000e+01	  -2.5473225e-01	   3.6416500e-01	
   8.1620000e+01	  -2.5515095e-01	   3.6734112e-01	
   8.1675000e+01	  -2.5573692e-01	   3.6999044e-01	
   8.1730000e+01	  -2.5645972e-01	   3.7226049e-01	
   8.1785000e+01	  -2.5726296e-01	   3.7431756e-01	
   8.1840000e+01	  -2.5805756e-01	   3.7632974e-01	
   8.1895000e+01	  -2.5871850e-01	   3.7844845e-01	
   8.1950000e+01	  -2.5908962e-01	   3.8079161e-01	
   8.2005000e+01	  -2.5899609e-01	   3.8343195e-01	
   8.2060000e+01	  -2.5825989e-01	   3.8639226e-01	
   8.2115000e+01	  -2.5671514e-01	   3.8964825e-01	
   8.2170000e+01	  -2.5422239e-01	   3.9313798e-01	
   8.2225000e+01	  -2.5068183e-01	   3.9677589e-01	
   8.2280000e+01	  -2.4604431e-01	   4.0046816e-01	
   8.2335000e+01	  -2.4031872e-01	   4.0412591e-01	
   8.2390000e+01	  -2.3357524e-01	   4.0767395e-01	
   8.2445000e+01	  -2.2594455e-01	   4.1105487e-01	
   8.2500000e+01	  -2.1761356e-01	   4.1422916e-01	
   8.2555000e+01	  -2.0881729e-01	   4.1717268e-01	
   8.2610000e+01	  -1.9982711e-01	   4.1987221e-01	
   8.2665000e+01	  -1.9093593e-01	   4.2232034e-01	
   8.2720000e+01	  -1.8244142e-01	   4.2451015e-01	
   8.2775000e+01	  -1.7462879e-01	   4.2642968e-01	
   8.2830000e+01	  -1.6775480e-01	   4.2805670e-01	
   8.2885000e+01	  -1.6203438e-01	   4.2935545e-01	
   8.2940000e+01	  -1.5763031e-01	   4.3027768e-01	
   8.2995000e+01	  -1.5464724e-01	   4.3076886e-01	
   8.3050000e+01	  -1.5313158e-01	   4.3077799e-01	
   8.3105000e+01	  -1.5307711e-01	   4.3026807e-01	
   8.3160000e+01	  -1.5443279e-01	   4.2922467e-01	
   8.3215000e+01	  -1.5710868e-01	   4.2766125e-01	
   8.3270000e+01	  -1.6097899e-01	   4.2562063e-01	
   8.3325000e+01	  -1.6588390e-01	   4.2317323e-01	
   8.3380000e+01	  -1.7163190e-01	   4.2041205e-01	
   8.3435000e+01	  -1.7800344e-01	   4.1744473e-01	
   8.3490000e+01	  -1.8475581e-01	   4.1438273e-01	
   8.3545000e+01	  -1.9162995e-01	   4.1132887e-01	
   8.3600000e+01	  -1.9836027e-01	   4.0836532e-01	
   8.3655000e+01	  -2.0468645e-01	   4.0554430e-01	
   8.3710000e+01	  -2.1036409e-01	   4.0288332e-01	
   8.3765000e+01	  -2.1517240e-01	   4.0036646e-01	
   8.3820000e+01	  -2.1891975e-01	   3.9795221e-01	
   8.3875000e+01	  -2.2144794e-01	   3.9558594e-01	
   8.3930000e+01	  -2.2263652e-01	   3.9321277e-01	
   8.3985000e+01	  -2.2240747e-01	   3.9078758e-01	
   8.4040000e+01	  -2.2072952e-01	   3.8828136e-01	
   8.4095000e+01	  -2.1762030e-01	   3.8568378e-01	
   8.4150000e+01	  -2.1314668e-01	   3.8300191e-01	
   8.4205000e+01	  -2.0742391e-01	   3.8025524e-01	
   8.4260000e+01	  -2.0061282e-01	   3.7746793e-01	
   8.4315000e+01	  -1.9291325e-01	   3.7465973e-01	
   8.4370000e+01	  -1.8455344e-01	   3.7183716e-01	
   8.4425000e+01	  -1.7577651e-01	   3.6898686e-01	
   8.4480000e+01	  -1.6682609e-01	   3.6607217e-01	
   8.4535000e+01	  -1.5793271e-01	   3.6303405e-01	
   8.4590000e+01	  -1.4930269e-01	   3.5979674e-01	
   8.4645000e+01	  -1.4111087e-01	   3.5627739e-01	
   8.4700000e+01	  -1.3349797e-01	   3.5239810e-01	
   8.4755000e+01	  -1.2657233e-01	   3.4809762e-01	
   8.4810000e+01	  -1.2041489e-01	   3.4334051e-01	
   8.4865000e+01	  -1.1508576e-01	   3.3812171e-01	
   8.4920000e+01	  -1.1063037e-01	   3.3246620e-01	
   8.4975000e+01	  -1.0708336e-01	   3.2642474e-01	
   8.5030000e+01	  -1.0447017e-01	   3.2006666e-01	
   8.5085000e+01	  -1.0280758e-01	   3.1347059e-01	
   8.5140000e+01	  -1.0210465e-01	   3.0671398e-01	
   8.5195000e+01	  -1.0236378e-01	   2.9986235e-01	
   8.5250000e+01	  -1.0357940e-01	   2.9295897e-01	
   8.5305000e+01	  -1.0573279e-01	   2.8601590e-01	
   8.5360000e+01	  -1.0878471e-01	   2.7900862e-01	
   8.5415000e+01	  -1.1266963e-01	   2.7187598e-01	
   8.5470000e+01	  -1.1729487e-01	   2.6452703e-01	
   8.5525000e+01	  -1.2254495e-01	   2.5685380e-01	
   8.5580000e+01	  -1.2828873e-01	   2.4874850e-01	
   8.5635000e+01	  -1.3438767e-01	   2.4012183e-01	
   8.5690000e+01	  -1.4070522e-01	   2.3091915e-01	
   8.5745000e+01	  -1.4711705e-01	   2.2113165e-01	
   8.5800000e+01	  -1.5351990e-01	   2.1080067e-01	
   8.5855000e+01	  -1.5983577e-01	   2.0001503e-01	
   8.5910000e+01	  -1.6601149e-01	   1.8890223e-01	
   8.5965000e+01	  -1.7201510e-01	   1.7761534e-01	
   8.6020000e+01	  -1.7782968e-01	   1.6631762e-01	
   8.6075000e+01	  -1.8344402e-01	   1.5516684e-01	
   8.6130000e+01	  -1.8884180e-01	   1.4430066e-01	
   8.6185000e+01	  -1.9399228e-01	   1.3382333e-01	
   8.6240000e+01	  -1.9884355e-01	   1.2379518e-01	
   8.6295000e+01	  -2.0331749e-01	   1.1422674e-01	
   8.6350000e+01	  -2.0730718e-01	   1.0507904e-01	
   8.6405000e+01	  -2.1067906e-01	   9.6270593e-02	
   8.6460000e+01	  -2.1328151e-01	   8.7690311e-02	
   8.6515000e+01	  -2.1495895e-01	   7.9214068e-02	
   8.6570000e+01	  -2.1556856e-01	   7.0721667e-02	
   8.6625000e+01	  -2.1499610e-01	   6.2111548e-02	
   8.6680000e+01	  -2.1316798e-01	   5.3311788e-02	
   8.6735000e+01	  -2.1005888e-01	   4.4286373e-02	
   8.6790000e+01	  -2.0569618e-01	   3.5035654e-02	
   8.6845000e+01	  -2.0016128e-01	   2.5590675e-02	
   8.6900000e+01	  -1.9358632e-01	   1.6002573e-02	
   8.6955000e+01	  -1.8614587e-01	   6.3291604e-03	
   8.7010000e+01	  -1.7804681e-01	  -3.3790163e-03	
   8.7065000e+01	  -1.6951989e-01	  -1.3090709e-02	
   8.7120000e+01	  -1.6081351e-01	  -2.2801596e-02	
   8.7175000e+01	  -1.5218689e-01	  -3.2535534e-02	
   8.7230000e+01	  -1.4390118e-01	  -4.2338797e-02	
   8.7285000e+01	  -1.3620932e-01	  -5.2268566e-02	
   8.7340000e+01	  -1.2934669e-01	  -6.2378480e-02	
   8.7395000e+01	  -1.2352347e-01	  -7.2704664e-02	
   8.7450000e+01	  -1.1891940e-01	  -8.3255146e-02	
   8.7505000e+01	  -1.1568119e-01	  -9.4004417e-02	
   8.7560000e+01	  -1.1392165e-01	  -1.0489339e-01	
   8.7615000e+01	  -1.1371894e-01	  -1.1583406e-01	
   8.7670000e+01	  -1.1511461e-01	  -1.2671829e-01	
   8.7725000e+01	  -1.1811075e-01	  -1.3742993e-01	
   8.7780000e+01	  -1.2266835e-01	  -1.4785875e-01	
   8.7835000e+01	  -1.2870837e-01	  -1.5791365e-01	
   8.7890000e+01	  -1.3611588e-01	  -1.6753334e-01	
   8.7945000e+01	  -1.4474590e-01	  -1.7669395e-01	
   8.8000000e+01	  -1.5442891e-01	  -1.8541289e-01	
   8.8055000e+01	  -1.6497415e-01	  -1.9374855e-01	
   8.8110000e+01	  -1.7617115e-01	  -2.0179454e-01	
   8.8165000e+01	  -1.8779179e-01	  -2.0966817e-01	
   8.8220000e+01	  -1.9959423e-01	  -2.1749356e-01	
   8.8275000e+01	  -2.1132789e-01	  -2.2538211e-01	
   8.8330000e+01	  -2.2273828e-01	  -2.3341425e-01	
   8.8385000e+01	  -2.3357203e-01	  -2.4162662e-01	
   8.8440000e+01	  -2.4358287e-01	  -2.5000695e-01	
   8.8495000e+01	  -2.5253848e-01	  -2.5849658e-01	
   8.8550000e+01	  -2.6022693e-01	  -2.6699904e-01	
   8.8605000e+01	  -2.6646156e-01	  -2.7539313e-01	
   8.8660000e+01	  -2.7108438e-01	  -2.8354931e-01	
   8.8715000e+01	  -2.7396909e-01	  -2.9134787e-01	
   8.8770000e+01	  -2.7502564e-01	  -2.9869685e-01	
   8.8825000e+01	  -2.7420708e-01	  -3.0554736e-01	
   8.8880000e+01	  -2.7151746e-01	  -3.1190446e-01	
   8.8935000e+01	  -2.6701707e-01	  -3.1783172e-01	
   8.8990000e+01	  -2.6082211e-01	  -3.2344850e-01	
   8.9045000e+01	  -2.5309818e-01	  -3.2891976e-01	
   8.9100000e+01	  -2.4404932e-01	  -3.3443858e-01	
   8.9155000e+01	  -2.3390467e-01	  -3.4020388e-01	
   8.9210000e+01	  -2.2290525e-01	  -3.4639733e-01	
   8.9265000e+01	  -2.1129350e-01	  -3.5316370e-01	
   8.9320000e+01	  -1.9930658e-01	  -3.6059749e-01	
   8.9375000e+01	  -1.8717231e-01	  -3.6873682e-01	
   8.9430000e+01	  -1.7510628e-01	  -3.7756422e-01	
   8.9485000e+01	  -1.6331022e-01	  -3.8701269e-01	
   8.9540000e+01	  -1.5197221e-01	  -3.9697578e-01	
   8.9595000e+01	  -1.4126723e-01	  -4.0732081e-01	
   8.9650000e+01	  -1.3135518e-01	  -4.1790443e-01	
   8.9705000e+01	  -1.2237592e-01	  -4.2858941e-01	
   8.9760000e+01	  -1.1444268e-01	  -4.3926022e-01	
   8.9815000e+01	  -1.0763507e-01	  -4.4983417e-01	
   8.9870000e+01	  -1.0199234e-01	  -4.6026580e-01	
   8.9925000e+01	  -9.7508271e-02	  -4.7054402e-01	
   8.9980000e+01	  -9.4130693e-02	  -4.8068329e-01	
   9.0035000e+01	  -9.1766133e-02	  -4.9071047e-01	
   9.0090000e+01	  -9.0286638e-02	  -5.0065005e-01	
   9.0145000e+01	  -8.9536928e-02	  -5.1051078e-01	
   9.0200000e+01	  -8.9343668e-02	  -5.2027654e-01	
   9.0255000e+01	  -8.9528324e-02	  -5.2990257e-01	
   9.0310000e+01	  -8.9921480e-02	  -5.3931662e-01	
   9.0365000e+01	  -9.0374923e-02	  -5.4842469e-01	
   9.0420000e+01	  -9.0769039e-02	  -5.5712033e-01	
   9.0475000e+01	  -9.1014482e-02	  -5.6529588e-01	
   9.0530000e+01	  -9.1048176e-02	  -5.7285322e-01	
   9.0585000e+01	  -9.0825689e-02	  -5.7971295e-01	
   9.0640000e+01	  -9.0313564e-02	  -5.8582201e-01	
   9.0695000e+01	  -8.9484199e-02	  -5.9115911e-01	
   9.0750000e+01	  -8.8313698e-02	  -5.9573659e-01	
   9.0805000e+01	  -8.6782181e-02	  -5.9959728e-01	
   9.0860000e+01	  -8.4875834e-02	  -6.0280616e-01	
   9.0915000e+01	  -8.2589746e-02	  -6.0543830e-01	
   9.0970000e+01	  -7.9931006e-02	  -6.0756581e-01	
   9.1025000e+01	  -7.6921936e-02	  -6.0924676e-01	
   9.1080000e+01	  -7.3602666e-02	  -6.1051809e-01	
   9.1135000e+01	  -7.0031436e-02	  -6.1139248e-01	
   9.1190000e+01	  -6.6281769e-02	  -6.1185886e-01	
   9.1245000e+01	  -6.2437713e-02	  -6.1188660e-01	
   9.1300000e+01	  -5.8589837e-02	  -6.1143311e-01	
   9.1355000e+01	  -5.4833751e-02	  -6.1045442e-01	
   9.1410000e+01	  -5.1270725e-02	  -6.0891737e-01	
   9.1465000e+01	  -4.8008364e-02	  -6.0681220e-01	
   9.1520000e+01	  -4.5158787e-02	  -6.0416372e-01	
   9.1575000e+01	  -4.2832430e-02	  -6.0103809e-01	
   9.1630000e+01	  -4.1127942e-02	  -5.9754236e-01	
   9.1685000e+01	  -4.0121372e-02	  -5.9381540e-01	
   9.1740000e+01	  -3.9858296e-02	  -5.9001235e-01	
   9.1795000e+01	  -4.0350906e-02	  -5.8628602e-01	
   9.1850000e+01	  -4.1580217e-02	  -5.8276885e-01	
   9.1905000e+01	  -4.3502245e-02	  -5.7955827e-01	
   9.1960000e+01	  -4.6056801e-02	  -5.7670718e-01	
   9.2015000e+01	  -4.9177422e-02	  -5.7422053e-01	
   9.2070000e+01	  -5.2800879e-02	  -5.7205738e-01	
   9.2125000e+01	  -5.6875090e-02	  -5.7013869e-01	
   9.2180000e+01	  -6.1364713e-02	  -5.6835977e-01	
   9.2235000e+01	  -6.6252871e-02	  -5.6660538e-01	
   9.2290000e+01	  -7.1536863e-02	  -5.6476476e-01	
   9.2345000e+01	  -7.7217922e-02	  -5.6274497e-01	
   9.2400000e+01	  -8.3288452e-02	  -5.6048185e-01	
   9.2455000e+01	  -8.9720411e-02	  -5.5794706e-01	
   9.2510000e+01	  -9.6456018e-02	  -5.5514937e-01	
   9.2565000e+01	  -1.0340108e-01	  -5.5212907e-01	
   9.2620000e+01	  -1.1042184e-01	  -5.4894627e-01	
   9.2675000e+01	  -1.1734567e-01	  -5.4566591e-01	
   9.2730000e+01	  -1.2396584e-01	  -5.4234340e-01	
   9.2785000e+01	  -1.3005096e-01	  -5.3901379e-01	
   9.2840000e+01	  -1.3535923e-01	  -5.3568532e-01	
   9.2895000e+01	  -1.3965561e-01	  -5.3233737e-01	
   9.2950000e+01	  -1.4272949e-01	  -5.2892214e-01	
   9.3005000e+01	  -1.4441039e-01	  -5.2537015e-01	
   9.3060000e+01	  -1.4457982e-01	  -5.2159879e-01	
   9.3115000e+01	  -1.4317803e-01	  -5.1752306e-01	
   9.3170000e+01	  -1.4020616e-01	  -5.1306683e-01	
   9.3225000e+01	  -1.3572456e-01	  -5.0817378e-01	
   9.3280000e+01	  -1.2984671e-01	  -5.0281741e-01	
   9.3335000e+01	  -1.2272782e-01	  -4.9700883e-01	
   9.3390000e+01	  -1.1454912e-01	  -4.9080008e-01	
   9.3445000e+01	  -1.0550055e-01	  -4.8428148e-01	
   9.3500000e+01	  -9.5766092e-02	  -4.7757325e-01	
   9.3555000e+01	  -8.5514425e-02	  -4.7081245e-01	
   9.3610000e+01	  -7.4895749e-02	  -4.6413795e-01	
   9.3665000e+01	  -6.4044558e-02	  -4.5767608e-01	
   9.3720000e+01	  -5.3086872e-02	  -4.5152991e-01	
   9.3775000e+01	  -4.2148387e-02	  -4.4577305e-01	
   9.3830000e+01	  -3.1359885e-02	  -4.4044751e-01	
   9.3885000e+01	  -2.0859088e-02	  -4.3556464e-01	
   9.3940000e+01	  -1.0789831e-02	  -4.3110830e-01	
   9.3995000e+01	  -1.2987090e-03	  -4.2704036e-01	
   9.4050000e+01	   7.4709147e-03	  -4.2330884e-01	
   9.4105000e+01	   1.5386723e-02	  -4.1985846e-01	
   9.4160000e+01	   2.2335454e-02	  -4.1664137e-01	
   9.4215000e+01	   2.8229464e-02	  -4.1362482e-01	
   9.4270000e+01	   3.3010929e-02	  -4.1079291e-01	
   9.4325000e+01	   3.6653036e-02	  -4.0814158e-01	
   9.4380000e+01	   3.9157232e-02	  -4.0566903e-01	
   9.4435000e+01	   4.0546578e-02	  -4.0336510e-01	
   9.4490000e+01	   4.0857753e-02	  -4.0120273e-01	
   9.4545000e+01	   4.0135195e-02	  -3.9913329e-01	
   9.4600000e+01	   3.8428700e-02	  -3.9708666e-01	
   9.4655000e+01	   3.5793548e-02	  -3.9497630e-01	
   9.4710000e+01	   3.2292492e-02	  -3.9270710e-01	
   9.4765000e+01	   2.7999541e-02	  -3.9018500e-01	
   9.4820000e+01	   2.3004234e-02	  -3.8732754e-01	
   9.4875000e+01	   1.7414561e-02	  -3.8407470e-01	
   9.4930000e+01	   1.1358223e-02	  -3.8039789e-01	
   9.4985000e+01	   4.9822093e-03	  -3.7630511e-01	
   9.5040000e+01	  -1.5504700e-03	  -3.7184150e-01	
   9.5095000e+01	  -8.0670263e-03	  -3.6708450e-01	
   9.5150000e+01	  -1.4391496e-02	  -3.6213309e-01	
   9.5205000e+01	  -2.0349626e-02	  -3.5709220e-01	
   9.5260000e+01	  -2.5773453e-02	  -3.5205591e-01	
   9.5315000e+01	  -3.0508032e-02	  -3.4709377e-01	
   9.5370000e+01	  -3.4419613e-02	  -3.4224236e-01	
   9.5425000e+01	  -3.7402207e-02	  -3.3750255e-01	
   9.5480000e+01	  -3.9380588e-02	  -3.3284194e-01	
   9.5535000e+01	  -4.0310204e-02	  -3.2820176e-01	
   9.5590000e+01	  -4.0175335e-02	  -3.2350687e-01	
   9.5645000e+01	  -3.8986651e-02	  -3.1867819e-01	
   9.5700000e+01	  -3.6778731e-02	  -3.1364623e-01	
   9.5755000e+01	  -3.3607611e-02	  -3.0836393e-01	
   9.5810000e+01	  -2.9548320e-02	  -3.0281690e-01	
   9.5865000e+01	  -2.4691777e-02	  -2.9702932e-01	
   9.5920000e+01	  -1.9139594e-02	  -2.9106491e-01	
   9.5975000e+01	  -1.2996770e-02	  -2.8502289e-01	
   9.6030000e+01	  -6.3657453e-03	  -2.7902898e-01	
   9.6085000e+01	   6.5376390e-04	  -2.7322221e-01	
   9.6140000e+01	   7.9583574e-03	  -2.6773979e-01	
   9.6195000e+01	   1.5431672e-02	  -2.6270246e-01	
   9.6250000e+01	   2.2937161e-02	  -2.5820310e-01	
   9.6305000e+01	   3.0316123e-02	  -2.5429951e-01	
   9.6360000e+01	   3.7392072e-02	  -2.5101221e-01	
   9.6415000e+01	   4.3980666e-02	  -2.4832677e-01	
   9.6470000e+01	   4.9902452e-02	  -2.4619975e-01	
   9.6525000e+01	   5.4995655e-02	  -2.4456640e-01	
   9.6580000e+01	   5.9127937e-02	  -2.4334931e-01	
   9.6635000e+01	   6.2206472e-02	  -2.4246807e-01	
   9.6690000e+01	   6.4184653e-02	  -2.4184944e-01	
   9.6745000e+01	   6.5064032e-02	  -2.4143624e-01	
   9.6800000e+01	   6.4892109e-02	  -2.4119279e-01	
   9.6855000e+01	   6.3758089e-02	  -2.4110549e-01	
   9.6910000e+01	   6.1788134e-02	  -2.4117812e-01	
   9.6965000e+01	   5.9139309e-02	  -2.4142233e-01	
   9.7020000e+01	   5.5990242e-02	  -2.4184631e-01	
   9.7075000e+01	   5.2528728e-02	  -2.4244563e-01	
   9.7130000e+01	   4.8939762e-02	  -2.4319803e-01	
   9.7185000e+01	   4.5397536e-02	  -2.4406182e-01	
   9.7240000e+01	   4.2061252e-02	  -2.4497738e-01	
   9.7295000e+01	   3.9072137e-02	  -2.4587177e-01	
   9.7350000e+01	   3.6551167e-02	  -2.4666612e-01	
   9.7405000e+01	   3.4599379e-02	  -2.4728430e-01	
   9.7460000e+01	   3.3300794e-02	  -2.4766181e-01	
   9.7515000e+01	   3.2724984e-02	  -2.4775401e-01	
   9.7570000e+01	   3.2927623e-02	  -2.4754242e-01	
   9.7625000e+01	   3.3950577e-02	  -2.4703784e-01	
   9.7680000e+01	   3.5822930e-02	  -2.4627892e-01	
   9.7735000e+01	   3.8561780e-02	  -2.4532599e-01	
   9.7790000e+01	   4.2171172e-02	  -2.4425060e-01	
   9.7845000e+01	   4.6639213e-02	  -2.4312260e-01	
   9.7900000e+01	   5.1934567e-02	  -2.4199767e-01	
   9.7955000e+01	   5.8002806e-02	  -2.4090833e-01	
   9.8010000e+01	   6.4762589e-02	  -2.3986009e-01	
   9.8065000e+01	   7.2103152e-02	  -2.3883313e-01	
   9.8120000e+01	   7.9885845e-02	  -2.3778874e-01	
   9.8175000e+01	   8.7950963e-02	  -2.3667904e-01	
   9.8230000e+01	   9.6127879e-02	  -2.3545822e-01	
   9.8285000e+01	   1.0424462e-01	  -2.3409290e-01	
   9.8340000e+01	   1.1213481e-01	  -2.3257068e-01	
   9.8395000e+01	   1.1964314e-01	  -2.3090646e-01	
   9.8450000e+01	   1.2663090e-01	  -2.2914520e-01	
   9.8505000e+01	   1.3298156e-01	  -2.2735860e-01	
   9.8560000e+01	   1.3860495e-01	  -2.2563411e-01	
   9.8615000e+01	   1.4343850e-01	  -2.2405856e-01	
   9.8670000e+01	   1.4744508e-01	  -2.2270130e-01	
   9.8725000e+01	   1.5060873e-01	  -2.2160144e-01	
   9.8780000e+01	   1.5292937e-01	  -2.2076159e-01	
   9.8835000e+01	   1.5441677e-01	  -2.2014816e-01	
   9.8890000e+01	   1.5508424e-01	  -2.1969670e-01	
   9.8945000e+01	   1.5494369e-01	  -2.1932017e-01	
   9.9000000e+01	   1.5400361e-01	  -2.1891923e-01	
   9.9055000e+01	   1.5227030e-01	  -2.1839399e-01	
   9.9110000e+01	   1.4975173e-01	  -2.1765632e-01	
   9.9165000e+01	   1.4646301e-01	  -2.1664141e-01	
   9.9220000e+01	   1.4243255e-01	  -2.1531726e-01	
   9.9275000e+01	   1.3770806e-01	  -2.1369123e-01	
   9.9330000e+01	   1.3236077e-01	  -2.1181166e-01	
   9.9385000e+01	   1.2648527e-01	  -2.0976286e-01	
   9.9440000e+01	   1.2019288e-01	  -2.0765390e-01	
   9.9495000e+01	   1.1359883e-01	  -2.0560437e-01	
   9.9550000e+01	   1.0680632e-01	  -2.0373069e-01	
   9.9605000e+01	   9.9891903e-02	  -2.0213430e-01	
   9.9660000e+01	   9.2895425e-02	  -2.0089251e-01	
   9.9715000e+01	   8.5815468e-02	  -2.0005272e-01	
   9.9770000e+01	   7.8610455e-02	  -1.9963126e-01	
   9.9825000e+01	   7.1205824e-02	  -1.9961720e-01	
   9.9880000e+01	   6.3507103e-02	  -1.9998026e-01	
   9.9935000e+01	   5.5416692e-02	  -2.0068135e-01	
   9.9990000e+01	   4.6851012e-02	  -2.0168369e-01	
   1.0004500e+02	   3.7755348e-02	  -2.0296199e-01	
   1.0010000e+02	   2.8114058e-02	  -2.0450832e-01	
   1.0015500e+02	   1.7954072e-02	  -2.0633347e-01	
   1.0021000e+02	   7.3417720e-03	  -2.0846395e-01	
   1.0026500e+02	  -3.6245177e-03	  -2.1093439e-01	
   1.0032000e+02	  -1.4824266e-02	  -2.1377749e-01	
   1.0037500e+02	  -2.6125818e-02	  -2.1701445e-01	
   1.0043000e+02	  -3.7398218e-02	  -2.2064862e-01	
   1.0048500e+02	  -4.8522565e-02	  -2.2466327e-01	
   1.0054000e+02	  -5.9401408e-02	  -2.2902247e-01	
   1.0059500e+02	  -6.9965231e-02	  -2.3367532e-01	
   1.0065000e+02	  -8.0175578e-02	  -2.3856328e-01	
   1.0070500e+02	  -9.0024789e-02	  -2.4362924e-01	
   1.0076000e+02	  -9.9533108e-02	  -2.4882629e-01	
   1.0081500e+02	  -1.0874396e-01	  -2.5412460e-01	
   1.0087000e+02	  -1.1771675e-01	  -2.5951539e-01	
   1.0092500e+02	  -1.2651640e-01	  -2.6501056e-01	
   1.0098000e+02	  -1.3520136e-01	  -2.7063722e-01	
   1.0103500e+02	  -1.4381405e-01	  -2.7642801e-01	
   1.0109000e+02	  -1.5237637e-01	  -2.8240888e-01	
   1.0114500e+02	  -1.6088973e-01	  -2.8858663e-01	
   1.0120000e+02	  -1.6933735e-01	  -2.9493881e-01	
   1.0125500e+02	  -1.7768753e-01	  -3.0140851e-01	
   1.0131000e+02	  -1.8589678e-01	  -3.0790553e-01	
   1.0136500e+02	  -1.9391222e-01	  -3.1431334e-01	
   1.0142000e+02	  -2.0167187e-01	  -3.2050051e-01	
   1.0147500e+02	  -2.0910352e-01	  -3.2633469e-01	
   1.0153000e+02	  -2.1612291e-01	  -3.3169711e-01	
   1.0158500e+02	  -2.2263365e-01	  -3.3649598e-01	
   1.0164000e+02	  -2.2853026e-01	  -3.4067753e-01	
   1.0169500e+02	  -2.3370525e-01	  -3.4423358e-01	
   1.0175000e+02	  -2.3805953e-01	  -3.4720398e-01	
   1.0180500e+02	  -2.4151403e-01	  -3.4967277e-01	
   1.0186000e+02	  -2.4402019e-01	  -3.5175781e-01	
   1.0191500e+02	  -2.4556808e-01	  -3.5359546e-01	
   1.0197000e+02	  -2.4619264e-01	  -3.5532313e-01	
   1.0202500e+02	  -2.4597790e-01	  -3.5706346e-01	
   1.0208000e+02	  -2.4505892e-01	  -3.5891347e-01	
   1.0213500e+02	  -2.4362141e-01	  -3.6094000e-01	
   1.0219000e+02	  -2.4189880e-01	  -3.6318095e-01	
   1.0224500e+02	  -2.4016670e-01	  -3.6565015e-01	
   1.0230000e+02	  -2.3873364e-01	  -3.6834406e-01	
   1.0235500e+02	  -2.3792791e-01	  -3.7124934e-01	
   1.0241000e+02	  -2.3808034e-01	  -3.7435059e-01	
   1.0246500e+02	  -2.3950320e-01	  -3.7763711e-01	
   1.0252000e+02	  -2.4246819e-01	  -3.8110755e-01	
   1.0257500e+02	  -2.4718835e-01	  -3.8477268e-01	
   1.0263000e+02	  -2.5380592e-01	  -3.8865627e-01	
   1.0268500e+02	  -2.6238518e-01	  -3.9279237e-01	
   1.0274000e+02	  -2.7290997e-01	  -3.9721797e-01	
   1.0279500e+02	  -2.8528868e-01	  -4.0196219e-01	
   1.0285000e+02	  -2.9936840e-01	  -4.0703541e-01	
   1.0290500e+02	  -3.1495504e-01	  -4.1242089e-01	
   1.0296000e+02	  -3.3183252e-01	  -4.1807034e-01	
   1.0301500e+02	  -3.4977619e-01	  -4.2390361e-01	
   1.0307000e+02	  -3.6856023e-01	  -4.2981188e-01	
   1.0312500e+02	  -3.8796220e-01	  -4.3566325e-01	
   1.0318000e+02	  -4.0776824e-01	  -4.4131067e-01	
   1.0323500e+02	  -4.2778047e-01	  -4.4660297e-01	
   1.0329000e+02	  -4.4782478e-01	  -4.5139877e-01	
   1.0334500e+02	  -4.6775536e-01	  -4.5558148e-01	
   1.0340000e+02	  -4.8745331e-01	  -4.5907247e-01	
   1.0345500e+02	  -5.0681915e-01	  -4.6183912e-01	
   1.0351000e+02	  -5.2576123e-01	  -4.6389521e-01	
   1.0356500e+02	  -5.4418345e-01	  -4.6529228e-01	
   1.0362000e+02	  -5.6197577e-01	  -4.6610374e-01	
   1.0367500e+02	  -5.7900835e-01	  -4.6640620e-01	
   1.0373000e+02	  -5.9512952e-01	  -4.6626334e-01	
   1.0378500e+02	  -6.1016775e-01	  -4.6571560e-01	
   1.0384000e+02	  -6.2393827e-01	  -4.6477675e-01	
   1.0389500e+02	  -6.3625423e-01	  -4.6343711e-01	
   1.0395000e+02	  -6.4693962e-01	  -4.6167111e-01	
   1.0400500e+02	  -6.5584020e-01	  -4.5944665e-01	
   1.0406000e+02	  -6.6283111e-01	  -4.5673433e-01	
   1.0411500e+02	  -6.6782299e-01	  -4.5351571e-01	
   1.0417000e+02	  -6.7076718e-01	  -4.4978974e-01	
   1.0422500e+02	  -6.7165841e-01	  -4.4557555e-01	
   1.0428000e+02	  -6.7053378e-01	  -4.4090994e-01	
   1.0433500e+02	  -6.6746972e-01	  -4.3584003e-01	
   1.0439000e+02	  -6.6257957e-01	  -4.3041283e-01	
   1.0444500e+02	  -6.5601289e-01	  -4.2466454e-01	
   1.0450000e+02	  -6.4795697e-01	  -4.1861183e-01	
   1.0455500e+02	  -6.3863947e-01	  -4.1224685e-01	
   1.0461000e+02	  -6.2833092e-01	  -4.0553674e-01	
   1.0466500e+02	  -6.1734488e-01	  -3.9842731e-01	
   1.0472000e+02	  -6.0603427e-01	  -3.9085029e-01	
   1.0477500e+02	  -5.9478321e-01	  -3.8273341e-01	
   1.0483000e+02	  -5.8399378e-01	  -3.7401201e-01	
   1.0488500e+02	  -5.7406911e-01	  -3.6464033e-01	
   1.0494000e+02	  -5.6539375e-01	  -3.5460056e-01	
   1.0499500e+02	  -5.5831178e-01	  -3.4390756e-01	
   1.0505000e+02	  -5.5310392e-01	  -3.3260798e-01	
   1.0510500e+02	  -5.4996679e-01	  -3.2077327e-01	
   1.0516000e+02	  -5.4899800e-01	  -3.0848821e-01	
   1.0521500e+02	  -5.5019008e-01	  -2.9583815e-01	
   1.0527000e+02	  -5.5343453e-01	  -2.8289795e-01	
   1.0532500e+02	  -5.5853411e-01	  -2.6972442e-01	
   1.0538000e+02	  -5.6521973e-01	  -2.5635281e-01	
   1.0543500e+02	  -5.7316823e-01	  -2.4279773e-01	
   1.0549000e+02	  -5.8201899e-01	  -2.2905840e-01	
   1.0554500e+02	  -5.9138758e-01	  -2.1512718e-01	
   1.0560000e+02	  -6.0087546e-01	  -2.0099936e-01	
   1.0565500e+02	  -6.1007806e-01	  -1.8668216e-01	
   1.0571000e+02	  -6.1859436e-01	  -1.7220104e-01	
   1.0576500e+02	  -6.2603884e-01	  -1.5760174e-01	
   1.0582000e+02	  -6.3205390e-01	  -1.4294647e-01	
   1.0587500e+02	  -6.3632210e-01	  -1.2830536e-01	
   1.0593000e+02	  -6.3857774e-01	  -1.1374578e-01	
   1.0598500e+02	  -6.3861671e-01	  -9.9322749e-02	
   1.0604000e+02	  -6.3630276e-01	  -8.5072273e-02	
   1.0609500e+02	  -6.3157021e-01	  -7.1008500e-02	
   1.0615000e+02	  -6.2442343e-01	  -5.7125028e-02	
   1.0620500e+02	  -6.1493263e-01	  -4.3399580e-02	
   1.0626000e+02	  -6.0322560e-01	  -2.9801166e-02	
   1.0631500e+02	  -5.8947695e-01	  -1.6299258e-02	
   1.0637000e+02	  -5.7389713e-01	  -2.8739580e-03	
   1.0642500e+02	  -5.5672268e-01	   1.0475364e-02	
   1.0648000e+02	  -5.3820777e-01	   2.3725839e-02	
   1.0653500e+02	  -5.1861719e-01	   3.6832518e-02	
   1.0659000e+02	  -4.9822178e-01	   4.9735035e-02	
   1.0664500e+02	  -4.7729594e-01	   6.2367895e-02	
   1.0670000e+02	  -4.5611649e-01	   7.4671448e-02	
   1.0675500e+02	  -4.3496241e-01	   8.6600116e-02	
   1.0681000e+02	  -4.1411568e-01	   9.8126099e-02	
   1.0686500e+02	  -3.9386217e-01	   1.0923910e-01	
   1.0692000e+02	  -3.7449137e-01	   1.1994336e-01	
   1.0697500e+02	  -3.5629246e-01	   1.3025275e-01	
   1.0703000e+02	  -3.3954469e-01	   1.4018486e-01	
   1.0708500e+02	  -3.2450165e-01	   1.4975517e-01	
   1.0714000e+02	  -3.1137277e-01	   1.5897213e-01	
   1.0719500e+02	  -3.0030777e-01	   1.6783370e-01	
   1.0725000e+02	  -2.9138895e-01	   1.7632635e-01	
   1.0730500e+02	  -2.8463112e-01	   1.8442803e-01	
   1.0736000e+02	  -2.7998495e-01	   1.9211495e-01	
   1.0741500e+02	  -2.7733991e-01	   1.9936981e-01	
   1.0747000e+02	  -2.7652647e-01	   2.0618857e-01	
   1.0752500e+02	  -2.7731924e-01	   2.1258358e-01	
   1.0758000e+02	  -2.7944333e-01	   2.1858307e-01	
   1.0763500e+02	  -2.8258489e-01	   2.2422733e-01	
   1.0769000e+02	  -2.8640471e-01	   2.2956271e-01	
   1.0774500e+02	  -2.9055126e-01	   2.3463453e-01	
   1.0780000e+02	  -2.9466986e-01	   2.3948027e-01	
   1.0785500e+02	  -2.9840886e-01	   2.4412455e-01	
   1.0791000e+02	  -3.0142673e-01	   2.4857708e-01	
   1.0796500e+02	  -3.0340248e-01	   2.5283511e-01	
   1.0802000e+02	  -3.0404903e-01	   2.5689037e-01	
   1.0807500e+02	  -3.0312820e-01	   2.6073836e-01	
   1.0813000e+02	  -3.0046566e-01	   2.6438653e-01	
   1.0818500e+02	  -2.9596345e-01	   2.6785877e-01	
   1.0824000e+02	  -2.8960747e-01	   2.7119554e-01	
   1.0829500e+02	  -2.8146857e-01	   2.7444985e-01	
   1.0835000e+02	  -2.7169781e-01	   2.7767957e-01	
   1.0840500e+02	  -2.6051661e-01	   2.8093764e-01	
   1.0846000e+02	  -2.4820174e-01	   2.8426217e-01	
   1.0851500e+02	  -2.3506673e-01	   2.8766742e-01	
   1.0857000e+02	  -2.2144240e-01	   2.9113627e-01	
   1.0862500e+02	  -2.0765879e-01	   2.9461588e-01	
   1.0868000e+02	  -1.9402910e-01	   2.9801979e-01	
   1.0873500e+02	  -1.8083550e-01	   3.0123772e-01	
   1.0879000e+02	  -1.6831821e-01	   3.0415199e-01	
   1.0884500e+02	  -1.5666939e-01	   3.0665719e-01	
   1.0890000e+02	  -1.4603253e-01	   3.0867892e-01	
   1.0895500e+02	  -1.3650588e-01	   3.1018779e-01	
   1.0901000e+02	  -1.2814825e-01	   3.1120677e-01	
   1.0906500e+02	  -1.2098544e-01	   3.1181155e-01	
   1.0912000e+02	  -1.1501633e-01	   3.1212421e-01	
   1.0917500e+02	  -1.1021843e-01	   3.1230082e-01	
   1.0923000e+02	  -1.0655194e-01	   3.1251443e-01	
   1.0928500e+02	  -1.0396150e-01	   3.1293575e-01	
   1.0934000e+02	  -1.0237534e-01	   3.1371400e-01	
   1.0939500e+02	  -1.0170397e-01	   3.1495929e-01	
   1.0945000e+02	  -1.0184113e-01	   3.1672777e-01	
   1.0950500e+02	  -1.0266694e-01	   3.1901172e-01	
   1.0956000e+02	  -1.0405049e-01	   3.2173782e-01	
   1.0961500e+02	  -1.0585076e-01	   3.2477451e-01	
   1.0967000e+02	  -1.0791739e-01	   3.2794730e-01	
   1.0972500e+02	  -1.1009379e-01	   3.3105888e-01	
   1.0978000e+02	  -1.1222330e-01	   3.3391030e-01	
   1.0983500e+02	  -1.1415686e-01	   3.3631962e-01	
   1.0989000e+02	  -1.1576056e-01	   3.3813601e-01	
   1.0994500e+02	  -1.1692267e-01	   3.3924933e-01	
   1.1000000e+02	  -1.1756015e-01	   3.3959560e-01	
   1.1005500e+02	  -1.1762385e-01	   3.3915836e-01	
   1.1011000e+02	  -1.1710066e-01	   3.3796526e-01	
   1.1016500e+02	  -1.1601026e-01	   3.3608012e-01	
   1.1022000e+02	  -1.1439572e-01	   3.3359145e-01	
   1.1027500e+02	  -1.1231015e-01	   3.3059953e-01	
   1.1033000e+02	  -1.0980338e-01	   3.2720346e-01	
   1.1038500e+02	  -1.0691128e-01	   3.2349071e-01	
   1.1044000e+02	  -1.0364833e-01	   3.1953144e-01	
   1.1049500e+02	  -1.0000327e-01	   3.1537827e-01	
   1.1055000e+02	  -9.5939010e-02	   3.1106984e-01	
   1.1060500e+02	  -9.1398346e-02	   3.0663492e-01	
   1.1066000e+02	  -8.6313402e-02	   3.0209504e-01	
   1.1071500e+02	  -8.0614897e-02	   2.9746583e-01	
   1.1077000e+02	  -7.4238468e-02	   2.9275718e-01	
   1.1082500e+02	  -6.7129128e-02	   2.8797291e-01	
   1.1088000e+02	  -5.9246148e-02	   2.8310962e-01	
   1.1093500e+02	  -5.0568402e-02	   2.7815482e-01	
   1.1099000e+02	  -4.1098431e-02	   2.7308465e-01	
   1.1104500e+02	  -3.0863911e-02	   2.6786220e-01	
   1.1110000e+02	  -1.9916145e-02	   2.6243761e-01	
   1.1115500e+02	  -8.3259796e-03	   2.5675137e-01	
   1.1121000e+02	   3.8216056e-03	   2.5074167e-01	
   1.1126500e+02	   1.6432512e-02	   2.4435561e-01	
   1.1132000e+02	   2.9407251e-02	   2.3756239e-01	
   1.1137500e+02	   4.2643425e-02	   2.3036481e-01	
   1.1143000e+02	   5.6036371e-02	   2.2280629e-01	
   1.1148500e+02	   6.9476846e-02	   2.1497221e-01	
   1.1154000e+02	   8.2846889e-02	   2.0698570e-01	
   1.1159500e+02	   9.6016776e-02	   1.9899814e-01	
   1.1165000e+02	   1.0884423e-01	   1.9117524e-01	
   1.1170500e+02	   1.2117541e-01	   1.8368060e-01	
   1.1176000e+02	   1.3284815e-01	   1.7665930e-01	
   1.1181500e+02	   1.4369858e-01	   1.7022357e-01	
   1.1187000e+02	   1.5357159e-01	   1.6444182e-01	
   1.1192500e+02	   1.6233525e-01	   1.5933280e-01	
   1.1198000e+02	   1.6989782e-01	   1.5486613e-01	
   1.1203500e+02	   1.7622342e-01	   1.5097001e-01	
   1.1209000e+02	   1.8134224e-01	   1.4754475e-01	
   1.1214500e+02	   1.8535271e-01	   1.4447982e-01	
   1.1220000e+02	   1.8841507e-01	   1.4167071e-01	
   1.1225500e+02	   1.9073756e-01	   1.3903282e-01	
   1.1231000e+02	   1.9255704e-01	   1.3651010e-01	
   1.1236500e+02	   1.9411641e-01	   1.3407808e-01	
   1.1242000e+02	   1.9564300e-01	   1.3174213e-01	
   1.1247500e+02	   1.9733097e-01	   1.2953155e-01	
   1.1253000e+02	   1.9933000e-01	   1.2749030e-01	
   1.1258500e+02	   2.0174079e-01	   1.2566527e-01	
   1.1264000e+02	   2.0461609e-01	   1.2409386e-01	
   1.1269500e+02	   2.0796401e-01	   1.2279256e-01	
   1.1275000e+02	   2.1175137e-01	   1.2174803e-01	
   1.1280500e+02	   2.1590886e-01	   1.2091190e-01	
   1.1286000e+02	   2.2034082e-01	   1.2020089e-01	
   1.1291500e+02	   2.2493895e-01	   1.1950308e-01	
   1.1297000e+02	   2.2959610e-01	   1.1868988e-01	
   1.1302500e+02	   2.3421736e-01	   1.1763149e-01	
   1.1308000e+02	   2.3872778e-01	   1.1621286e-01	
   1.1313500e+02	   2.4307661e-01	   1.1434769e-01	
   1.1319000e+02	   2.4723709e-01	   1.1198842e-01	
   1.1324500e+02	   2.5120155e-01	   1.0913082e-01	
   1.1330000e+02	   2.5497387e-01	   1.0581313e-01	
   1.1335500e+02	   2.5856194e-01	   1.0211012e-01	
   1.1341000e+02	   2.6197149e-01	   9.8122469e-02	
   1.1346500e+02	   2.6520244e-01	   9.3963222e-02	
   1.1352000e+02	   2.6824845e-01	   8.9744570e-02	
   1.1357500e+02	   2.7109964e-01	   8.5567390e-02	
   1.1363000e+02	   2.7374668e-01	   8.1514930e-02	
   1.1368500e+02	   2.7618456e-01	   7.7651862e-02	
   1.1374000e+02	   2.7841473e-01	   7.4029229e-02	
   1.1379500e+02	   2.8044358e-01	   7.0693140e-02	
   1.1385000e+02	   2.8227729e-01	   6.7693035e-02	
   1.1390500e+02	   2.8391513e-01	   6.5086437e-02	
   1.1396000e+02	   2.8534440e-01	   6.2939403e-02	
   1.1401500e+02	   2.8653757e-01	   6.1323075e-02	
   1.1407000e+02	   2.8745062e-01	   6.0306949e-02	
   1.1412500e+02	   2.8802246e-01	   5.9949954e-02	
   1.1418000e+02	   2.8817625e-01	   6.0291158e-02	
   1.1423500e+02	   2.8782363e-01	   6.1342008e-02	
   1.1429000e+02	   2.8687152e-01	   6.3081754e-02	
   1.1434500e+02	   2.8523102e-01	   6.5457427e-02	
   1.1440000e+02	   2.8282669e-01	   6.8389078e-02	
   1.1445500e+02	   2.7960443e-01	   7.1779127e-02	
   1.1451000e+02	   2.7553738e-01	   7.5523172e-02	
   1.1456500e+02	   2.7063092e-01	   7.9519818e-02	
   1.1462000e+02	   2.6492702e-01	   8.3678425e-02	
   1.1467500e+02	   2.5850607e-01	   8.7924282e-02	
   1.1473000e+02	   2.5148368e-01	   9.2200282e-02	
   1.1478500e+02	   2.4400337e-01	   9.6464374e-02	
   1.1484000e+02	   2.3622866e-01	   1.0068366e-01	
   1.1489500e+02	   2.2833630e-01	   1.0482733e-01	
   1.1495000e+02	   2.2050995e-01	   1.0886050e-01	
   1.1500500e+02	   2.1293348e-01	   1.1274048e-01	
   1.1506000e+02	   2.0578468e-01	   1.1641692e-01	
   1.1511500e+02	   1.9922971e-01	   1.1983721e-01	
   1.1517000e+02	   1.9341753e-01	   1.2295643e-01	
   1.1522500e+02	   1.8847409e-01	   1.2574953e-01	
   1.1528000e+02	   1.8449666e-01	   1.2822238e-01	
   1.1533500e+02	   1.8154900e-01	   1.3041868e-01	
   1.1539000e+02	   1.7965712e-01	   1.3242125e-01	
   1.1544500e+02	   1.7880545e-01	   1.3434757e-01	
   1.1550000e+02	   1.7893520e-01	   1.3633988e-01	
   1.1555500e+02	   1.7994758e-01	   1.3855050e-01	
   1.1561000e+02	   1.8171236e-01	   1.4112364e-01	
   1.1566500e+02	   1.8408001e-01	   1.4417690e-01	
   1.1572000e+02	   1.8689553e-01	   1.4778587e-01	
   1.1577500e+02	   1.9001250e-01	   1.5197439e-01	
   1.1583000e+02	   1.9330553e-01	   1.5671146e-01	
   1.1588500e+02	   1.9667942e-01	   1.6191503e-01	
   1.1594000e+02	   2.0007456e-01	   1.6746202e-01	
   1.1599500e+02	   2.0346805e-01	   1.7320268e-01	
   1.1605000e+02	   2.0687012e-01	   1.7897583e-01	
   1.1610500e+02	   2.1031690e-01	   1.8462238e-01	
   1.1616000e+02	   2.1386137e-01	   1.8999575e-01	
   1.1621500e+02	   2.1756383e-01	   1.9496876e-01	
   1.1627000e+02	   2.2148039e-01	   1.9943628e-01	
   1.1632500e+02	   2.2564977e-01	   2.0331388e-01	
   1.1638000e+02	   2.3008153e-01	   2.0653325e-01	
   1.1643500e+02	   2.3474896e-01	   2.0903570e-01	
   1.1649000e+02	   2.3958676e-01	   2.1076526e-01	
   1.1654500e+02	   2.4449237e-01	   2.1166353e-01	
   1.1660000e+02	   2.4933288e-01	   2.1166814e-01	
   1.1665500e+02	   2.5395830e-01	   2.1071522e-01	
   1.1671000e+02	   2.5821763e-01	   2.0874548e-01	
   1.1676500e+02	   2.6197209e-01	   2.0571374e-01	
   1.1682000e+02	   2.6510352e-01	   2.0160099e-01	
   1.1687500e+02	   2.6751922e-01	   1.9642617e-01	
   1.1693000e+02	   2.6915510e-01	   1.9025438e-01	
   1.1698500e+02	   2.6997663e-01	   1.8319910e-01	
   1.1704000e+02	   2.6997734e-01	   1.7541802e-01	
   1.1709500e+02	   2.6917660e-01	   1.6710255e-01	
   1.1715000e+02	   2.6761882e-01	   1.5846258e-01	
   1.1720500e+02	   2.6537412e-01	   1.4970907e-01	
   1.1726000e+02	   2.6253870e-01	   1.4103813e-01	
   1.1731500e+02	   2.5923385e-01	   1.3261882e-01	
   1.1737000e+02	   2.5560295e-01	   1.2458594e-01	
   1.1742500e+02	   2.5180614e-01	   1.1703821e-01	
   1.1748000e+02	   2.4801310e-01	   1.1004163e-01	
   1.1753500e+02	   2.4439497e-01	   1.0363663e-01	
   1.1759000e+02	   2.4111515e-01	   9.7846575e-02	
   1.1764500e+02	   2.3831855e-01	   9.2685566e-02	
   1.1770000e+02	   2.3612032e-01	   8.8164454e-02	
   1.1775500e+02	   2.3459603e-01	   8.4294432e-02	
   1.1781000e+02	   2.3377355e-01	   8.1087164e-02	
   1.1786500e+02	   2.3362709e-01	   7.8551663e-02	
   1.1792000e+02	   2.3407551e-01	   7.6689437e-02	
   1.1797500e+02	   2.3498718e-01	   7.5489400e-02	
   1.1803000e+02	   2.3619094e-01	   7.4923261e-02	
   1.1808500e+02	   2.3749022e-01	   7.4942326e-02	
   1.1814000e+02	   2.3867825e-01	   7.5477573e-02	
   1.1819500e+02	   2.3955302e-01	   7.6444564e-02	
   1.1825000e+02	   2.3993084e-01	   7.7752706e-02	
   1.1830500e+02	   2.3965681e-01	   7.9316433e-02	
   1.1836000e+02	   2.3861087e-01	   8.1065253e-02	
   1.1841500e+02	   2.3670910e-01	   8.2950277e-02	
   1.1847000e+02	   2.3390111e-01	   8.4946097e-02	
   1.1852500e+02	   2.3016598e-01	   8.7048114e-02	
   1.1858000e+02	   2.2550932e-01	   8.9266038e-02	
   1.1863500e+02	   2.1996197e-01	   9.1614750e-02	
   1.1869000e+02	   2.1357984e-01	   9.4104143e-02	
   1.1874500e+02	   2.0644517e-01	   9.6729907e-02	
   1.1880000e+02	   1.9866916e-01	   9.9467241e-02	
   1.1885500e+02	   1.9039309e-01	   1.0226885e-01	
   1.1891000e+02	   1.8178364e-01	   1.0506721e-01	
   1.1896500e+02	   1.7302248e-01	   1.0778012e-01	
   1.1902000e+02	   1.6429318e-01	   1.1031811e-01	
   1.1907500e+02	   1.5576851e-01	   1.1259243e-01	
   1.1913000e+02	   1.4759995e-01	   1.1452226e-01	
   1.1918500e+02	   1.3991085e-01	   1.1604018e-01	
   1.1924000e+02	   1.3279417e-01	   1.1709610e-01	
   1.1929500e+02	   1.2631449e-01	   1.1765925e-01	
   1.1935000e+02	   1.2051316e-01	   1.1771687e-01	
   1.1940500e+02	   1.1541579e-01	   1.1726923e-01	
   1.1946000e+02	   1.1104059e-01	   1.1632228e-01	
   1.1951500e+02	   1.0740551e-01	   1.1488009e-01	
   1.1957000e+02	   1.0453234e-01	   1.1293906e-01	
   1.1962500e+02	   1.0244812e-01	   1.1048558e-01	
   1.1968000e+02	   1.0118605e-01	   1.0749920e-01	
   1.1973500e+02	   1.0078644e-01	   1.0396149e-01	
   1.1979000e+02	   1.0129602e-01	   9.9868387e-02	
   1.1984500e+02	   1.0276281e-01	   9.5241728e-02	
   1.1990000e+02	   1.0522691e-01	   9.0137238e-02	
   1.1995500e+02	   1.0870984e-01	   8.4647823e-02	
   1.2001000e+02	   1.1320552e-01	   7.8901686e-02	
   1.2006500e+02	   1.1867426e-01	   7.3055280e-02	
   1.2012000e+02	   1.2504100e-01	   6.7281922e-02	
   1.2017500e+02	   1.3219905e-01	   6.1757263e-02	
   1.2023000e+02	   1.4001887e-01	   5.6643108e-02	
   1.2028500e+02	   1.4835929e-01	   5.2071597e-02	
   1.2034000e+02	   1.5707742e-01	   4.8131813e-02	
   1.2039500e+02	   1.6603475e-01	   4.4860055e-02	
   1.2045000e+02	   1.7509854e-01	   4.2234614e-02	
   1.2050500e+02	   1.8414101e-01	   4.0176534e-02	
   1.2056000e+02	   1.9303985e-01	   3.8557992e-02	
   1.2061500e+02	   2.0168241e-01	   3.7217950e-02	
   1.2067000e+02	   2.0997196e-01	   3.5981953e-02	
   1.2072500e+02	   2.1783210e-01	   3.4682163e-02	
   1.2078000e+02	   2.2520681e-01	   3.3174507e-02	
   1.2083500e+02	   2.3205596e-01	   3.1350506e-02	
   1.2089000e+02	   2.3834711e-01	   2.9142214e-02	
   1.2094500e+02	   2.4404651e-01	   2.6520635e-02	
   1.2100000e+02	   2.4911272e-01	   2.3489795e-02	
   1.2105500e+02	   2.5349485e-01	   2.0078670e-02	
   1.2111000e+02	   2.5713456e-01	   1.6331886e-02	
   1.2116500e+02	   2.5997046e-01	   1.2299644e-02	
   1.2122000e+02	   2.6194449e-01	   8.0280167e-03	
   1.2127500e+02	   2.6301016e-01	   3.5516999e-03	
   1.2133000e+02	   2.6314044e-01	  -1.1087331e-03	
   1.2138500e+02	   2.6233329e-01	  -5.9439331e-03	
   1.2144000e+02	   2.6061505e-01	  -1.0948006e-02	
   1.2149500e+02	   2.5804282e-01	  -1.6108787e-02	
   1.2155000e+02	   2.5470475e-01	  -2.1399879e-02	
   1.2160500e+02	   2.5071580e-01	  -2.6776585e-02	
   1.2166000e+02	   2.4620827e-01	  -3.2175409e-02	
   1.2171500e+02	   2.4131991e-01	  -3.7516135e-02	
   1.2177000e+02	   2.3618304e-01	  -4.2706296e-02	
   1.2182500e+02	   2.3091529e-01	  -4.7648075e-02	
   1.2188000e+02	   2.2561171e-01	  -5.2246513e-02	
   1.2193500e+02	   2.2033900e-01	  -5.6417131e-02	
   1.2199000e+02	   2.1513250e-01	  -6.0091336e-02	
   1.2204500e+02	   2.0999531e-01	  -6.3218351e-02	
   1.2210000e+02	   2.0489854e-01	  -6.5762677e-02	
   1.2215500e+02	   1.9978263e-01	  -6.7697503e-02	
   1.2221000e+02	   1.9455859e-01	  -6.8996724e-02	
   1.2226500e+02	   1.8910751e-01	  -6.9628781e-02	
   1.2232000e+02	   1.8327876e-01	  -6.9554014e-02	
   1.2237500e+02	   1.7689057e-01	  -6.8725520e-02	
   1.2243000e+02	   1.6973545e-01	  -6.7092982e-02	
   1.2248500e+02	   1.6159082e-01	  -6.4608891e-02	
   1.2254000e+02	   1.5223372e-01	  -6.1236549e-02	
   1.2259500e+02	   1.4145822e-01	  -5.6958904e-02	
   1.2265000e+02	   1.2909434e-01	  -5.1786754e-02	
   1.2270500e+02	   1.1502707e-01	  -4.5764375e-02	
   1.2276000e+02	   9.9213937e-02	  -3.8970359e-02	
   1.2281500e+02	   8.1698553e-02	  -3.1512036e-02	
   1.2287000e+02	   6.2617798e-02	  -2.3513947e-02	
   1.2292500e+02	   4.2201029e-02	  -1.5103403e-02	
   1.2298000e+02	   2.0761488e-02	  -6.3968915e-03	
   1.2303500e+02	  -1.3189920e-03	   2.5101342e-03	
   1.2309000e+02	  -2.3611089e-02	   1.1548713e-02	
   1.2314500e+02	  -4.5663619e-02	   2.0676615e-02	
   1.2320000e+02	  -6.7030365e-02	   2.9874110e-02	
   1.2325500e+02	  -8.7293374e-02	   3.9136725e-02	
   1.2331000e+02	  -1.0607994e-01	   4.8466052e-02	
   1.2336500e+02	  -1.2307378e-01	   5.7859612e-02	
   1.2342000e+02	  -1.3802190e-01	   6.7301712e-02	
   1.2347500e+02	  -1.5073779e-01	   7.6757446e-02	
   1.2353000e+02	  -1.6110175e-01	   8.6170997e-02	
   1.2358500e+02	  -1.6905867e-01	   9.5468831e-02	
   1.2364000e+02	  -1.7461341e-01	   1.0456816e-01	
   1.2369500e+02	  -1.7782443e-01	   1.1338944e-01	
   1.2375000e+02	  -1.7879852e-01	   1.2186936e-01	
   1.2380500e+02	  -1.7768931e-01	   1.2997072e-01	
   1.2386000e+02	  -1.7469850e-01	   1.3768703e-01	
   1.2391500e+02	  -1.7007592e-01	   1.4504157e-01	
   1.2397000e+02	  -1.6411616e-01	   1.5208176e-01	
   1.2402500e+02	  -1.5715181e-01	   1.5887011e-01	
   1.2408000e+02	  -1.4954318e-01	   1.6547345e-01	
   1.2413500e+02	  -1.4166354e-01	   1.7195234e-01	
   1.2419000e+02	  -1.3388070e-01	   1.7835194e-01	
   1.2424500e+02	  -1.2653823e-01	   1.8469572e-01	
   1.2430000e+02	  -1.1993863e-01	   1.9098294e-01	
   1.2435500e+02	  -1.1432961e-01	   1.9719109e-01	
   1.2441000e+02	  -1.0989509e-01	   2.0328311e-01	
   1.2446500e+02	  -1.0675249e-01	   2.0921772e-01	
   1.2452000e+02	  -1.0495555e-01	   2.1496037e-01	
   1.2457500e+02	  -1.0450000e-01	   2.2049268e-01	
   1.2463000e+02	  -1.0533006e-01	   2.2581815e-01	
   1.2468500e+02	  -1.0734625e-01	   2.3096255e-01	
   1.2474000e+02	  -1.1041538e-01	   2.3596945e-01	
   1.2479500e+02	  -1.1438124e-01	   2.4089253e-01	
   1.2485000e+02	  -1.1907321e-01	   2.4578612e-01	
   1.2490500e+02	  -1.2431029e-01	   2.5069592e-01	
   1.2496000e+02	  -1.2990016e-01	   2.5565174e-01	
   1.2501500e+02	  -1.3563544e-01	   2.6066481e-01	
   1.2507000e+02	  -1.4129192e-01	   2.6573056e-01	
   1.2512500e+02	  -1.4663287e-01	   2.7083580e-01	
   1.2518000e+02	  -1.5141942e-01	   2.7596755e-01	
   1.2523500e+02	  -1.5542429e-01	   2.8112042e-01	
   1.2529000e+02	  -1.5844619e-01	   2.8630084e-01	
   1.2534500e+02	  -1.6032345e-01	   2.9152717e-01	
   1.2540000e+02	  -1.6094470e-01	   2.9682588e-01	
   1.2545500e+02	  -1.6025334e-01	   3.0222487e-01	
   1.2551000e+02	  -1.5824527e-01	   3.0774549e-01	
   1.2556500e+02	  -1.5496226e-01	   3.1339506e-01	
   1.2562000e+02	  -1.5048346e-01	   3.1916233e-01	
   1.2567500e+02	  -1.4491664e-01	   3.2501757e-01	
   1.2573000e+02	  -1.3839009e-01	   3.3091715e-01	
   1.2578500e+02	  -1.3104712e-01	   3.3681048e-01	
   1.2584000e+02	  -1.2304391e-01	   3.4264759e-01	
   1.2589500e+02	  -1.1454961e-01	   3.4838616e-01	
   1.2595000e+02	  -1.0574657e-01	   3.5399739e-01	
   1.2600500e+02	  -9.6828518e-02	   3.5946942e-01	
   1.2606000e+02	  -8.7995034e-02	   3.6480709e-01	
   1.2611500e+02	  -7.9441472e-02	   3.7002800e-01	
   1.2617000e+02	  -7.1346885e-02	   3.7515533e-01	
   1.2622500e+02	  -6.3864105e-02	   3.8020862e-01	
   1.2628000e+02	  -5.7113520e-02	   3.8519444e-01	
   1.2633500e+02	  -5.1178764e-02	   3.9009947e-01	
   1.2639000e+02	  -4.6103607e-02	   3.9488862e-01	
   1.2644500e+02	  -4.1891705e-02	   3.9950986e-01	
   1.2650000e+02	  -3.8509516e-02	   4.0390499e-01	
   1.2655500e+02	  -3.5890152e-02	   4.0802271e-01	
   1.2661000e+02	  -3.3937264e-02	   4.1182973e-01	
   1.2666500e+02	  -3.2531096e-02	   4.1531708e-01	
   1.2672000e+02	  -3.1537498e-02	   4.1850087e-01	
   1.2677500e+02	  -3.0816830e-02	   4.2141838e-01	
   1.2683000e+02	  -3.0230457e-02	   4.2412081e-01	
