
0   2   1   4	
   0.0000000e+00	   3.6174010e-02	   5.7985685e-02	  -1.7351226e-01	
   5.5000000e-02	   8.7867752e-03	   7.3001794e-02	  -1.5018465e-01	
   1.1000000e-01	  -1.9398316e-02	   8.8415100e-02	  -1.2834970e-01	
   1.6500000e-01	  -4.7922850e-02	   1.0389934e-01	  -1.0805187e-01	
   2.2000000e-01	  -7.6345516e-02	   1.1914797e-01	  -8.9310269e-02	
   2.7500000e-01	  -1.0425735e-01	   1.3388907e-01	  -7.2127185e-02	
   3.3000000e-01	  -1.3129332e-01	   1.4789614e-01	  -5.6496169e-02	
   3.8500000e-01	  -1.5714071e-01	   1.6099351e-01	  -4.2406815e-02	
   4.4000000e-01	  -1.8154415e-01	   1.7305650e-01	  -2.9845826e-02	
   4.9500000e-01	  -2.0430594e-01	   1.8400816e-01	  -1.8794693e-02	
   5.5000000e-01	  -2.2528123e-01	   1.9381565e-01	  -9.2252917e-03	
   6.0500000e-01	  -2.4437005e-01	   2.0248756e-01	  -1.0956727e-03	
   6.6000000e-01	  -2.6150945e-01	   2.1007231e-01	   5.6526457e-03	
   7.1500000e-01	  -2.7666767e-01	   2.1665634e-01	   1.1096485e-02	
   7.7000000e-01	  -2.8984060e-01	   2.2236014e-01	   1.5332169e-02	
   8.2500000e-01	  -3.0105019e-01	   2.2733164e-01	   1.8474822e-02	
   8.8000000e-01	  -3.1034393e-01	   2.3173824e-01	   2.0654814e-02	
   9.3500000e-01	  -3.1779512e-01	   2.3575945e-01	   2.2011788e-02	
   9.9000000e-01	  -3.2350350e-01	   2.3957991e-01	   2.2687242e-02	
   1.0450000e+00	  -3.2759518e-01	   2.4338184e-01	   2.2817196e-02	
   1.1000000e+00	  -3.3021962e-01	   2.4733713e-01	   2.2527619e-02	
   1.1550000e+00	  -3.3154233e-01	   2.5160132e-01	   2.1934957e-02	
   1.2100000e+00	  -3.3173411e-01	   2.5631007e-01	   2.1151668e-02	
   1.2650000e+00	  -3.3095927e-01	   2.6157752e-01	   2.0293740e-02	
   1.3200000e+00	  -3.2936486e-01	   2.6749607e-01	   1.9486224e-02	
   1.3750000e+00	  -3.2707249e-01	   2.7413717e-01	   1.8864008e-02	
   1.4300000e+00	  -3.2417427e-01	   2.8155195e-01	   1.8567272e-02	
   1.4850000e+00	  -3.2073370e-01	   2.8977055e-01	   1.8733080e-02	
   1.5400000e+00	  -3.1679105e-01	   2.9880060e-01	   1.9485952e-02	
   1.5950000e+00	  -3.1237130e-01	   3.0862572e-01	   2.0930266e-02	
   1.6500000e+00	  -3.0749292e-01	   3.1920463e-01	   2.3145677e-02	
   1.7050000e+00	  -3.0217550e-01	   3.3047094e-01	   2.6185572e-02	
   1.7600000e+00	  -2.9644445e-01	   3.4233502e-01	   3.0079087e-02	
   1.8150000e+00	  -2.9033097e-01	   3.5468902e-01	   3.4837407e-02	
   1.8700000e+00	  -2.8386784e-01	   3.6741443e-01	   4.0462723e-02	
   1.9250000e+00	  -2.7708382e-01	   3.8038926e-01	   4.6956223e-02	
   1.9800000e+00	  -2.6999973e-01	   3.9349243e-01	   5.4322973e-02	
   2.0350000e+00	  -2.6262732e-01	   4.0660543e-01	   6.2574257e-02	
   2.0900000e+00	  -2.5497040e-01	   4.1961280e-01	   7.1728277e-02	
   2.1450000e+00	  -2.4702807e-01	   4.3240325e-01	   8.1808581e-02	
   2.2000000e+00	  -2.3879988e-01	   4.4487180e-01	   9.2839620e-02	
   2.2550000e+00	  -2.3029173e-01	   4.5692246e-01	   1.0484042e-01	
   2.3100000e+00	  -2.2152178e-01	   4.6847028e-01	   1.1781773e-01	
   2.3650000e+00	  -2.1252540e-01	   4.7944310e-01	   1.3175960e-01	
   2.4200000e+00	  -2.0335767e-01	   4.8978355e-01	   1.4663162e-01	
   2.4750000e+00	  -1.9409145e-01	   4.9945192e-01	   1.6237819e-01	
   2.5300000e+00	  -1.8481057e-01	   5.0842916e-01	   1.7892808e-01	
   2.5850000e+00	  -1.7560051e-01	   5.1671887e-01	   1.9620050e-01	
   2.6400000e+00	  -1.6653974e-01	   5.2434777e-01	   2.1410926e-01	
   2.6950000e+00	  -1.5769449e-01	   5.3136421e-01	   2.3256576e-01	
   2.7500000e+00	  -1.4911764e-01	   5.3783377e-01	   2.5148203e-01	
   2.8050000e+00	  -1.4085156e-01	   5.4383196e-01	   2.7077343e-01	
   2.8600000e+00	  -1.3293347e-01	   5.4943663e-01	   2.9035928e-01	
   2.9150000e+00	  -1.2540194e-01	   5.5472337e-01	   3.1016028e-01	
   2.9700000e+00	  -1.1830364e-01	   5.5976451e-01	   3.3009353e-01	
   3.0250000e+00	  -1.1169871e-01	   5.6462995e-01	   3.5006671e-01	
   3.0800000e+00	  -1.0566274e-01	   5.6938887e-01	   3.6997282e-01	
   3.1350000e+00	  -1.0028392e-01	   5.7411293e-01	   3.8968675e-01	
   3.1900000e+00	  -9.5655663e-02	   5.7888058e-01	   4.0906541e-01	
   3.2450000e+00	  -9.1865678e-02	   5.8378023e-01	   4.2795343e-01	
   3.3000000e+00	  -8.8983545e-02	   5.8891020e-01	   4.4619415e-01	
   3.3550000e+00	  -8.7049013e-02	   5.9437478e-01	   4.6364329e-01	
   3.4100000e+00	  -8.6063315e-02	   6.0027799e-01	   4.8018099e-01	
   3.4650000e+00	  -8.5984563e-02	   6.0671643e-01	   4.9571952e-01	
   3.5200000e+00	  -8.6727153e-02	   6.1377278e-01	   5.1020570e-01	
   3.5750000e+00	  -8.8164893e-02	   6.2151084e-01	   5.2362000e-01	
   3.6300000e+00	  -9.0138130e-02	   6.2997162e-01	   5.3597323e-01	
   3.6850000e+00	  -9.2464788e-02	   6.3916921e-01	   5.4730163e-01	
   3.7400000e+00	  -9.4953855e-02	   6.4908596e-01	   5.5766033e-01	
   3.7950000e+00	  -9.7418804e-02	   6.5966800e-01	   5.6711598e-01	
   3.8500000e+00	  -9.9688349e-02	   6.7082365e-01	   5.7573977e-01	
   3.9050000e+00	  -1.0161255e-01	   6.8242638e-01	   5.8360298e-01	
   3.9600000e+00	  -1.0306339e-01	   6.9432320e-01	   5.9077669e-01	
   4.0150000e+00	  -1.0393062e-01	   7.0634731e-01	   5.9733561e-01	
   4.0700000e+00	  -1.0411541e-01	   7.1833224e-01	   6.0336410e-01	
   4.1250000e+00	  -1.0352439e-01	   7.3012432e-01	   6.0896115e-01	
   4.1800000e+00	  -1.0206678e-01	   7.4159145e-01	   6.1424120e-01	
   4.2350000e+00	  -9.9655365e-02	   7.5262780e-01	   6.1932968e-01	
   4.2900000e+00	  -9.6211207e-02	   7.6315421e-01	   6.2435456e-01	
   4.3450000e+00	  -9.1670231e-02	   7.7311379e-01	   6.2943694e-01	
   4.4000000e+00	  -8.5990661e-02	   7.8246346e-01	   6.3468337e-01	
   4.4550000e+00	  -7.9160313e-02	   7.9116415e-01	   6.4018132e-01	
   4.5100000e+00	  -7.1202567e-02	   7.9917340e-01	   6.4599697e-01	
   4.5650000e+00	  -6.2179252e-02	   8.0644317e-01	   6.5217394e-01	
   4.6200000e+00	  -5.2188439e-02	   8.1292272e-01	   6.5873315e-01	
   4.6750000e+00	  -4.1356348e-02	   8.1856501e-01	   6.6567460e-01	
   4.7300000e+00	  -2.9825052e-02	   8.2333341e-01	   6.7298104e-01	
   4.7850000e+00	  -1.7739610e-02	   8.2720611e-01	   6.8062248e-01	
   4.8400000e+00	  -5.2378823e-03	   8.3017810e-01	   6.8856021e-01	
   4.8950000e+00	   7.5554050e-03	   8.3226257e-01	   6.9674875e-01	
   4.9500000e+00	   2.0530184e-02	   8.3349278e-01	   7.0513479e-01	
   5.0050000e+00	   3.3588611e-02	   8.3392302e-01	   7.1365327e-01	
   5.0600000e+00	   4.6639577e-02	   8.3362741e-01	   7.2222186e-01	
   5.1150000e+00	   5.9591323e-02	   8.3269598e-01	   7.3073545e-01	
   5.1700000e+00	   7.2343322e-02	   8.3122835e-01	   7.3906166e-01	
   5.2250000e+00	   8.4778944e-02	   8.2932596e-01	   7.4703922e-01	
   5.2800000e+00	   9.6760998e-02	   8.2708448e-01	   7.5448204e-01	
   5.3350000e+00	   1.0813228e-01	   8.2458853e-01	   7.6119115e-01	
   5.3900000e+00	   1.1872170e-01	   8.2190915e-01	   7.6697340e-01	
   5.4450000e+00	   1.2835418e-01	   8.1910307e-01	   7.7166229e-01	
   5.5000000e+00	   1.3686125e-01	   8.1621230e-01	   7.7513575e-01	
   5.5550000e+00	   1.4409009e-01	   8.1326371e-01	   7.7732710e-01	
   5.6100000e+00	   1.4991015e-01	   8.1026845e-01	   7.7822799e-01	
   5.6650000e+00	   1.5421718e-01	   8.0722075e-01	   7.7788384e-01	
   5.7200000e+00	   1.5693461e-01	   8.0409660e-01	   7.7638384e-01	
   5.7750000e+00	   1.5801264e-01	   8.0085376e-01	   7.7384831e-01	
   5.8300000e+00	   1.5742602e-01	   7.9743476e-01	   7.7041623e-01	
   5.8850000e+00	   1.5517114e-01	   7.9377212e-01	   7.6623420e-01	
   5.9400000e+00	   1.5126283e-01	   7.8979452e-01	   7.6144593e-01	
   5.9950000e+00	   1.4573186e-01	   7.8543288e-01	   7.5618219e-01	
   6.0500000e+00	   1.3862389e-01	   7.8062592e-01	   7.5055298e-01	
   6.1050000e+00	   1.3000010e-01	   7.7532386e-01	   7.4464362e-01	
   6.1600000e+00	   1.1993860e-01	   7.6948998e-01	   7.3851487e-01	
   6.2150000e+00	   1.0853597e-01	   7.6310102e-01	   7.3220594e-01	
   6.2700000e+00	   9.5907936e-02	   7.5614801e-01	   7.2573933e-01	
   6.3250000e+00	   8.2188047e-02	   7.4863630e-01	   7.1912605e-01	
   6.3800000e+00	   6.7524713e-02	   7.4058408e-01	   7.1236961e-01	
   6.4350000e+00	   5.2076881e-02	   7.3201932e-01	   7.0546778e-01	
   6.4900000e+00	   3.6008368e-02	   7.2297539e-01	   6.9841221e-01	
   6.5450000e+00	   1.9480443e-02	   7.1348486e-01	   6.9118685e-01	
   6.6000000e+00	   2.6432518e-03	   7.0357158e-01	   6.8376641e-01	
   6.6550000e+00	  -1.4372245e-02	   6.9324271e-01	   6.7611634e-01	
   6.7100000e+00	  -3.1459949e-02	   6.8248313e-01	   6.6819454e-01	
   6.7650000e+00	  -4.8540432e-02	   6.7125374e-01	   6.5995383e-01	
   6.8200000e+00	  -6.5558068e-02	   6.5949399e-01	   6.5134426e-01	
   6.8750000e+00	  -8.2474064e-02	   6.4712721e-01	   6.4231535e-01	
   6.9300000e+00	  -9.9257622e-02	   6.3406727e-01	   6.3281843e-01	
   6.9850000e+00	  -1.1587784e-01	   6.2022514e-01	   6.2280867e-01	
   7.0400000e+00	  -1.3229793e-01	   6.0551503e-01	   6.1224702e-01	
   7.0950000e+00	  -1.4847240e-01	   5.8985968e-01	   6.0110222e-01	
   7.1500000e+00	  -1.6434782e-01	   5.7319440e-01	   5.8935195e-01	
   7.2050000e+00	  -1.7986775e-01	   5.5546954e-01	   5.7698193e-01	
   7.2600000e+00	  -1.9498101e-01	   5.3665175e-01	   5.6398363e-01	
   7.3150000e+00	  -2.0965099e-01	   5.1672482e-01	   5.5035191e-01	
   7.3700000e+00	  -2.2386342e-01	   4.9568996e-01	   5.3608256e-01	
   7.4250000e+00	  -2.3763026e-01	   4.7356532e-01	   5.2116906e-01	
   7.4800000e+00	  -2.5098851e-01	   4.5038451e-01	   5.0559954e-01	
   7.5350000e+00	  -2.6399456e-01	   4.2619379e-01	   4.8935644e-01	
   7.5900000e+00	  -2.7671626e-01	   4.0104805e-01	   4.7241976e-01	
   7.6450000e+00	  -2.8922542e-01	   3.7500728e-01	   4.5477236e-01	
   7.7000000e+00	  -3.0159251e-01	   3.4813515e-01	   4.3640468e-01	
   7.7550000e+00	  -3.1388343e-01	   3.2050075e-01	   4.1731653e-01	
   7.8100000e+00	  -3.2615741e-01	   2.9218348e-01	   3.9751573e-01	
   7.8650000e+00	  -3.3846497e-01	   2.6327983e-01	   3.7701537e-01	
   7.9200000e+00	  -3.5084578e-01	   2.3390990e-01	   3.5583225e-01	
   7.9750000e+00	  -3.6332558e-01	   2.0422224e-01	   3.3398936e-01	
   8.0300000e+00	  -3.7591111e-01	   1.7439750e-01	   3.1152350e-01	
   8.0850000e+00	  -3.8858291e-01	   1.4465208e-01	   2.8849643e-01	
   8.1400000e+00	  -4.0128707e-01	   1.1524162e-01	   2.6500552e-01	
   8.1950000e+00	  -4.1392773e-01	   8.6463595e-02	   2.4119090e-01	
   8.2500000e+00	  -4.2636185e-01	   5.8657568e-02	   2.1723767e-01	
   8.3050000e+00	  -4.3839876e-01	   3.2202217e-02	   1.9337389e-01	
   8.3600000e+00	  -4.4980634e-01	   7.5077827e-03	   1.6986498e-01	
   8.4150000e+00	  -4.6032397e-01	  -1.4997023e-02	   1.4700424e-01	
   8.4700000e+00	  -4.6968104e-01	  -3.4884339e-02	   1.2509786e-01	
   8.5250000e+00	  -4.7761852e-01	  -5.1751776e-02	   1.0444497e-01	
   8.5800000e+00	  -4.8391090e-01	  -6.5248862e-02	   8.5315629e-02	
   8.6350000e+00	  -4.8838477e-01	  -7.5101125e-02	   6.7930793e-02	
   8.6900000e+00	  -4.9093114e-01	  -8.1129522e-02	   5.2447535e-02	
   8.7450000e+00	  -4.9151061e-01	  -8.3264521e-02	   3.8951184e-02	
   8.8000000e+00	  -4.9015155e-01	  -8.1554300e-02	   2.7455274e-02	
   8.8550000e+00	  -4.8694310e-01	  -7.6166554e-02	   1.7907968e-02	
   8.9100000e+00	  -4.8202561e-01	  -6.7384066e-02	   1.0202146e-02	
   8.9650000e+00	  -4.7558070e-01	  -5.5594762e-02	   4.1868526e-03	
   9.0200000e+00	  -4.6782204e-01	  -4.1276620e-02	  -3.2080647e-04	
   9.0750000e+00	  -4.5898612e-01	  -2.4976520e-02	  -3.5232156e-03	
   9.1300000e+00	  -4.4932293e-01	  -7.2824635e-03	  -5.6290732e-03	
   9.1850000e+00	  -4.3908630e-01	   1.1207793e-02	  -6.8402539e-03	
   9.2400000e+00	  -4.2852520e-01	   2.9915697e-02	  -7.3401552e-03	
   9.2950000e+00	  -4.1787598e-01	   4.8304438e-02	  -7.2839299e-03	
   9.3500000e+00	  -4.0735501e-01	   6.5895335e-02	  -6.7899640e-03	
   9.4050000e+00	  -3.9715134e-01	   8.2279551e-02	  -5.9328536e-03	
   9.4600000e+00	  -3.8741980e-01	   9.7124969e-02	  -4.7394988e-03	
   9.5150000e+00	  -3.7827599e-01	   1.1017793e-01	  -3.1897293e-03	
   9.5700000e+00	  -3.6979444e-01	   1.2126130e-01	  -1.2215232e-03	
   9.6250000e+00	  -3.6201037e-01	   1.3027088e-01	   1.2599491e-03	
   9.6800000e+00	  -3.5492507e-01	   1.3717085e-01	   4.3704348e-03	
   9.7350000e+00	  -3.4851425e-01	   1.4198766e-01	   8.2332666e-03	
   9.7900000e+00	  -3.4273781e-01	   1.4480183e-01	   1.2966301e-02	
   9.8450000e+00	  -3.3754950e-01	   1.4573773e-01	   1.8670644e-02	
   9.9000000e+00	  -3.3290493e-01	   1.4495212e-01	   2.5422574e-02	
   9.9550000e+00	  -3.2876660e-01	   1.4262285e-01	   3.3269921e-02	
   1.0010000e+01	  -3.2510448e-01	   1.3893858e-01	   4.2232898e-02	
   1.0065000e+01	  -3.2189278e-01	   1.3408984e-01	   5.2307035e-02	
   1.0120000e+01	  -3.1910453e-01	   1.2826225e-01	   6.3464876e-02	
   1.0175000e+01	  -3.1670612e-01	   1.2163274e-01	   7.5655226e-02	
   1.0230000e+01	  -3.1465360e-01	   1.1436651e-01	   8.8801296e-02	
   1.0285000e+01	  -3.1289172e-01	   1.0661125e-01	   1.0279897e-01	
   1.0340000e+01	  -3.1135629e-01	   9.8487799e-02	   1.1751525e-01	
   1.0395000e+01	  -3.0997855e-01	   9.0081308e-02	   1.3278775e-01	
   1.0450000e+01	  -3.0868953e-01	   8.1438923e-02	   1.4842784e-01	
   1.0505000e+01	  -3.0742356e-01	   7.2576149e-02	   1.6422951e-01	
   1.0560000e+01	  -3.0612129e-01	   6.3488350e-02	   1.7998236e-01	
   1.0615000e+01	  -3.0473222e-01	   5.4161973e-02	   1.9548546e-01	
   1.0670000e+01	  -3.0321568e-01	   4.4582464e-02	   2.1055977e-01	
   1.0725000e+01	  -3.0154030e-01	   3.4737966e-02	   2.2505749e-01	
   1.0780000e+01	  -2.9968387e-01	   2.4618807e-02	   2.3886658e-01	
   1.0835000e+01	  -2.9763520e-01	   1.4213526e-02	   2.5190918e-01	
   1.0890000e+01	  -2.9539815e-01	   3.5024406e-03	   2.6413448e-01	
   1.0945000e+01	  -2.9299587e-01	  -7.5492074e-03	   2.7550846e-01	
   1.1000000e+01	  -2.9047339e-01	  -1.8994589e-02	   2.8600357e-01	
   1.1055000e+01	  -2.8789673e-01	  -3.0901461e-02	   2.9559045e-01	
   1.1110000e+01	  -2.8534862e-01	  -4.3340910e-02	   3.0423405e-01	
   1.1165000e+01	  -2.8292164e-01	  -5.6371742e-02	   3.1189512e-01	
   1.1220000e+01	  -2.8070952e-01	  -7.0024787e-02	   3.1853643e-01	
   1.1275000e+01	  -2.7879734e-01	  -8.4290878e-02	   3.2413186e-01	
   1.1330000e+01	  -2.7725192e-01	  -9.9115511e-02	   3.2867615e-01	
   1.1385000e+01	  -2.7611533e-01	  -1.1440197e-01	   3.3219224e-01	
   1.1440000e+01	  -2.7540355e-01	  -1.3002322e-01	   3.3473475e-01	
   1.1495000e+01	  -2.7511064e-01	  -1.4584111e-01	   3.3638960e-01	
   1.1550000e+01	  -2.7521670e-01	  -1.6172869e-01	   3.3727047e-01	
   1.1605000e+01	  -2.7569670e-01	  -1.7758840e-01	   3.3751288e-01	
   1.1660000e+01	  -2.7652686e-01	  -1.9335870e-01	   3.3726719e-01	
   1.1715000e+01	  -2.7768599e-01	  -2.0900639e-01	   3.3669086e-01	
   1.1770000e+01	  -2.7915210e-01	  -2.2450851e-01	   3.3594025e-01	
   1.1825000e+01	  -2.8089646e-01	  -2.3983236e-01	   3.3516293e-01	
   1.1880000e+01	  -2.8287791e-01	  -2.5492110e-01	   3.3449200e-01	
   1.1935000e+01	  -2.8503879e-01	  -2.6968766e-01	   3.3404360e-01	
   1.1990000e+01	  -2.8730333e-01	  -2.8401584e-01	   3.3391698e-01	
   1.2045000e+01	  -2.8957952e-01	  -2.9776827e-01	   3.3419438e-01	
   1.2100000e+01	  -2.9176414e-01	  -3.1079945e-01	   3.3493891e-01	
   1.2155000e+01	  -2.9374925e-01	  -3.2296999e-01	   3.3619176e-01	
   1.2210000e+01	  -2.9542821e-01	  -3.3415780e-01	   3.3797109e-01	
   1.2265000e+01	  -2.9670086e-01	  -3.4426522e-01	   3.4027284e-01	
   1.2320000e+01	  -2.9747840e-01	  -3.5322339e-01	   3.4307132e-01	
   1.2375000e+01	  -2.9768823e-01	  -3.6099366e-01	   3.4631881e-01	
   1.2430000e+01	  -2.9727844e-01	  -3.6756612e-01	   3.4994477e-01	
   1.2485000e+01	  -2.9622129e-01	  -3.7295626e-01	   3.5385569e-01	
   1.2540000e+01	  -2.9451451e-01	  -3.7720176e-01	   3.5793700e-01	
   1.2595000e+01	  -2.9217920e-01	  -3.8035965e-01	   3.6205869e-01	
   1.2650000e+01	  -2.8925398e-01	  -3.8250380e-01	   3.6608448e-01	
   1.2705000e+01	  -2.8578712e-01	  -3.8372205e-01	   3.6988198e-01	
   1.2760000e+01	  -2.8182925e-01	  -3.8411349e-01	   3.7333109e-01	
   1.2815000e+01	  -2.7742825e-01	  -3.8378641e-01	   3.7633000e-01	
   1.2870000e+01	  -2.7262707e-01	  -3.8285740e-01	   3.7879969e-01	
   1.2925000e+01	  -2.6746444e-01	  -3.8145070e-01	   3.8068670e-01	
   1.2980000e+01	  -2.6197791e-01	  -3.7969673e-01	   3.8196264e-01	
   1.3035000e+01	  -2.5620737e-01	  -3.7772866e-01	   3.8261963e-01	
   1.3090000e+01	  -2.5019696e-01	  -3.7567655e-01	   3.8266256e-01	
   1.3145000e+01	  -2.4399369e-01	  -3.7365967e-01	   3.8210061e-01	
   1.3200000e+01	  -2.3764247e-01	  -3.7177845e-01	   3.8094095e-01	
   1.3255000e+01	  -2.3117881e-01	  -3.7010702e-01	   3.7918619e-01	
   1.3310000e+01	  -2.2462128e-01	  -3.6868811e-01	   3.7683661e-01	
   1.3365000e+01	  -2.1796669e-01	  -3.6753149e-01	   3.7389576e-01	
   1.3420000e+01	  -2.1118937e-01	  -3.6661642e-01	   3.7037640e-01	
   1.3475000e+01	  -2.0424495e-01	  -3.6589717e-01	   3.6630277e-01	
   1.3530000e+01	  -1.9707787e-01	  -3.6530975e-01	   3.6170804e-01	
   1.3585000e+01	  -1.8963136e-01	  -3.6477915e-01	   3.5662895e-01	
   1.3640000e+01	  -1.8185844e-01	  -3.6422670e-01	   3.5110151e-01	
   1.3695000e+01	  -1.7373188e-01	  -3.6357736e-01	   3.4516031e-01	
   1.3750000e+01	  -1.6525115e-01	  -3.6276530e-01	   3.3884089e-01	
   1.3805000e+01	  -1.5644507e-01	  -3.6173688e-01	   3.3218311e-01	
   1.3860000e+01	  -1.4736914e-01	  -3.6045112e-01	   3.2523441e-01	
   1.3915000e+01	  -1.3809736e-01	  -3.5887870e-01	   3.1805449e-01	
   1.3970000e+01	  -1.2870974e-01	  -3.5699990e-01	   3.1072261e-01	
   1.4025000e+01	  -1.1927866e-01	  -3.5480169e-01	   3.0334569e-01	
   1.4080000e+01	  -1.0985752e-01	  -3.5227515e-01	   2.9606285e-01	
   1.4135000e+01	  -1.0047404e-01	  -3.4941377e-01	   2.8904344e-01	
   1.4190000e+01	  -9.1128750e-02	  -3.4621241e-01	   2.8247814e-01	
   1.4245000e+01	  -8.1798255e-02	  -3.4266627e-01	   2.7656437e-01	
   1.4300000e+01	  -7.2442714e-02	  -3.3876944e-01	   2.7148771e-01	
   1.4355000e+01	  -6.3016029e-02	  -3.3451306e-01	   2.6740212e-01	
   1.4410000e+01	  -5.3477586e-02	  -3.2988373e-01	   2.6441268e-01	
   1.4465000e+01	  -4.3804489e-02	  -3.2486337e-01	   2.6256274e-01	
   1.4520000e+01	  -3.4002663e-02	  -3.1943130e-01	   2.6182606e-01	
   1.4575000e+01	  -2.4114169e-02	  -3.1356787e-01	   2.6210404e-01	
   1.4630000e+01	  -1.4218167e-02	  -3.0725792e-01	   2.6322958e-01	
   1.4685000e+01	  -4.4249939e-03	  -3.0049354e-01	   2.6497821e-01	
   1.4740000e+01	   5.1345982e-03	  -2.9327719e-01	   2.6708555e-01	
   1.4795000e+01	   1.4321977e-02	  -2.8562591e-01	   2.6926834e-01	
   1.4850000e+01	   2.3002555e-02	  -2.7757602e-01	   2.7124621e-01	
   1.4905000e+01	   3.1055620e-02	  -2.6918662e-01	   2.7276138e-01	
   1.4960000e+01	   3.8381033e-02	  -2.6053984e-01	   2.7359384e-01	
   1.5015000e+01	   4.4902260e-02	  -2.5173774e-01	   2.7357109e-01	
   1.5070000e+01	   5.0565711e-02	  -2.4289709e-01	   2.7257252e-01	
   1.5125000e+01	   5.5336760e-02	  -2.3414420e-01	   2.7052840e-01	
   1.5180000e+01	   5.9193057e-02	  -2.2561050e-01	   2.6741366e-01	
   1.5235000e+01	   6.2116403e-02	  -2.1742890e-01	   2.6323741e-01	
   1.5290000e+01	   6.4085490e-02	  -2.0973023e-01	   2.5803073e-01	
   1.5345000e+01	   6.5071865e-02	  -2.0263932e-01	   2.5183566e-01	
   1.5400000e+01	   6.5040575e-02	  -1.9627072e-01	   2.4469779e-01	
   1.5455000e+01	   6.3955980e-02	  -1.9072405e-01	   2.3666340e-01	
   1.5510000e+01	   6.1792122e-02	  -1.8607857e-01	   2.2778048e-01	
   1.5565000e+01	   5.8545040e-02	  -1.8238678e-01	   2.1810252e-01	
   1.5620000e+01	   5.4243231e-02	  -1.7966882e-01	   2.0769356e-01	
   1.5675000e+01	   4.8954161e-02	  -1.7790931e-01	   1.9663349e-01	
   1.5730000e+01	   4.2786939e-02	  -1.7705607e-01	   1.8502267e-01	
   1.5785000e+01	   3.5891486e-02	  -1.7702004e-01	   1.7298468e-01	
   1.5840000e+01	   2.8453576e-02	  -1.7767676e-01	   1.6066677e-01	
   1.5895000e+01	   2.0685444e-02	  -1.7887039e-01	   1.4823765e-01	
   1.5950000e+01	   1.2812704e-02	  -1.8042037e-01	   1.3588234e-01	
   1.6005000e+01	   5.0586961e-03	  -1.8213031e-01	   1.2379278e-01	
   1.6060000e+01	  -2.3724394e-03	  -1.8379842e-01	   1.1215444e-01	
   1.6115000e+01	  -9.3117518e-03	  -1.8522893e-01	   1.0113177e-01	
   1.6170000e+01	  -1.5637548e-02	  -1.8624308e-01	   9.0855413e-02	
   1.6225000e+01	  -2.1281052e-02	  -1.8668855e-01	   8.1413175e-02	
   1.6280000e+01	  -2.6224780e-02	  -1.8644668e-01	   7.2846448e-02	
   1.6335000e+01	  -3.0494751e-02	  -1.8543700e-01	   6.5153109e-02	
   1.6390000e+01	  -3.4149406e-02	  -1.8361906e-01	   5.8295381e-02	
   1.6445000e+01	  -3.7268605e-02	  -1.8099236e-01	   5.2208939e-02	
   1.6500000e+01	  -3.9944758e-02	  -1.7759540e-01	   4.6810800e-02	
   1.6555000e+01	  -4.2276356e-02	  -1.7350343e-01	   4.2005797e-02	
   1.6610000e+01	  -4.4363609e-02	  -1.6882421e-01	   3.7692054e-02	
   1.6665000e+01	  -4.6306162e-02	  -1.6369269e-01	   3.3765242e-02	
   1.6720000e+01	  -4.8202654e-02	  -1.5826635e-01	   3.0121046e-02	
   1.6775000e+01	  -5.0151224e-02	  -1.5272124e-01	   2.6655904e-02	
   1.6830000e+01	  -5.2249516e-02	  -1.4724679e-01	   2.3267261e-02	
   1.6885000e+01	  -5.4592974e-02	  -1.4203759e-01	   1.9855195e-02	
   1.6940000e+01	  -5.7270598e-02	  -1.3728219e-01	   1.6327244e-02	
   1.6995000e+01	  -6.0357705e-02	  -1.3314978e-01	   1.2607473e-02	
   1.7050000e+01	  -6.3906233e-02	  -1.2977686e-01	   8.6479740e-03	
   1.7105000e+01	  -6.7934865e-02	  -1.2725710e-01	   4.4380023e-03	
   1.7160000e+01	  -7.2422144e-02	  -1.2563716e-01	   6.2336279e-06	
   1.7215000e+01	  -7.7304825e-02	  -1.2491846e-01	  -4.5846599e-03	
   1.7270000e+01	  -8.2482133e-02	  -1.2506249e-01	  -9.2487188e-03	
   1.7325000e+01	  -8.7825367e-02	  -1.2599791e-01	  -1.3889565e-02	
   1.7380000e+01	  -9.3191490e-02	  -1.2762880e-01	  -1.8412934e-02	
   1.7435000e+01	  -9.8438773e-02	  -1.2984302e-01	  -2.2737115e-02	
   1.7490000e+01	  -1.0344262e-01	  -1.3252013e-01	  -2.6800556e-02	
   1.7545000e+01	  -1.0811011e-01	  -1.3553893e-01	  -3.0567108e-02	
   1.7600000e+01	  -1.1239139e-01	  -1.3878491e-01	  -3.4029309e-02	
   1.7655000e+01	  -1.1628540e-01	  -1.4215566e-01	  -3.7208105e-02	
   1.7710000e+01	  -1.1983722e-01	  -1.4556132e-01	  -4.0146930e-02	
   1.7765000e+01	  -1.2312746e-01	  -1.4892036e-01	  -4.2901060e-02	
   1.7820000e+01	  -1.2625625e-01	  -1.5215350e-01	  -4.5525729e-02	
   1.7875000e+01	  -1.2932607e-01	  -1.5517919e-01	  -4.8065308e-02	
   1.7930000e+01	  -1.3242617e-01	  -1.5791158e-01	  -5.0544233e-02	
   1.7985000e+01	  -1.3562083e-01	  -1.6026140e-01	  -5.2961304e-02	
   1.8040000e+01	  -1.3894295e-01	  -1.6213918e-01	  -5.5289812e-02	
   1.8095000e+01	  -1.4239354e-01	  -1.6346022e-01	  -5.7483699e-02	
   1.8150000e+01	  -1.4594645e-01	  -1.6414983e-01	  -5.9487117e-02	
   1.8205000e+01	  -1.4955728e-01	  -1.6414819e-01	  -6.1244980e-02	
   1.8260000e+01	  -1.5317477e-01	  -1.6341440e-01	  -6.2713756e-02	
   1.8315000e+01	  -1.5675283e-01	  -1.6192977e-01	  -6.3871521e-02	
   1.8370000e+01	  -1.6026136e-01	  -1.5970037e-01	  -6.4725096e-02	
   1.8425000e+01	  -1.6369529e-01	  -1.5675861e-01	  -6.5312810e-02	
   1.8480000e+01	  -1.6708068e-01	  -1.5316313e-01	  -6.5703004e-02	
   1.8535000e+01	  -1.7047654e-01	  -1.4899636e-01	  -6.5988751e-02	
   1.8590000e+01	  -1.7397033e-01	  -1.4435994e-01	  -6.6279352e-02	
   1.8645000e+01	  -1.7766738e-01	  -1.3936864e-01	  -6.6690128e-02	
   1.8700000e+01	  -1.8167638e-01	  -1.3414319e-01	  -6.7332554e-02	
   1.8755000e+01	  -1.8609394e-01	  -1.2880186e-01	  -6.8305786e-02	
   1.8810000e+01	  -1.9099081e-01	  -1.2345129e-01	  -6.9689679e-02	
   1.8865000e+01	  -1.9640192e-01	  -1.1817839e-01	  -7.1539474e-02	
   1.8920000e+01	  -2.0232156e-01	  -1.1304551e-01	  -7.3882487e-02	
   1.8975000e+01	  -2.0870423e-01	  -1.0808977e-01	  -7.6717228e-02	
   1.9030000e+01	  -2.1547052e-01	  -1.0332595e-01	  -8.0015788e-02	
   1.9085000e+01	  -2.2251684e-01	  -9.8751710e-02	  -8.3730161e-02	
   1.9140000e+01	  -2.2972678e-01	  -9.4353217e-02	  -8.7801792e-02	
   1.9195000e+01	  -2.3698222e-01	  -9.0109449e-02	  -9.2171937e-02	
   1.9250000e+01	  -2.4417221e-01	  -8.5994987e-02	  -9.6789570e-02	
   1.9305000e+01	  -2.5119806e-01	  -8.1982047e-02	  -1.0161436e-01	
   1.9360000e+01	  -2.5797321e-01	  -7.8042670e-02	  -1.0661450e-01	
   1.9415000e+01	  -2.6441802e-01	  -7.4151460e-02	  -1.1176061e-01	
   1.9470000e+01	  -2.7045119e-01	  -7.0288663e-02	  -1.1701716e-01	
   1.9525000e+01	  -2.7598133e-01	  -6.6442808e-02	  -1.2233353e-01	
   1.9580000e+01	  -2.8090169e-01	  -6.2612031e-02	  -1.2763775e-01	
   1.9635000e+01	  -2.8508974e-01	  -5.8804007e-02	  -1.3283498e-01	
   1.9690000e+01	  -2.8841194e-01	  -5.5035607e-02	  -1.3781121e-01	
   1.9745000e+01	  -2.9073293e-01	  -5.1333562e-02	  -1.4244155e-01	
   1.9800000e+01	  -2.9192799e-01	  -4.7736146e-02	  -1.4660124e-01	
   1.9855000e+01	  -2.9189605e-01	  -4.4294216e-02	  -1.5017701e-01	
   1.9910000e+01	  -2.9057107e-01	  -4.1070064e-02	  -1.5307661e-01	
   1.9965000e+01	  -2.8793040e-01	  -3.8134507e-02	  -1.5523627e-01	
   2.0020000e+01	  -2.8399934e-01	  -3.5563728e-02	  -1.5662676e-01	
   2.0075000e+01	  -2.7885001e-01	  -3.3435852e-02	  -1.5725725e-01	
   2.0130000e+01	  -2.7259325e-01	  -3.1825951e-02	  -1.5717462e-01	
   2.0185000e+01	  -2.6536520e-01	  -3.0799816e-02	  -1.5645670e-01	
   2.0240000e+01	  -2.5731249e-01	  -3.0408425e-02	  -1.5520093e-01	
   2.0295000e+01	  -2.4857984e-01	  -3.0684084e-02	  -1.5351176e-01	
   2.0350000e+01	  -2.3930149e-01	  -3.1637849e-02	  -1.5149012e-01	
   2.0405000e+01	  -2.2959668e-01	  -3.3258271e-02	  -1.4922674e-01	
   2.0460000e+01	  -2.1956970e-01	  -3.5511830e-02	  -1.4679989e-01	
   2.0515000e+01	  -2.0931413e-01	  -3.8344387e-02	  -1.4427689e-01	
   2.0570000e+01	  -1.9891946e-01	  -4.1682886e-02	  -1.4171769e-01	
   2.0625000e+01	  -1.8847799e-01	  -4.5437558e-02	  -1.3917892e-01	
   2.0680000e+01	  -1.7808999e-01	  -4.9505130e-02	  -1.3671755e-01	
   2.0735000e+01	  -1.6786631e-01	  -5.3772723e-02	  -1.3439387e-01	
   2.0790000e+01	  -1.5792701e-01	  -5.8122005e-02	  -1.3227318e-01	
   2.0845000e+01	  -1.4839542e-01	  -6.2433867e-02	  -1.3042451e-01	
   2.0900000e+01	  -1.3938905e-01	  -6.6594122e-02	  -1.2891577e-01	
   2.0955000e+01	  -1.3101006e-01	  -7.0499686e-02	  -1.2780689e-01	
   2.1010000e+01	  -1.2333741e-01	  -7.4063691e-02	  -1.2714339e-01	
   2.1065000e+01	  -1.1642143e-01	  -7.7218439e-02	  -1.2695179e-01	
   2.1120000e+01	  -1.1028118e-01	  -7.9916526e-02	  -1.2723705e-01	
   2.1175000e+01	  -1.0490509e-01	  -8.2130874e-02	  -1.2798154e-01	
   2.1230000e+01	  -1.0025431e-01	  -8.3853874e-02	  -1.2914549e-01	
   2.1285000e+01	  -9.6268473e-02	  -8.5096053e-02	  -1.3066897e-01	
   2.1340000e+01	  -9.2873434e-02	  -8.5885091e-02	  -1.3247518e-01	
   2.1395000e+01	  -8.9990616e-02	  -8.6264901e-02	  -1.3447440e-01	
   2.1450000e+01	  -8.7545838e-02	  -8.6293090e-02	  -1.3656788e-01	
   2.1505000e+01	  -8.5474949e-02	  -8.6035950e-02	  -1.3865096e-01	
   2.1560000e+01	  -8.3724831e-02	  -8.5561746e-02	  -1.4061482e-01	
   2.1615000e+01	  -8.2250086e-02	  -8.4933354e-02	  -1.4234635e-01	
   2.1670000e+01	  -8.1007372e-02	  -8.4200809e-02	  -1.4372652e-01	
   2.1725000e+01	  -7.9950215e-02	  -8.3394570e-02	  -1.4463010e-01	
   2.1780000e+01	  -7.9026482e-02	  -8.2520784e-02	  -1.4492915e-01	
   2.1835000e+01	  -7.8179177e-02	  -8.1559975e-02	  -1.4450006e-01	
   2.1890000e+01	  -7.7350208e-02	  -8.0470153e-02	  -1.4323112e-01	
   2.1945000e+01	  -7.6486557e-02	  -7.9193968e-02	  -1.4102882e-01	
   2.2000000e+01	  -7.5548132e-02	  -7.7668271e-02	  -1.3782338e-01	
   2.2055000e+01	  -7.4515740e-02	  -7.5834072e-02	  -1.3357394e-01	
   2.2110000e+01	  -7.3397004e-02	  -7.3645093e-02	  -1.2827356e-01	
   2.2165000e+01	  -7.2228622e-02	  -7.1073593e-02	  -1.2195356e-01	
   2.2220000e+01	  -7.1074440e-02	  -6.8113240e-02	  -1.1468602e-01	
   2.2275000e+01	  -7.0019303e-02	  -6.4779616e-02	  -1.0658176e-01	
   2.2330000e+01	  -6.9159036e-02	  -6.1108810e-02	  -9.7782806e-02	
   2.2385000e+01	  -6.8588222e-02	  -5.7154466e-02	  -8.8451294e-02	
   2.2440000e+01	  -6.8388753e-02	  -5.2984254e-02	  -7.8759561e-02	
   2.2495000e+01	  -6.8621887e-02	  -4.8676891e-02	  -6.8884464e-02	
   2.2550000e+01	  -6.9324825e-02	  -4.4319950e-02	  -5.9004370e-02	
   2.2605000e+01	  -7.0511361e-02	  -4.0007884e-02	  -4.9295583e-02	
   2.2660000e+01	  -7.2175812e-02	  -3.5839446e-02	  -3.9927519e-02	
   2.2715000e+01	  -7.4299300e-02	  -3.1913836e-02	  -3.1058211e-02	
   2.2770000e+01	  -7.6856949e-02	  -2.8325559e-02	  -2.2831341e-02	
   2.2825000e+01	  -7.9824734e-02	  -2.5158991e-02	  -1.5375453e-02	
   2.2880000e+01	  -8.3185275e-02	  -2.2483832e-02	  -8.8054770e-03	
   2.2935000e+01	  -8.6931616e-02	  -2.0351757e-02	  -3.2249160e-03	
   2.2990000e+01	  -9.1067367e-02	  -1.8793531e-02	   1.2747689e-03	
   2.3045000e+01	  -9.5602499e-02	  -1.7816566e-02	   4.6197118e-03	
   2.3100000e+01	  -1.0054629e-01	  -1.7404664e-02	   6.7625931e-03	
   2.3155000e+01	  -1.0589978e-01	  -1.7521332e-02	   7.6913913e-03	
   2.3210000e+01	  -1.1164929e-01	  -1.8115871e-02	   7.4353898e-03	
   2.3265000e+01	  -1.1776214e-01	  -1.9130488e-02	   6.0672246e-03	
   2.3320000e+01	  -1.2418594e-01	  -2.0506897e-02	   3.7000661e-03	
   2.3375000e+01	  -1.3085197e-01	  -2.2190693e-02	   4.7964362e-04	
   2.3430000e+01	  -1.3768172e-01	  -2.4132340e-02	  -3.4281294e-03	
   2.3485000e+01	  -1.4459561e-01	  -2.6285570e-02	  -7.8525519e-03	
   2.3540000e+01	  -1.5152331e-01	  -2.8605336e-02	  -1.2634695e-02	
   2.3595000e+01	  -1.5841453e-01	  -3.1046845e-02	  -1.7642512e-02	
   2.3650000e+01	  -1.6524872e-01	  -3.3565992e-02	  -2.2781942e-02	
   2.3705000e+01	  -1.7204191e-01	  -3.6120623e-02	  -2.8003167e-02	
   2.3760000e+01	  -1.7884930e-01	  -3.8671406e-02	  -3.3302584e-02	
   2.3815000e+01	  -1.8576230e-01	  -4.1181336e-02	  -3.8719823e-02	
   2.3870000e+01	  -1.9289874e-01	  -4.3614342e-02	  -4.4327585e-02	
   2.3925000e+01	  -2.0038780e-01	  -4.5934674e-02	  -5.0214364e-02	
   2.3980000e+01	  -2.0835341e-01	  -4.8108172e-02	  -5.6464889e-02	
   2.4035000e+01	  -2.1689998e-01	  -5.0104582e-02	  -6.3144630e-02	
   2.4090000e+01	  -2.2610195e-01	  -5.1898795e-02	  -7.0291462e-02	
   2.4145000e+01	  -2.3599700e-01	  -5.3470203e-02	  -7.7913998e-02	
   2.4200000e+01	  -2.4658282e-01	  -5.4801952e-02	  -8.5994436e-02	
   2.4255000e+01	  -2.5781759e-01	  -5.5882210e-02	  -9.4492963e-02	
   2.4310000e+01	  -2.6962380e-01	  -5.6707421e-02	  -1.0335126e-01	
   2.4365000e+01	  -2.8189508e-01	  -5.7286216e-02	  -1.1249517e-01	
   2.4420000e+01	  -2.9450572e-01	  -5.7643646e-02	  -1.2183787e-01	
   2.4475000e+01	  -3.0732174e-01	  -5.7825434e-02	  -1.3128420e-01	
   2.4530000e+01	  -3.2021166e-01	  -5.7900621e-02	  -1.4073536e-01	
   2.4585000e+01	  -3.3305487e-01	  -5.7961089e-02	  -1.5009402e-01	
   2.4640000e+01	  -3.4574599e-01	  -5.8117939e-02	  -1.5926962e-01	
   2.4695000e+01	  -3.5819408e-01	  -5.8494878e-02	  -1.6818263e-01	
   2.4750000e+01	  -3.7031735e-01	  -5.9218627e-02	  -1.7676657e-01	
   2.4805000e+01	  -3.8203573e-01	  -6.0407986e-02	  -1.8496765e-01	
   2.4860000e+01	  -3.9326411e-01	  -6.2164558e-02	  -1.9274290e-01	
   2.4915000e+01	  -4.0390772e-01	  -6.4566822e-02	  -2.0005732e-01	
   2.4970000e+01	  -4.1386001e-01	  -6.7667151e-02	  -2.0688035e-01	
   2.5025000e+01	  -4.2300339e-01	  -7.1491028e-02	  -2.1318370e-01	
   2.5080000e+01	  -4.3121342e-01	  -7.6038217e-02	  -2.1894294e-01	
   2.5135000e+01	  -4.3836591e-01	  -8.1285198e-02	  -2.2414331e-01	
   2.5190000e+01	  -4.4434527e-01	  -8.7187477e-02	  -2.2878716e-01	
   2.5245000e+01	  -4.4905222e-01	  -9.3681094e-02	  -2.3290076e-01	
   2.5300000e+01	  -4.5241010e-01	  -1.0068403e-01	  -2.3653859e-01	
   2.5355000e+01	  -4.5436871e-01	  -1.0809797e-01	  -2.3978347e-01	
   2.5410000e+01	  -4.5490472e-01	  -1.1581000e-01	  -2.4274069e-01	
   2.5465000e+01	  -4.5401798e-01	  -1.2369435e-01	  -2.4552636e-01	
   2.5520000e+01	  -4.5172548e-01	  -1.3161463e-01	  -2.4825256e-01	
   2.5575000e+01	  -4.4805499e-01	  -1.3942699e-01	  -2.5101364e-01	
   2.5630000e+01	  -4.4304043e-01	  -1.4698393e-01	  -2.5387630e-01	
   2.5685000e+01	  -4.3671976e-01	  -1.5413874e-01	  -2.5687368e-01	
   2.5740000e+01	  -4.2913594e-01	  -1.6075100e-01	  -2.6000325e-01	
   2.5795000e+01	  -4.2034074e-01	  -1.6669335e-01	  -2.6322923e-01	
   2.5850000e+01	  -4.1040054e-01	  -1.7185922e-01	  -2.6649031e-01	
   2.5905000e+01	  -3.9940253e-01	  -1.7617012e-01	  -2.6971186e-01	
   2.5960000e+01	  -3.8745999e-01	  -1.7958148e-01	  -2.7282069e-01	
   2.6015000e+01	  -3.7471490e-01	  -1.8208595e-01	  -2.7575972e-01	
   2.6070000e+01	  -3.6133587e-01	  -1.8371250e-01	  -2.7849927e-01	
   2.6125000e+01	  -3.4751037e-01	  -1.8452183e-01	  -2.8104281e-01	
   2.6180000e+01	  -3.3343282e-01	  -1.8460021e-01	  -2.8342721e-01	
   2.6235000e+01	  -3.1929239e-01	  -1.8405374e-01	  -2.8571891e-01	
   2.6290000e+01	  -3.0526361e-01	  -1.8300271e-01	  -2.8800775e-01	
   2.6345000e+01	  -2.9150133e-01	  -1.8157488e-01	  -2.9039841e-01	
   2.6400000e+01	  -2.7813940e-01	  -1.7989761e-01	  -2.9300018e-01	
   2.6455000e+01	  -2.6529243e-01	  -1.7809075e-01	  -2.9591662e-01	
   2.6510000e+01	  -2.5305967e-01	  -1.7626144e-01	  -2.9923748e-01	
   2.6565000e+01	  -2.4153027e-01	  -1.7450105e-01	  -3.0303432e-01	
   2.6620000e+01	  -2.3078972e-01	  -1.7288367e-01	  -3.0736038e-01	
   2.6675000e+01	  -2.2092685e-01	  -1.7146580e-01	  -3.1225375e-01	
   2.6730000e+01	  -2.1204019e-01	  -1.7028728e-01	  -3.1774094e-01	
   2.6785000e+01	  -2.0424229e-01	  -1.6937307e-01	  -3.2383887e-01	
   2.6840000e+01	  -1.9766116e-01	  -1.6873566e-01	  -3.3055459e-01	
   2.6895000e+01	  -1.9243745e-01	  -1.6837767e-01	  -3.3788375e-01	
   2.6950000e+01	  -1.8871558e-01	  -1.6829314e-01	  -3.4580760e-01	
   2.7005000e+01	  -1.8662929e-01	  -1.6846630e-01	  -3.5428786e-01	
   2.7060000e+01	  -1.8628436e-01	  -1.6886903e-01	  -3.6326074e-01	
   2.7115000e+01	  -1.8774296e-01	  -1.6945905e-01	  -3.7263291e-01	
   2.7170000e+01	  -1.9101161e-01	  -1.7017982e-01	  -3.8228058e-01	
   2.7225000e+01	  -1.9603395e-01	  -1.7096241e-01	  -3.9205082e-01	
   2.7280000e+01	  -2.0268902e-01	  -1.7172986e-01	  -4.0176349e-01	
   2.7335000e+01	  -2.1079550e-01	  -1.7240373e-01	  -4.1121340e-01	
   2.7390000e+01	  -2.2012097e-01	  -1.7291067e-01	  -4.2017331e-01	
   2.7445000e+01	  -2.3039486e-01	  -1.7318814e-01	  -4.2839985e-01	
   2.7500000e+01	  -2.4132422e-01	  -1.7318943e-01	  -4.3564293e-01	
   2.7555000e+01	  -2.5261125e-01	  -1.7288784e-01	  -4.4165714e-01	
   2.7610000e+01	  -2.6397052e-01	  -1.7227945e-01	  -4.4621335e-01	
   2.7665000e+01	  -2.7514448e-01	  -1.7138397e-01	  -4.4911018e-01	
   2.7720000e+01	  -2.8591582e-01	  -1.7024292e-01	  -4.5018482e-01	
   2.7775000e+01	  -2.9611535e-01	  -1.6891418e-01	  -4.4932070e-01	
   2.7830000e+01	  -3.0562368e-01	  -1.6746220e-01	  -4.4644931e-01	
   2.7885000e+01	  -3.1436635e-01	  -1.6594673e-01	  -4.4154705e-01	
   2.7940000e+01	  -3.2230431e-01	  -1.6441400e-01	  -4.3463068e-01	
   2.7995000e+01	  -3.2942314e-01	  -1.6289244e-01	  -4.2575434e-01	
   2.8050000e+01	  -3.3572346e-01	  -1.6139207e-01	  -4.1500782e-01	
   2.8105000e+01	  -3.4121385e-01	  -1.5990643e-01	  -4.0251411e-01	
   2.8160000e+01	  -3.4590638e-01	  -1.5841726e-01	  -3.8842673e-01	
   2.8215000e+01	  -3.4981465e-01	  -1.5690109e-01	  -3.7292925e-01	
   2.8270000e+01	  -3.5295489e-01	  -1.5533690e-01	  -3.5623750e-01	
   2.8325000e+01	  -3.5535019e-01	  -1.5371344e-01	  -3.3860280e-01	
   2.8380000e+01	  -3.5703738e-01	  -1.5203571e-01	  -3.2031329e-01	
   2.8435000e+01	  -3.5807482e-01	  -1.5032992e-01	  -3.0168986e-01	
   2.8490000e+01	  -3.5854928e-01	  -1.4864539e-01	  -2.8307517e-01	
   2.8545000e+01	  -3.5858032e-01	  -1.4705301e-01	  -2.6481884e-01	
   2.8600000e+01	  -3.5832093e-01	  -1.4564066e-01	  -2.4726342e-01	
   2.8655000e+01	  -3.5795278e-01	  -1.4450695e-01	  -2.3073236e-01	
   2.8710000e+01	  -3.5767518e-01	  -1.4375314e-01	  -2.1551841e-01	
   2.8765000e+01	  -3.5768900e-01	  -1.4347390e-01	  -2.0187167e-01	
   2.8820000e+01	  -3.5817884e-01	  -1.4374838e-01	  -1.8998884e-01	
   2.8875000e+01	  -3.5929677e-01	  -1.4463349e-01	  -1.8000508e-01	
   2.8930000e+01	  -3.6114957e-01	  -1.4615964e-01	  -1.7198884e-01	
   2.8985000e+01	  -3.6379088e-01	  -1.4832900e-01	  -1.6593998e-01	
   2.9040000e+01	  -3.6721867e-01	  -1.5111655e-01	  -1.6179167e-01	
   2.9095000e+01	  -3.7137827e-01	  -1.5447340e-01	  -1.5941578e-01	
   2.9150000e+01	  -3.7616960e-01	  -1.5833060e-01	  -1.5863117e-01	
   2.9205000e+01	  -3.8145743e-01	  -1.6260176e-01	  -1.5921493e-01	
   2.9260000e+01	  -3.8708380e-01	  -1.6718445e-01	  -1.6091635e-01	
   2.9315000e+01	  -3.9288127e-01	  -1.7196199e-01	  -1.6347221e-01	
   2.9370000e+01	  -3.9868577e-01	  -1.7680560e-01	  -1.6662193e-01	
   2.9425000e+01	  -4.0434744e-01	  -1.8157717e-01	  -1.7012057e-01	
   2.9480000e+01	  -4.0973807e-01	  -1.8613294e-01	  -1.7374859e-01	
   2.9535000e+01	  -4.1475392e-01	  -1.9032884e-01	  -1.7731720e-01	
   2.9590000e+01	  -4.1931422e-01	  -1.9402704e-01	  -1.8066872e-01	
   2.9645000e+01	  -4.2335691e-01	  -1.9710346e-01	  -1.8367365e-01	
   2.9700000e+01	  -4.2683451e-01	  -1.9945630e-01	  -1.8622727e-01	
   2.9755000e+01	  -4.2971148e-01	  -2.0101384e-01	  -1.8824785e-01	
   2.9810000e+01	  -4.3196313e-01	  -2.0173881e-01	  -1.8967611e-01	
   2.9865000e+01	  -4.3357576e-01	  -2.0162823e-01	  -1.9047528e-01	
   2.9920000e+01	  -4.3454815e-01	  -2.0071114e-01	  -1.9063147e-01	
   2.9975000e+01	  -4.3489455e-01	  -1.9904575e-01	  -1.9015409e-01	
   3.0030000e+01	  -4.3464830e-01	  -1.9671571e-01	  -1.8907585e-01	
   3.0085000e+01	  -4.3386543e-01	  -1.9382419e-01	  -1.8745252e-01	
   3.0140000e+01	  -4.3262711e-01	  -1.9048722e-01	  -1.8536267e-01	
   3.0195000e+01	  -4.3103895e-01	  -1.8682768e-01	  -1.8290617e-01	
   3.0250000e+01	  -4.2922494e-01	  -1.8297085e-01	  -1.8019911e-01	
   3.0305000e+01	  -4.2731595e-01	  -1.7904083e-01	  -1.7736397e-01	
   3.0360000e+01	  -4.2543539e-01	  -1.7515719e-01	  -1.7451644e-01	
   3.0415000e+01	  -4.2368586e-01	  -1.7143192e-01	  -1.7175329e-01	
   3.0470000e+01	  -4.2213939e-01	  -1.6796706e-01	  -1.6914528e-01	
   3.0525000e+01	  -4.2083205e-01	  -1.6485329e-01	  -1.6673601e-01	
   3.0580000e+01	  -4.1976302e-01	  -1.6216904e-01	  -1.6454502e-01	
   3.0635000e+01	  -4.1889798e-01	  -1.5997948e-01	  -1.6257252e-01	
   3.0690000e+01	  -4.1817594e-01	  -1.5833489e-01	  -1.6080413e-01	
   3.0745000e+01	  -4.1751824e-01	  -1.5726802e-01	  -1.5921506e-01	
   3.0800000e+01	  -4.1683884e-01	  -1.5679126e-01	  -1.5777445e-01	
   3.0855000e+01	  -4.1605546e-01	  -1.5689482e-01	  -1.5645021e-01	
   3.0910000e+01	  -4.1510083e-01	  -1.5754612e-01	  -1.5521390e-01	
   3.0965000e+01	  -4.1393119e-01	  -1.5868946e-01	  -1.5404389e-01	
   3.1020000e+01	  -4.1252958e-01	  -1.6024592e-01	  -1.5292626e-01	
   3.1075000e+01	  -4.1090264e-01	  -1.6211395e-01	  -1.5185286e-01	
   3.1130000e+01	  -4.0907227e-01	  -1.6417019e-01	  -1.5081691e-01	
   3.1185000e+01	  -4.0706467e-01	  -1.6627121e-01	  -1.4980683e-01	
   3.1240000e+01	  -4.0490002e-01	  -1.6825783e-01	  -1.4879999e-01	
   3.1295000e+01	  -4.0258483e-01	  -1.6996297e-01	  -1.4775780e-01	
   3.1350000e+01	  -4.0010750e-01	  -1.7122098e-01	  -1.4662326e-01	
   3.1405000e+01	  -3.9743704e-01	  -1.7187611e-01	  -1.4532119e-01	
   3.1460000e+01	  -3.9452492e-01	  -1.7178965e-01	  -1.4376138e-01	
   3.1515000e+01	  -3.9131010e-01	  -1.7084652e-01	  -1.4184424e-01	
   3.1570000e+01	  -3.8772670e-01	  -1.6896119e-01	  -1.3946859e-01	
   3.1625000e+01	  -3.8371336e-01	  -1.6608248e-01	  -1.3654112e-01	
   3.1680000e+01	  -3.7922414e-01	  -1.6219689e-01	  -1.3298708e-01	
   3.1735000e+01	  -3.7424020e-01	  -1.5732986e-01	  -1.2876099e-01	
   3.1790000e+01	  -3.6878024e-01	  -1.5154416e-01	  -1.2385509e-01	
   3.1845000e+01	  -3.6290677e-01	  -1.4493441e-01	  -1.1830372e-01	
   3.1900000e+01	  -3.5672637e-01	  -1.3761812e-01	  -1.1218268e-01	
   3.1955000e+01	  -3.5038304e-01	  -1.2972594e-01	  -1.0560323e-01	
   3.2010000e+01	  -3.4404523e-01	  -1.2139283e-01	  -9.8700292e-02	
   3.2065000e+01	  -3.3788853e-01	  -1.1275070e-01	  -9.1616664e-02	
   3.2120000e+01	  -3.3207732e-01	  -1.0392219e-01	  -8.4487608e-02	
   3.2175000e+01	  -3.2674856e-01	  -9.5016963e-02	  -7.7430662e-02	
   3.2230000e+01	  -3.2199990e-01	  -8.6131040e-02	  -7.0541922e-02	
   3.2285000e+01	  -3.1788338e-01	  -7.7348488e-02	  -6.3896310e-02	
   3.2340000e+01	  -3.1440487e-01	  -6.8743975e-02	  -5.7548693e-02	
   3.2395000e+01	  -3.1152884e-01	  -6.0384557e-02	  -5.1534930e-02	
   3.2450000e+01	  -3.0918668e-01	  -5.2329328e-02	  -4.5873065e-02	
   3.2505000e+01	  -3.0728768e-01	  -4.4627050e-02	  -4.0564346e-02	
   3.2560000e+01	  -3.0573191e-01	  -3.7313510e-02	  -3.5593694e-02	
   3.2615000e+01	  -3.0442434e-01	  -3.0410349e-02	  -3.0929817e-02	
   3.2670000e+01	  -3.0328852e-01	  -2.3925830e-02	  -2.6525384e-02	
   3.2725000e+01	  -3.0227779e-01	  -1.7857834e-02	  -2.2318191e-02	
   3.2780000e+01	  -3.0138276e-01	  -1.2199505e-02	  -1.8235056e-02	
   3.2835000e+01	  -3.0063393e-01	  -6.9461643e-03	  -1.4199143e-02	
   3.2890000e+01	  -3.0009823e-01	  -2.0995633e-03	  -1.0138430e-02	
   3.2945000e+01	  -2.9986865e-01	   2.3334049e-03	  -5.9918220e-03	
   3.3000000e+01	  -3.0004910e-01	   6.3459096e-03	  -1.7117700e-03	
   3.3055000e+01	  -3.0073827e-01	   9.9358223e-03	   2.7350228e-03	
   3.3110000e+01	  -3.0201561e-01	   1.3107133e-02	   7.3673023e-03	
   3.3165000e+01	  -3.0393135e-01	   1.5868747e-02	   1.2188893e-02	
   3.3220000e+01	  -3.0650122e-01	   1.8231904e-02	   1.7187286e-02	
   3.3275000e+01	  -3.0970614e-01	   2.0206503e-02	   2.2330261e-02	
   3.3330000e+01	  -3.1349602e-01	   2.1797117e-02	   2.7561688e-02	
   3.3385000e+01	  -3.1779622e-01	   2.3000375e-02	   3.2798919e-02	
   3.3440000e+01	  -3.2251608e-01	   2.3804387e-02	   3.7932752e-02	
   3.3495000e+01	  -3.2755909e-01	   2.4189225e-02	   4.2828909e-02	
   3.3550000e+01	  -3.3283349e-01	   2.4127141e-02	   4.7329900e-02	
   3.3605000e+01	  -3.3826189e-01	   2.3581855e-02	   5.1257739e-02	
   3.3660000e+01	  -3.4378897e-01	   2.2507271e-02	   5.4419087e-02	
   3.3715000e+01	  -3.4938641e-01	   2.0847275e-02	   5.6613824e-02	
   3.3770000e+01	  -3.5505320e-01	   1.8538725e-02	   5.7646856e-02	
   3.3825000e+01	  -3.6080946e-01	   1.5518278e-02	   5.7342124e-02	
   3.3880000e+01	  -3.6668450e-01	   1.1731371e-02	   5.5557011e-02	
   3.3935000e+01	  -3.7270272e-01	   7.1407717e-03	   5.2195266e-02	
   3.3990000e+01	  -3.7887112e-01	   1.7332835e-03	   4.7217479e-02	
   3.4045000e+01	  -3.8517085e-01	  -4.4753891e-03	   4.0648999e-02	
   3.4100000e+01	  -3.9155355e-01	  -1.1437497e-02	   3.2584041e-02	
   3.4155000e+01	  -3.9794221e-01	  -1.9072371e-02	   2.3183585e-02	
   3.4210000e+01	  -4.0423591e-01	  -2.7268070e-02	   1.2666506e-02	
   3.4265000e+01	  -4.1031727e-01	  -3.5885108e-02	   1.2963983e-03	
   3.4320000e+01	  -4.1606173e-01	  -4.4761755e-02	  -1.0633003e-02	
   3.4375000e+01	  -4.2134764e-01	  -5.3720524e-02	  -2.2812544e-02	
   3.4430000e+01	  -4.2606677e-01	  -6.2575277e-02	  -3.4932269e-02	
   3.4485000e+01	  -4.3013437e-01	  -7.1138971e-02	  -4.6695528e-02	
   3.4540000e+01	  -4.3349756e-01	  -7.9232630e-02	  -5.7832072e-02	
   3.4595000e+01	  -4.3614083e-01	  -8.6695124e-02	  -6.8109822e-02	
   3.4650000e+01	  -4.3808712e-01	  -9.3391589e-02	  -7.7344006e-02	
   3.4705000e+01	  -4.3939274e-01	  -9.9218289e-02	  -8.5401242e-02	
   3.4760000e+01	  -4.4013638e-01	  -1.0410348e-01	  -9.2197817e-02	
   3.4815000e+01	  -4.4040489e-01	  -1.0800520e-01	  -9.7694393e-02	
   3.4870000e+01	  -4.4027946e-01	  -1.1090659e-01	  -1.0188965e-01	
   3.4925000e+01	  -4.3982448e-01	  -1.1280911e-01	  -1.0481362e-01	
   3.4980000e+01	  -4.3908014e-01	  -1.1372586e-01	  -1.0652106e-01	
   3.5035000e+01	  -4.3805925e-01	  -1.1367769e-01	  -1.0708663e-01	
   3.5090000e+01	  -4.3674817e-01	  -1.1269339e-01	  -1.0660251e-01	
   3.5145000e+01	  -4.3511011e-01	  -1.1081203e-01	  -1.0517655e-01	
   3.5200000e+01	  -4.3308968e-01	  -1.0808532e-01	  -1.0292922e-01	
   3.5255000e+01	  -4.3061847e-01	  -1.0457853e-01	  -9.9989908e-02	
   3.5310000e+01	  -4.2762058e-01	  -1.0036826e-01	  -9.6494067e-02	
   3.5365000e+01	  -4.2401705e-01	  -9.5536334e-02	  -9.2581397e-02	
   3.5420000e+01	  -4.1972814e-01	  -9.0161571e-02	  -8.8394712e-02	
   3.5475000e+01	  -4.1467336e-01	  -8.4312786e-02	  -8.4079731e-02	
   3.5530000e+01	  -4.0876885e-01	  -7.8044043e-02	  -7.9784970e-02	
   3.5585000e+01	  -4.0192261e-01	  -7.1390917e-02	  -7.5659263e-02	
   3.5640000e+01	  -3.9402887e-01	  -6.4366958e-02	  -7.1845828e-02	
   3.5695000e+01	  -3.8496463e-01	  -5.6962191e-02	  -6.8474846e-02	
   3.5750000e+01	  -3.7459029e-01	  -4.9145924e-02	  -6.5656986e-02	
   3.5805000e+01	  -3.6275546e-01	  -4.0873456e-02	  -6.3478404e-02	
   3.5860000e+01	  -3.4930929e-01	  -3.2094376e-02	  -6.1996581e-02	
   3.5915000e+01	  -3.3411405e-01	  -2.2761037e-02	  -6.1236907e-02	
   3.5970000e+01	  -3.1706008e-01	  -1.2836936e-02	  -6.1191148e-02	
   3.6025000e+01	  -2.9808042e-01	  -2.3044843e-03	  -6.1819475e-02	
   3.6080000e+01	  -2.7716352e-01	   8.8286451e-03	  -6.3056486e-02	
   3.6135000e+01	  -2.5436311e-01	   2.0524961e-02	  -6.4819749e-02	
   3.6190000e+01	  -2.2980388e-01	   3.2714863e-02	  -6.7018435e-02	
   3.6245000e+01	  -2.0368102e-01	   4.5297690e-02	  -6.9560194e-02	
   3.6300000e+01	  -1.7625176e-01	   5.8146693e-02	  -7.2355276e-02	
   3.6355000e+01	  -1.4781848e-01	   7.1116742e-02	  -7.5317820e-02	
   3.6410000e+01	  -1.1870617e-01	   8.4052649e-02	  -7.8365174e-02	
   3.6465000e+01	  -8.9239051e-02	   9.6796931e-02	  -8.1416706e-02	
   3.6520000e+01	  -5.9720796e-02	   1.0919696e-01	  -8.4393360e-02	
   3.6575000e+01	  -3.0421049e-02	   1.2111128e-01	  -8.7218984e-02	
   3.6630000e+01	  -1.5686475e-03	   1.3241441e-01	  -8.9823548e-02	
   3.6685000e+01	   2.6650076e-02	   1.4300017e-01	  -9.2146457e-02	
   3.6740000e+01	   5.4089664e-02	   1.5278374e-01	  -9.4137773e-02	
   3.6795000e+01	   8.0641012e-02	   1.6170161e-01	  -9.5757517e-02	
   3.6850000e+01	   1.0622353e-01	   1.6970904e-01	  -9.6975403e-02	
   3.6905000e+01	   1.3077452e-01	   1.7677604e-01	  -9.7773013e-02	
   3.6960000e+01	   1.5423776e-01	   1.8288350e-01	  -9.8148612e-02	
   3.7015000e+01	   1.7655402e-01	   1.8802029e-01	  -9.8122511e-02	
   3.7070000e+01	   1.9765644e-01	   1.9218251e-01	  -9.7739001e-02	
   3.7125000e+01	   2.1747256e-01	   1.9537579e-01	  -9.7061521e-02	
   3.7180000e+01	   2.3593241e-01	   1.9761958e-01	  -9.6161640e-02	
   3.7235000e+01	   2.5297935e-01	   1.9895055e-01	  -9.5105930e-02	
   3.7290000e+01	   2.6857992e-01	   1.9942296e-01	  -9.3945093e-02	
   3.7345000e+01	   2.8273126e-01	   1.9910609e-01	  -9.2707913e-02	
   3.7400000e+01	   2.9546558e-01	   1.9808099e-01	  -9.1400255e-02	
   3.7455000e+01	   3.0685141e-01	   1.9643922e-01	  -9.0007480e-02	
   3.7510000e+01	   3.1699132e-01	   1.9428446e-01	  -8.8499033e-02	
   3.7565000e+01	   3.2601576e-01	   1.9173526e-01	  -8.6835325e-02	
   3.7620000e+01	   3.3407333e-01	   1.8892616e-01	  -8.4976771e-02	
   3.7675000e+01	   3.4131811e-01	   1.8600511e-01	  -8.2893255e-02	
   3.7730000e+01	   3.4789583e-01	   1.8312732e-01	  -8.0571275e-02	
   3.7785000e+01	   3.5393116e-01	   1.8044738e-01	  -7.8016286e-02	
   3.7840000e+01	   3.5951866e-01	   1.7811200e-01	  -7.5249862e-02	
   3.7895000e+01	   3.6471859e-01	   1.7625424e-01	  -7.2303852e-02	
   3.7950000e+01	   3.6955833e-01	   1.7498897e-01	  -6.9214303e-02	
   3.8005000e+01	   3.7403913e-01	   1.7440910e-01	  -6.6016441e-02	
   3.8060000e+01	   3.7814601e-01	   1.7458175e-01	  -6.2740770e-02	
   3.8115000e+01	   3.8185813e-01	   1.7554417e-01	  -5.9410328e-02	
   3.8170000e+01	   3.8515737e-01	   1.7730031e-01	  -5.6039115e-02	
   3.8225000e+01	   3.8803504e-01	   1.7981941e-01	  -5.2631641e-02	
   3.8280000e+01	   3.9049626e-01	   1.8303771e-01	  -4.9183889e-02	
   3.8335000e+01	   3.9256154e-01	   1.8686270e-01	  -4.5686203e-02	
   3.8390000e+01	   3.9426495e-01	   1.9117917e-01	  -4.2127959e-02	
   3.8445000e+01	   3.9564906e-01	   1.9585602e-01	  -3.8502574e-02	
   3.8500000e+01	   3.9675808e-01	   2.0075354e-01	  -3.4811006e-02	
   3.8555000e+01	   3.9763079e-01	   2.0573027e-01	  -3.1062981e-02	
   3.8610000e+01	   3.9829462e-01	   2.1064904e-01	  -2.7276172e-02	
   3.8665000e+01	   3.9876203e-01	   2.1538195e-01	  -2.3473461e-02	
   3.8720000e+01	   3.9903070e-01	   2.1981458e-01	  -1.9678009e-02	
   3.8775000e+01	   3.9908837e-01	   2.2384955e-01	  -1.5906361e-02	
   3.8830000e+01	   3.9892070e-01	   2.2740875e-01	  -1.2161166e-02	
   3.8885000e+01	   3.9851898e-01	   2.3043380e-01	  -8.4260351e-03	
   3.8940000e+01	   3.9788502e-01	   2.3288532e-01	  -4.6641480e-03	
   3.8995000e+01	   3.9703242e-01	   2.3474170e-01	  -8.2058166e-04	
   3.9050000e+01	   3.9598446e-01	   2.3599704e-01	   3.1727137e-03	
   3.9105000e+01	   3.9476978e-01	   2.3665763e-01	   7.3908344e-03	
   3.9160000e+01	   3.9341751e-01	   2.3673689e-01	   1.1909986e-02	
   3.9215000e+01	   3.9195261e-01	   2.3624973e-01	   1.6801657e-02	
   3.9270000e+01	   3.9039175e-01	   2.3520781e-01	   2.2126050e-02	
   3.9325000e+01	   3.8873983e-01	   2.3361730e-01	   2.7925018e-02	
   3.9380000e+01	   3.8698834e-01	   2.3148069e-01	   3.4216783e-02	
   3.9435000e+01	   3.8511663e-01	   2.2880125e-01	   4.0995376e-02	
   3.9490000e+01	   3.8309679e-01	   2.2558784e-01	   4.8235456e-02	
   3.9545000e+01	   3.8090173e-01	   2.2185816e-01	   5.5899778e-02	
   3.9600000e+01	   3.7851493e-01	   2.1763970e-01	   6.3945246e-02	
   3.9655000e+01	   3.7593898e-01	   2.1296896e-01	   7.2325255e-02	
   3.9710000e+01	   3.7320064e-01	   2.0788973e-01	   8.0988572e-02	
   3.9765000e+01	   3.7035143e-01	   2.0245154e-01	   8.9876671e-02	
   3.9820000e+01	   3.6746383e-01	   1.9670880e-01	   9.8921623e-02	
   3.9875000e+01	   3.6462381e-01	   1.9072069e-01	   1.0804558e-01	
   3.9930000e+01	   3.6192123e-01	   1.8455140e-01	   1.1716173e-01	
   3.9985000e+01	   3.5944032e-01	   1.7827017e-01	   1.2617642e-01	
   4.0040000e+01	   3.5725228e-01	   1.7195114e-01	   1.3499226e-01	
   4.0095000e+01	   3.5541049e-01	   1.6567444e-01	   1.4351140e-01	
   4.0150000e+01	   3.5394736e-01	   1.5952820e-01	   1.5163874e-01	
   4.0205000e+01	   3.5287297e-01	   1.5361019e-01	   1.5928587e-01	
   4.0260000e+01	   3.5217702e-01	   1.4802731e-01	   1.6637711e-01	
   4.0315000e+01	   3.5183456e-01	   1.4289282e-01	   1.7285698e-01	
   4.0370000e+01	   3.5181328e-01	   1.3832182e-01	   1.7869601e-01	
   4.0425000e+01	   3.5207978e-01	   1.3442606e-01	   1.8389310e-01	
   4.0480000e+01	   3.5260444e-01	   1.3130916e-01	   1.8847584e-01	
   4.0535000e+01	   3.5336490e-01	   1.2906249e-01	   1.9249992e-01	
   4.0590000e+01	   3.5434783e-01	   1.2776101e-01	   1.9604689e-01	
   4.0645000e+01	   3.5554865e-01	   1.2745857e-01	   1.9921985e-01	
   4.0700000e+01	   3.5696956e-01	   1.2818394e-01	   2.0213695e-01	
   4.0755000e+01	   3.5861609e-01	   1.2993786e-01	   2.0492264e-01	
   4.0810000e+01	   3.6049192e-01	   1.3269130e-01	   2.0769746e-01	
   4.0865000e+01	   3.6259291e-01	   1.3638559e-01	   2.1056928e-01	
   4.0920000e+01	   3.6490225e-01	   1.4093644e-01	   2.1362810e-01	
   4.0975000e+01	   3.6738770e-01	   1.4624108e-01	   2.1694455e-01	
   4.1030000e+01	   3.7000129e-01	   1.5218676e-01	   2.2057061e-01	
   4.1085000e+01	   3.7268200e-01	   1.5865964e-01	   2.2454120e-01	
   4.1140000e+01	   3.7536177e-01	   1.6555301e-01	   2.2887700e-01	
   4.1195000e+01	   3.7797372e-01	   1.7277201e-01	   2.3358818e-01	
   4.1250000e+01	   3.8046012e-01	   1.8023294e-01	   2.3867747e-01	
   4.1305000e+01	   3.8277816e-01	   1.8785841e-01	   2.4414118e-01	
   4.1360000e+01	   3.8490265e-01	   1.9557155e-01	   2.4996819e-01	
   4.1415000e+01	   3.8682496e-01	   2.0329152e-01	   2.5613822e-01	
   4.1470000e+01	   3.8854828e-01	   2.1093094e-01	   2.6261944e-01	
   4.1525000e+01	   3.9007958e-01	   2.1839503e-01	   2.6936576e-01	
   4.1580000e+01	   3.9142043e-01	   2.2558214e-01	   2.7631469e-01	
   4.1635000e+01	   3.9255878e-01	   2.3238606e-01	   2.8338715e-01	
   4.1690000e+01	   3.9346313e-01	   2.3869958e-01	   2.9048959e-01	
   4.1745000e+01	   3.9408032e-01	   2.4441962e-01	   2.9751848e-01	
   4.1800000e+01	   3.9433762e-01	   2.4945433e-01	   3.0436742e-01	
   4.1855000e+01	   3.9414953e-01	   2.5373163e-01	   3.1093698e-01	
   4.1910000e+01	   3.9342865e-01	   2.5720774e-01	   3.1714587e-01	
   4.1965000e+01	   3.9209865e-01	   2.5987349e-01	   3.2294071e-01	
   4.2020000e+01	   3.9010719e-01	   2.6175647e-01	   3.2830117e-01	
   4.2075000e+01	   3.8743627e-01	   2.6291771e-01	   3.3323864e-01	
   4.2130000e+01	   3.8410791e-01	   2.6344363e-01	   3.3778787e-01	
   4.2185000e+01	   3.8018429e-01	   2.6343641e-01	   3.4199416e-01	
   4.2240000e+01	   3.7576296e-01	   2.6300574e-01	   3.4589972e-01	
   4.2295000e+01	   3.7096806e-01	   2.6226256e-01	   3.4953214e-01	
   4.2350000e+01	   3.6593848e-01	   2.6131353e-01	   3.5289577e-01	
   4.2405000e+01	   3.6081472e-01	   2.6025615e-01	   3.5596564e-01	
   4.2460000e+01	   3.5572662e-01	   2.5917523e-01	   3.5868482e-01	
   4.2515000e+01	   3.5078287e-01	   2.5814121e-01	   3.6096620e-01	
   4.2570000e+01	   3.4606236e-01	   2.5720963e-01	   3.6269879e-01	
   4.2625000e+01	   3.4160803e-01	   2.5642158e-01	   3.6375730e-01	
   4.2680000e+01	   3.3742422e-01	   2.5580532e-01	   3.6401343e-01	
   4.2735000e+01	   3.3347902e-01	   2.5537925e-01	   3.6334783e-01	
   4.2790000e+01	   3.2971202e-01	   2.5515555e-01	   3.6166219e-01	
   4.2845000e+01	   3.2604685e-01	   2.5514369e-01	   3.5889131e-01	
   4.2900000e+01	   3.2240596e-01	   2.5535333e-01	   3.5501388e-01	
   4.2955000e+01	   3.1872361e-01	   2.5579599e-01	   3.5005942e-01	
   4.3010000e+01	   3.1495420e-01	   2.5648459e-01	   3.4410866e-01	
   4.3065000e+01	   3.1107486e-01	   2.5743062e-01	   3.3728680e-01	
   4.3120000e+01	   3.0708338e-01	   2.5864043e-01	   3.2975203e-01	
   4.3175000e+01	   3.0299278e-01	   2.6011270e-01	   3.2168195e-01	
   4.3230000e+01	   2.9882395e-01	   2.6183807e-01	   3.1325947e-01	
   4.3285000e+01	   2.9459771e-01	   2.6379966e-01	   3.0465966e-01	
   4.3340000e+01	   2.9032753e-01	   2.6597316e-01	   2.9603952e-01	
   4.3395000e+01	   2.8601404e-01	   2.6832623e-01	   2.8753191e-01	
   4.3450000e+01	   2.8164222e-01	   2.7081732e-01	   2.7924273e-01	
   4.3505000e+01	   2.7718205e-01	   2.7339542e-01	   2.7125091e-01	
   4.3560000e+01	   2.7259360e-01	   2.7600260e-01	   2.6361117e-01	
   4.3615000e+01	   2.6783675e-01	   2.7858045e-01	   2.5635904e-01	
   4.3670000e+01	   2.6288304e-01	   2.8107863e-01	   2.4951771e-01	
   4.3725000e+01	   2.5772635e-01	   2.8346263e-01	   2.4310520e-01	
   4.3780000e+01	   2.5238898e-01	   2.8571803e-01	   2.3713990e-01	
   4.3835000e+01	   2.4692271e-01	   2.8785035e-01	   2.3164278e-01	
   4.3890000e+01	   2.4140486e-01	   2.8988097e-01	   2.2663562e-01	
   4.3945000e+01	   2.3593064e-01	   2.9184119e-01	   2.2213603e-01	
   4.4000000e+01	   2.3060283e-01	   2.9376600e-01	   2.1815117e-01	
   4.4055000e+01	   2.2552044e-01	   2.9568824e-01	   2.1467191e-01	
   4.4110000e+01	   2.2076739e-01	   2.9763291e-01	   2.1166799e-01	
   4.4165000e+01	   2.1640237e-01	   2.9961221e-01	   2.0908404e-01	
   4.4220000e+01	   2.1245142e-01	   3.0162270e-01	   2.0683761e-01	
   4.4275000e+01	   2.0890490e-01	   3.0364521e-01	   2.0482112e-01	
   4.4330000e+01	   2.0572024e-01	   3.0564647e-01	   2.0290804e-01	
   4.4385000e+01	   2.0283032e-01	   3.0758123e-01	   2.0096115e-01	
   4.4440000e+01	   2.0015628e-01	   3.0939467e-01	   1.9884008e-01	
   4.4495000e+01	   1.9762194e-01	   3.1102515e-01	   1.9640753e-01	
   4.4550000e+01	   1.9516616e-01	   3.1240683e-01	   1.9353442e-01	
   4.4605000e+01	   1.9275081e-01	   3.1347191e-01	   1.9010532e-01	
   4.4660000e+01	   1.9036366e-01	   3.1415311e-01	   1.8602438e-01	
   4.4715000e+01	   1.8801697e-01	   3.1438651e-01	   1.8122126e-01	
   4.4770000e+01	   1.8574186e-01	   3.1411339e-01	   1.7565480e-01	
   4.4825000e+01	   1.8357904e-01	   3.1327982e-01	   1.6931316e-01	
   4.4880000e+01	   1.8156778e-01	   3.1183474e-01	   1.6221146e-01	
   4.4935000e+01	   1.7973522e-01	   3.0972808e-01	   1.5438873e-01	
   4.4990000e+01	   1.7808791e-01	   3.0690924e-01	   1.4590463e-01	
   4.5045000e+01	   1.7660696e-01	   3.0332630e-01	   1.3683652e-01	
   4.5100000e+01	   1.7524816e-01	   2.9892729e-01	   1.2727844e-01	
   4.5155000e+01	   1.7394755e-01	   2.9366463e-01	   1.1734350e-01	
   4.5210000e+01	   1.7263141e-01	   2.8750128e-01	   1.0716742e-01	
   4.5265000e+01	   1.7122823e-01	   2.8041608e-01	   9.6909708e-02	
   4.5320000e+01	   1.6967967e-01	   2.7240792e-01	   8.6750588e-02	
   4.5375000e+01	   1.6794831e-01	   2.6350016e-01	   7.6885534e-02	
   4.5430000e+01	   1.6602133e-01	   2.5374486e-01	   6.7518747e-02	
   4.5485000e+01	   1.6391035e-01	   2.4322536e-01	   5.8855157e-02	
   4.5540000e+01	   1.6164767e-01	   2.3205628e-01	   5.1089908e-02	
   4.5595000e+01	   1.5927975e-01	   2.2038165e-01	   4.4395567e-02	
   4.5650000e+01	   1.5685806e-01	   2.0837160e-01	   3.8908168e-02	
   4.5705000e+01	   1.5442800e-01	   1.9621712e-01	   3.4713644e-02	
   4.5760000e+01	   1.5201691e-01	   1.8412233e-01	   3.1837433e-02	
   4.5815000e+01	   1.4962414e-01	   1.7229518e-01	   3.0240638e-02	
   4.5870000e+01	   1.4721540e-01	   1.6093746e-01	   2.9824212e-02	
   4.5925000e+01	   1.4472291e-01	   1.5023492e-01	   3.0439753e-02	
   4.5980000e+01	   1.4205186e-01	   1.4034873e-01	   3.1904567e-02	
   4.6035000e+01	   1.3909263e-01	   1.3140948e-01	   3.4018783e-02	
   4.6090000e+01	   1.3573615e-01	   1.2351410e-01	   3.6581942e-02	
   4.6145000e+01	   1.3188872e-01	   1.1672500e-01	   3.9406400e-02	
   4.6200000e+01	   1.2748355e-01	   1.1107077e-01	   4.2326758e-02	
   4.6255000e+01	   1.2248759e-01	   1.0654848e-01	   4.5206521e-02	
   4.6310000e+01	   1.1690289e-01	   1.0312673e-01	   4.7942168e-02	
   4.6365000e+01	   1.1076225e-01	   1.0074832e-01	   5.0462715e-02	
   4.6420000e+01	   1.0412011e-01	   9.9331841e-02	   5.2724181e-02	
   4.6475000e+01	   9.7040878e-02	   9.8772241e-02	   5.4701804e-02	
   4.6530000e+01	   8.9586973e-02	   9.8940257e-02	   5.6383318e-02	
   4.6585000e+01	   8.1808294e-02	   9.9681639e-02	   5.7764037e-02	
   4.6640000e+01	   7.3734453e-02	   1.0081904e-01	   5.8843158e-02	
   4.6695000e+01	   6.5371116e-02	   1.0215895e-01	   5.9621022e-02	
   4.6750000e+01	   5.6701146e-02	   1.0350321e-01	   6.0097259e-02	
   4.6805000e+01	   4.7690359e-02	   1.0466265e-01	   6.0269821e-02	
   4.6860000e+01	   3.8296981e-02	   1.0547050e-01	   6.0135858e-02	
   4.6915000e+01	   2.8483646e-02	   1.0579393e-01	   5.9695125e-02	
   4.6970000e+01	   1.8230089e-02	   1.0554241e-01	   5.8954675e-02	
   4.7025000e+01	   7.5440181e-03	   1.0467204e-01	   5.7932602e-02	
   4.7080000e+01	  -3.5319569e-03	   1.0318646e-01	   5.6660435e-02	
   4.7135000e+01	  -1.4918250e-02	   1.0113509e-01	   5.5185182e-02	
   4.7190000e+01	  -2.6501214e-02	   9.8608079e-02	   5.3570922e-02	
   4.7245000e+01	  -3.8140773e-02	   9.5726924e-02	   5.1898267e-02	
   4.7300000e+01	  -4.9681676e-02	   9.2631383e-02	   5.0260944e-02	
   4.7355000e+01	  -6.0966231e-02	   8.9465026e-02	   4.8760880e-02	
   4.7410000e+01	  -7.1846208e-02	   8.6362392e-02	   4.7503192e-02	
   4.7465000e+01	  -8.2192282e-02	   8.3439540e-02	   4.6590875e-02	
   4.7520000e+01	  -9.1900043e-02	   8.0788997e-02	   4.6119022e-02	
   4.7575000e+01	  -1.0089160e-01	   7.8479402e-02	   4.6170126e-02	
   4.7630000e+01	  -1.0911197e-01	   7.6558728e-02	   4.6811648e-02	
   4.7685000e+01	  -1.1652090e-01	   7.5058433e-02	   4.8094867e-02	
   4.7740000e+01	  -1.2308258e-01	   7.3996532e-02	   5.0053037e-02	
   4.7795000e+01	  -1.2875628e-01	   7.3379922e-02	   5.2697944e-02	
   4.7850000e+01	  -1.3349005e-01	   7.3206953e-02	   5.6015249e-02	
   4.7905000e+01	  -1.3721836e-01	   7.3469769e-02	   5.9959726e-02	
   4.7960000e+01	  -1.3986329e-01	   7.4155327e-02	   6.4452159e-02	
   4.8015000e+01	  -1.4133867e-01	   7.5245622e-02	   6.9379704e-02	
   4.8070000e+01	  -1.4155647e-01	   7.6718614e-02	   7.4599963e-02	
   4.8125000e+01	  -1.4043436e-01	   7.8550246e-02	   7.9947319e-02	
   4.8180000e+01	  -1.3790339e-01	   8.0716361e-02	   8.5240938e-02	
   4.8235000e+01	  -1.3391430e-01	   8.3193182e-02	   9.0295556e-02	
   4.8290000e+01	  -1.2844139e-01	   8.5955781e-02	   9.4935338e-02	
   4.8345000e+01	  -1.2148349e-01	   8.8974668e-02	   9.9008926e-02	
   4.8400000e+01	  -1.1306210e-01	   9.2211414e-02	   1.0240323e-01	
   4.8455000e+01	  -1.0321710e-01	   9.5614831e-02	   1.0505396e-01	
   4.8510000e+01	  -9.2000840e-02	   9.9118667e-02	   1.0695084e-01	
   4.8565000e+01	  -7.9471971e-02	   1.0264078e-01	   1.0813609e-01	
   4.8620000e+01	  -6.5690591e-02	   1.0608428e-01	   1.0869684e-01	
   4.8675000e+01	  -5.0714792e-02	   1.0934184e-01	   1.0875468e-01	
   4.8730000e+01	  -3.4598648e-02	   1.1230287e-01	   1.0845524e-01	
   4.8785000e+01	  -1.7392390e-02	   1.1486099e-01	   1.0795842e-01	
   4.8840000e+01	   8.5422507e-04	   1.1691992e-01	   1.0742880e-01	
   4.8895000e+01	   2.0085753e-02	   1.1839898e-01	   1.0702627e-01	
   4.8950000e+01	   4.0233778e-02	   1.1923911e-01	   1.0689821e-01	
   4.9005000e+01	   6.1210170e-02	   1.1940882e-01	   1.0717350e-01	
   4.9060000e+01	   8.2902321e-02	   1.1890776e-01	   1.0795838e-01	
   4.9115000e+01	   1.0517201e-01	   1.1776739e-01	   1.0933425e-01	
   4.9170000e+01	   1.2785918e-01	   1.1604934e-01	   1.1135806e-01	
   4.9225000e+01	   1.5079048e-01	   1.1384301e-01	   1.1406585e-01	
   4.9280000e+01	   1.7379058e-01	   1.1126313e-01	   1.1747909e-01	
   4.9335000e+01	   1.9669359e-01	   1.0844693e-01	   1.2161189e-01	
   4.9390000e+01	   2.1935266e-01	   1.0554969e-01	   1.2647675e-01	
   4.9445000e+01	   2.4164622e-01	   1.0273762e-01	   1.3208693e-01	
   4.9500000e+01	   2.6348008e-01	   1.0017887e-01	   1.3845568e-01	
   4.9555000e+01	   2.8478488e-01	   9.8034570e-02	   1.4559335e-01	
   4.9610000e+01	   3.0550994e-01	   9.6451437e-02	   1.5350384e-01	
   4.9665000e+01	   3.2561485e-01	   9.5555622e-02	   1.6218107e-01	
   4.9720000e+01	   3.4506032e-01	   9.5446747e-02	   1.7160501e-01	
   4.9775000e+01	   3.6379989e-01	   9.6191974e-02	   1.8173758e-01	
   4.9830000e+01	   3.8177358e-01	   9.7821495e-02	   1.9251936e-01	
   4.9885000e+01	   3.9890441e-01	   1.0032682e-01	   2.0386817e-01	
   4.9940000e+01	   4.1509855e-01	   1.0366268e-01	   2.1568030e-01	
   4.9995000e+01	   4.3025037e-01	   1.0775284e-01	   2.2783581e-01	
   5.0050000e+01	   4.4425331e-01	   1.1249944e-01	   2.4020823e-01	
   5.0105000e+01	   4.5701399e-01	   1.1779357e-01	   2.5267547e-01	
   5.0160000e+01	   4.6846539e-01	   1.2352461e-01	   2.6512693e-01	
   5.0215000e+01	   4.7857557e-01	   1.2958680e-01	   2.7746432e-01	
   5.0270000e+01	   4.8735068e-01	   1.3588307e-01	   2.8959736e-01	
   5.0325000e+01	   4.9483325e-01	   1.4232571e-01	   3.0143724e-01	
   5.0380000e+01	   5.0109695e-01	   1.4883454e-01	   3.1289032e-01	
   5.0435000e+01	   5.0623922e-01	   1.5533345e-01	   3.2385319e-01	
   5.0490000e+01	   5.1037335e-01	   1.6174656e-01	   3.3421024e-01	
   5.0545000e+01	   5.1362009e-01	   1.6799494e-01	   3.4383483e-01	
   5.0600000e+01	   5.1609887e-01	   1.7399393e-01	   3.5259459e-01	
   5.0655000e+01	   5.1791859e-01	   1.7965214e-01	   3.6036012e-01	
   5.0710000e+01	   5.1917042e-01	   1.8487347e-01	   3.6701702e-01	
   5.0765000e+01	   5.1992483e-01	   1.8956276e-01	   3.7248011e-01	
   5.0820000e+01	   5.2023452e-01	   1.9363355e-01	   3.7670685e-01	
   5.0875000e+01	   5.2014217e-01	   1.9701566e-01	   3.7970673e-01	
   5.0930000e+01	   5.1969151e-01	   1.9966149e-01	   3.8154460e-01	
   5.0985000e+01	   5.1893874e-01	   2.0155037e-01	   3.8233768e-01	
   5.1040000e+01	   5.1796120e-01	   2.0269093e-01	   3.8224753e-01	
   5.1095000e+01	   5.1686089e-01	   2.0312140e-01	   3.8146868e-01	
   5.1150000e+01	   5.1576230e-01	   2.0290827e-01	   3.8021520e-01	
   5.1205000e+01	   5.1480507e-01	   2.0214297e-01	   3.7870595e-01	
   5.1260000e+01	   5.1413257e-01	   2.0093647e-01	   3.7714911e-01	
   5.1315000e+01	   5.1387835e-01	   1.9941215e-01	   3.7572822e-01	
   5.1370000e+01	   5.1415260e-01	   1.9769688e-01	   3.7459281e-01	
   5.1425000e+01	   5.1503035e-01	   1.9591021e-01	   3.7385550e-01	
   5.1480000e+01	   5.1654299e-01	   1.9415285e-01	   3.7359499e-01	
   5.1535000e+01	   5.1867519e-01	   1.9249739e-01	   3.7386248e-01	
   5.1590000e+01	   5.2136885e-01	   1.9098358e-01	   3.7468925e-01	
   5.1645000e+01	   5.2453359e-01	   1.8961833e-01	   3.7609423e-01	
   5.1700000e+01	   5.2806093e-01	   1.8837883e-01	   3.7809014e-01	
   5.1755000e+01	   5.3183851e-01	   1.8721833e-01	   3.8068742e-01	
   5.1810000e+01	   5.3576191e-01	   1.8607433e-01	   3.8389515e-01	
   5.1865000e+01	   5.3974305e-01	   1.8487801e-01	   3.8771925e-01	
   5.1920000e+01	   5.4371445e-01	   1.8356280e-01	   3.9215958e-01	
   5.1975000e+01	   5.4762952e-01	   1.8207031e-01	   3.9720824e-01	
   5.2030000e+01	   5.5145966e-01	   1.8035394e-01	   4.0285020e-01	
   5.2085000e+01	   5.5518893e-01	   1.7838076e-01	   4.0906426e-01	
   5.2140000e+01	   5.5880717e-01	   1.7613113e-01	   4.1582232e-01	
   5.2195000e+01	   5.6230241e-01	   1.7359540e-01	   4.2308608e-01	
   5.2250000e+01	   5.6565449e-01	   1.7076954e-01	   4.3080284e-01	
   5.2305000e+01	   5.6883171e-01	   1.6765322e-01	   4.3890268e-01	
   5.2360000e+01	   5.7179202e-01	   1.6425189e-01	   4.4729852e-01	
   5.2415000e+01	   5.7448841e-01	   1.6058117e-01	   4.5588945e-01	
   5.2470000e+01	   5.7687767e-01	   1.5667082e-01	   4.6456584e-01	
   5.2525000e+01	   5.7892999e-01	   1.5256650e-01	   4.7321416e-01	
   5.2580000e+01	   5.8063693e-01	   1.4832880e-01	   4.8172107e-01	
   5.2635000e+01	   5.8201539e-01	   1.4403031e-01	   4.8997728e-01	
   5.2690000e+01	   5.8310716e-01	   1.3975115e-01	   4.9788033e-01	
   5.2745000e+01	   5.8397437e-01	   1.3557239e-01	   5.0533430e-01	
   5.2800000e+01	   5.8469164e-01	   1.3156761e-01	   5.1224559e-01	
   5.2855000e+01	   5.8533562e-01	   1.2779452e-01	   5.1851707e-01	
   5.2910000e+01	   5.8597331e-01	   1.2428872e-01	   5.2404448e-01	
   5.2965000e+01	   5.8665041e-01	   1.2105990e-01	   5.2871706e-01	
   5.3020000e+01	   5.8738104e-01	   1.1809087e-01	   5.3242183e-01	
   5.3075000e+01	   5.8814090e-01	   1.1534062e-01	   5.3504937e-01	
   5.3130000e+01	   5.8886635e-01	   1.1275157e-01	   5.3650093e-01	
   5.3185000e+01	   5.8946103e-01	   1.1025937e-01	   5.3669699e-01	
   5.3240000e+01	   5.8980904e-01	   1.0780315e-01	   5.3558654e-01	
   5.3295000e+01	   5.8979173e-01	   1.0533422e-01	   5.3315480e-01	
   5.3350000e+01	   5.8930422e-01	   1.0282252e-01	   5.2942703e-01	
   5.3405000e+01	   5.8826804e-01	   1.0025973e-01	   5.2446710e-01	
   5.3460000e+01	   5.8663793e-01	   9.7657925e-02	   5.1837139e-01	
   5.3515000e+01	   5.8440249e-01	   9.5044100e-02	   5.1126008e-01	
   5.3570000e+01	   5.8157994e-01	   9.2451757e-02	   5.0326982e-01	
   5.3625000e+01	   5.7821038e-01	   8.9911669e-02	   4.9454996e-01	
   5.3680000e+01	   5.7434560e-01	   8.7443359e-02	   4.8526180e-01	
   5.3735000e+01	   5.7003775e-01	   8.5048602e-02	   4.7557724e-01	
   5.3790000e+01	   5.6532866e-01	   8.2708134e-02	   4.6567429e-01	
   5.3845000e+01	   5.6024113e-01	   8.0382572e-02	   4.5572920e-01	
   5.3900000e+01	   5.5477268e-01	   7.8017387e-02	   4.4590701e-01	
   5.3955000e+01	   5.4889258e-01	   7.5550315e-02	   4.3635277e-01	
   5.4010000e+01	   5.4254287e-01	   7.2919638e-02	   4.2718532e-01	
   5.4065000e+01	   5.3564438e-01	   7.0072498e-02	   4.1849462e-01	
   5.4120000e+01	   5.2810775e-01	   6.6972396e-02	   4.1034224e-01	
   5.4175000e+01	   5.1984736e-01	   6.3604777e-02	   4.0276388e-01	
   5.4230000e+01	   5.1079530e-01	   5.9979830e-02	   3.9577184e-01	
   5.4285000e+01	   5.0091247e-01	   5.6131573e-02	   3.8935618e-01	
   5.4340000e+01	   4.9019515e-01	   5.2112671e-02	   3.8348400e-01	
   5.4395000e+01	   4.7867648e-01	   4.7985757e-02	   3.7809785e-01	
   5.4450000e+01	   4.6642323e-01	   4.3813523e-02	   3.7311423e-01	
   5.4505000e+01	   4.5352939e-01	   3.9649658e-02	   3.6842324e-01	
   5.4560000e+01	   4.4010746e-01	   3.5530964e-02	   3.6388952e-01	
   5.4615000e+01	   4.2627816e-01	   3.1470299e-02	   3.5935522e-01	
   5.4670000e+01	   4.1215948e-01	   2.7451487e-02	   3.5464588e-01	
   5.4725000e+01	   3.9785645e-01	   2.3428387e-02	   3.4957958e-01	
   5.4780000e+01	   3.8345269e-01	   1.9328906e-02	   3.4397786e-01	
   5.4835000e+01	   3.6900444e-01	   1.5062976e-02	   3.3767583e-01	
   5.4890000e+01	   3.5453792e-01	   1.0533527e-02	   3.3053121e-01	
   5.4945000e+01	   3.4005167e-01	   5.6496702e-03	   3.2243280e-01	
   5.5000000e+01	   3.2552453e-01	   3.3974698e-04	   3.1330851e-01	
   5.5055000e+01	   3.1092764e-01	  -5.4391325e-03	   3.0313133e-01	
   5.5110000e+01	   2.9623730e-01	  -1.1697151e-02	   2.9192188e-01	
   5.5165000e+01	   2.8144601e-01	  -1.8413268e-02	   2.7974658e-01	
   5.5220000e+01	   2.6656975e-01	  -2.5540540e-02	   2.6671090e-01	
   5.5275000e+01	   2.5165135e-01	  -3.3013139e-02	   2.5294924e-01	
   5.5330000e+01	   2.3676019e-01	  -4.0753104e-02	   2.3861476e-01	
   5.5385000e+01	   2.2198942e-01	  -4.8675776e-02	   2.2387088e-01	
   5.5440000e+01	   2.0745080e-01	  -5.6694030e-02	   2.0888359e-01	
   5.5495000e+01	   1.9326724e-01	  -6.4721762e-02	   1.9381322e-01	
   5.5550000e+01	   1.7956337e-01	  -7.2676703e-02	   1.7880600e-01	
   5.5605000e+01	   1.6645488e-01	  -8.0482489e-02	   1.6398589e-01	
   5.5660000e+01	   1.5403721e-01	  -8.8070341e-02	   1.4944740e-01	
   5.5715000e+01	   1.4237492e-01	  -9.5381404e-02	   1.3525020e-01	
   5.5770000e+01	   1.3149372e-01	  -1.0237000e-01	   1.2141748e-01	
   5.5825000e+01	   1.2137795e-01	  -1.0900582e-01	   1.0793879e-01	
   5.5880000e+01	   1.1197460e-01	  -1.1527228e-01	   9.4777754e-02	
   5.5935000e+01	   1.0320285e-01	  -1.2116098e-01	   8.1883788e-02	
   5.5990000e+01	   9.4966859e-02	  -1.2666515e-01	   6.9205990e-02	
   5.6045000e+01	   8.7169005e-02	  -1.3177492e-01	   5.6706428e-02	
   5.6100000e+01	   7.9721672e-02	  -1.3647606e-01	   4.4370399e-02	
   5.6155000e+01	   7.2555510e-02	  -1.4075196e-01	   3.2212071e-02	
   5.6210000e+01	   6.5623031e-02	  -1.4458846e-01	   2.0274621e-02	
   5.6265000e+01	   5.8897544e-02	  -1.4797981e-01	   8.6252072e-03	
   5.6320000e+01	   5.2368492e-02	  -1.5093362e-01	  -2.6538018e-03	
   5.6375000e+01	   4.6034393e-02	  -1.5347313e-01	  -1.3476280e-02	
   5.6430000e+01	   3.9894582e-02	  -1.5563665e-01	  -2.3765617e-02	
   5.6485000e+01	   3.3941173e-02	  -1.5747448e-01	  -3.3467905e-02	
   5.6540000e+01	   2.8152760e-02	  -1.5904472e-01	  -4.2562363e-02	
   5.6595000e+01	   2.2491092e-02	  -1.6040875e-01	  -5.1066955e-02	
   5.6650000e+01	   1.6901796e-02	  -1.6162596e-01	  -5.9037817e-02	
   5.6705000e+01	   1.1319888e-02	  -1.6274691e-01	  -6.6562033e-02	
   5.6760000e+01	   5.6794125e-03	  -1.6380608e-01	  -7.3745517e-02	
   5.6815000e+01	  -7.5500399e-05	  -1.6481716e-01	  -8.0700047e-02	
   5.6870000e+01	  -5.9811541e-03	  -1.6577265e-01	  -8.7533232e-02	
   5.6925000e+01	  -1.2047783e-02	  -1.6664698e-01	  -9.4342870e-02	
   5.6980000e+01	  -1.8256150e-02	  -1.6740145e-01	  -1.0121504e-01	
   5.7035000e+01	  -2.4557545e-02	  -1.6799025e-01	  -1.0822428e-01	
   5.7090000e+01	  -3.0877878e-02	  -1.6836718e-01	  -1.1543424e-01	
   5.7145000e+01	  -3.7126050e-02	  -1.6849176e-01	  -1.2289765e-01	
   5.7200000e+01	  -4.3205636e-02	  -1.6833359e-01	  -1.3065546e-01	
   5.7255000e+01	  -4.9027871e-02	  -1.6787494e-01	  -1.3873572e-01	
   5.7310000e+01	  -5.4523719e-02	  -1.6711156e-01	  -1.4715341e-01	
   5.7365000e+01	  -5.9653073e-02	  -1.6605089e-01	  -1.5591104e-01	
   5.7420000e+01	  -6.4409582e-02	  -1.6470816e-01	  -1.6499883e-01	
   5.7475000e+01	  -6.8820082e-02	  -1.6310203e-01	  -1.7439457e-01	
   5.7530000e+01	  -7.2938269e-02	  -1.6125172e-01	  -1.8406393e-01	
   5.7585000e+01	  -7.6833291e-02	  -1.5917621e-01	  -1.9396179e-01	
   5.7640000e+01	  -8.0575105e-02	  -1.5689470e-01	  -2.0403480e-01	
   5.7695000e+01	  -8.4219414e-02	  -1.5442780e-01	  -2.1422480e-01	
   5.7750000e+01	  -8.7795553e-02	  -1.5179941e-01	  -2.2447255e-01	
   5.7805000e+01	  -9.1299862e-02	  -1.4903853e-01	  -2.3472031e-01	
   5.7860000e+01	  -9.4695178e-02	  -1.4618015e-01	  -2.4491275e-01	
   5.7915000e+01	  -9.7915801e-02	  -1.4326512e-01	  -2.5499685e-01	
   5.7970000e+01	  -1.0087667e-01	  -1.4034075e-01	  -2.6492206e-01	
   5.8025000e+01	  -1.0348467e-01	  -1.3746213e-01	  -2.7464120e-01	
   5.8080000e+01	  -1.0564972e-01	  -1.3469312e-01	  -2.8411233e-01	
   5.8135000e+01	  -1.0729480e-01	  -1.3210584e-01	  -2.9330147e-01	
   5.8190000e+01	  -1.0836504e-01	  -1.2977920e-01	  -3.0218468e-01	
   5.8245000e+01	  -1.0883560e-01	  -1.2779707e-01	  -3.1074756e-01	
   5.8300000e+01	  -1.0871637e-01	  -1.2624541e-01	  -3.1898057e-01	
   5.8355000e+01	  -1.0805110e-01	  -1.2520762e-01	  -3.2687102e-01	
   5.8410000e+01	  -1.0691064e-01	  -1.2475838e-01	  -3.3439476e-01	
   5.8465000e+01	  -1.0538215e-01	  -1.2495752e-01	  -3.4151118e-01	
   5.8520000e+01	  -1.0355776e-01	  -1.2584484e-01	  -3.4816342e-01	
   5.8575000e+01	  -1.0152545e-01	  -1.2743609e-01	  -3.5428305e-01	
   5.8630000e+01	  -9.9363437e-02	  -1.2972091e-01	  -3.5979763e-01	
   5.8685000e+01	  -9.7138236e-02	  -1.3266329e-01	  -3.6463922e-01	
   5.8740000e+01	  -9.4904923e-02	  -1.3620480e-01	  -3.6875161e-01	
   5.8795000e+01	  -9.2708966e-02	  -1.4026948e-01	  -3.7209495e-01	
   5.8850000e+01	  -9.0589894e-02	  -1.4476876e-01	  -3.7464816e-01	
   5.8905000e+01	  -8.8587105e-02	  -1.4960483e-01	  -3.7641043e-01	
   5.8960000e+01	  -8.6746851e-02	  -1.5467187e-01	  -3.7740217e-01	
   5.9015000e+01	  -8.5128488e-02	  -1.5985598e-01	  -3.7766634e-01	
   5.9070000e+01	  -8.3808212e-02	  -1.6503512e-01	  -3.7727129e-01	
   5.9125000e+01	  -8.2879028e-02	  -1.7008029e-01	  -3.7631353e-01	
   5.9180000e+01	  -8.2445844e-02	  -1.7485728e-01	  -3.7491683e-01	
   5.9235000e+01	  -8.2615037e-02	  -1.7922846e-01	  -3.7322497e-01	
   5.9290000e+01	  -8.3479477e-02	  -1.8305516e-01	  -3.7138910e-01	
   5.9345000e+01	  -8.5101968e-02	  -1.8620132e-01	  -3.6955336e-01	
   5.9400000e+01	  -8.7500735e-02	  -1.8853805e-01	  -3.6784238e-01	
   5.9455000e+01	  -9.0639628e-02	  -1.8994980e-01	  -3.6635295e-01	
   5.9510000e+01	  -9.4424406e-02	  -1.9034275e-01	  -3.6515066e-01	
   5.9565000e+01	  -9.8705155e-02	  -1.8965498e-01	  -3.6427038e-01	
   5.9620000e+01	  -1.0328374e-01	  -1.8786643e-01	  -3.6371875e-01	
   5.9675000e+01	  -1.0792445e-01	  -1.8500658e-01	  -3.6347733e-01	
   5.9730000e+01	  -1.1236654e-01	  -1.8115827e-01	  -3.6350694e-01	
   5.9785000e+01	  -1.1633804e-01	  -1.7645666e-01	  -3.6375270e-01	
   5.9840000e+01	  -1.1957019e-01	  -1.7108231e-01	  -3.6414770e-01	
   5.9895000e+01	  -1.2181048e-01	  -1.6524788e-01	  -3.6461322e-01	
   5.9950000e+01	  -1.2283326e-01	  -1.5917999e-01	  -3.6505636e-01	
   6.0005000e+01	  -1.2244715e-01	  -1.5309888e-01	  -3.6536776e-01	
   6.0060000e+01	  -1.2049944e-01	  -1.4719916e-01	  -3.6542073e-01	
   6.0115000e+01	  -1.1687675e-01	  -1.4163446e-01	  -3.6507255e-01	
   6.0170000e+01	  -1.1150286e-01	  -1.3650898e-01	  -3.6416898e-01	
   6.0225000e+01	  -1.0433503e-01	  -1.3187725e-01	  -3.6255215e-01	
   6.0280000e+01	  -9.5359832e-02	  -1.2774991e-01	  -3.6006979e-01	
   6.0335000e+01	  -8.4588470e-02	  -1.2410159e-01	  -3.5658368e-01	
   6.0390000e+01	  -7.2052579e-02	  -1.2087847e-01	  -3.5197716e-01	
   6.0445000e+01	  -5.7801860e-02	  -1.1800538e-01	  -3.4616273e-01	
   6.0500000e+01	  -4.1904375e-02	  -1.1539364e-01	  -3.3908948e-01	
   6.0555000e+01	  -2.4449156e-02	  -1.1295099e-01	  -3.3074838e-01	
   6.0610000e+01	  -5.5501696e-03	  -1.1059279e-01	  -3.2117403e-01	
   6.0665000e+01	   1.4649779e-02	  -1.0825202e-01	  -3.1044273e-01	
   6.0720000e+01	   3.5976681e-02	  -1.0588565e-01	  -2.9866736e-01	
   6.0775000e+01	   5.8225280e-02	  -1.0347681e-01	  -2.8599039e-01	
   6.0830000e+01	   8.1161027e-02	  -1.0103444e-01	  -2.7257720e-01	
   6.0885000e+01	   1.0452349e-01	  -9.8592111e-02	  -2.5861105e-01	
   6.0940000e+01	   1.2803190e-01	  -9.6205261e-02	  -2.4428869e-01	
   6.0995000e+01	   1.5139440e-01	  -9.3944655e-02	  -2.2981409e-01	
   6.1050000e+01	   1.7432101e-01	  -9.1887422e-02	  -2.1539021e-01	
   6.1105000e+01	   1.9653833e-01	  -9.0109357e-02	  -2.0121158e-01	
   6.1160000e+01	   2.1780341e-01	  -8.8680103e-02	  -1.8746042e-01	
   6.1215000e+01	   2.3791528e-01	  -8.7659626e-02	  -1.7430527e-01	
   6.1270000e+01	   2.5672297e-01	  -8.7094667e-02	  -1.6190028e-01	
   6.1325000e+01	   2.7412886e-01	  -8.7015918e-02	  -1.5038326e-01	
   6.1380000e+01	   2.9008688e-01	  -8.7437097e-02	  -1.3987117e-01	
   6.1435000e+01	   3.0459657e-01	  -8.8355810e-02	  -1.3045256e-01	
   6.1490000e+01	   3.1769433e-01	  -8.9755747e-02	  -1.2217933e-01	
   6.1545000e+01	   3.2944256e-01	  -9.1610100e-02	  -1.1506171e-01	
   6.1600000e+01	   3.3991802e-01	  -9.3885428e-02	  -1.0906882e-01	
   6.1655000e+01	   3.4920105e-01	  -9.6544238e-02	  -1.0413387e-01	
   6.1710000e+01	   3.5736746e-01	  -9.9545317e-02	  -1.0016224e-01	
   6.1765000e+01	   3.6448433e-01	  -1.0284261e-01	  -9.7040575e-02	
   6.1820000e+01	   3.7061090e-01	  -1.0638391e-01	  -9.4645571e-02	
   6.1875000e+01	   3.7580474e-01	  -1.1011004e-01	  -9.2851776e-02	
   6.1930000e+01	   3.8013076e-01	  -1.1395454e-01	  -9.1538532e-02	
   6.1985000e+01	   3.8366969e-01	  -1.1784439e-01	  -9.0596428e-02	
   6.2040000e+01	   3.8652368e-01	  -1.2170160e-01	  -8.9932111e-02	
   6.2095000e+01	   3.8881802e-01	  -1.2544578e-01	  -8.9469978e-02	
   6.2150000e+01	   3.9069896e-01	  -1.2899773e-01	  -8.9151146e-02	
   6.2205000e+01	   3.9232811e-01	  -1.3228455e-01	  -8.8932112e-02	
   6.2260000e+01	   3.9387452e-01	  -1.3524437e-01	  -8.8785000e-02	
   6.2315000e+01	   3.9550602e-01	  -1.3782892e-01	  -8.8698599e-02	
   6.2370000e+01	   3.9738120e-01	  -1.4000363e-01	  -8.8678203e-02	
   6.2425000e+01	   3.9964162e-01	  -1.4174787e-01	  -8.8743887e-02	
   6.2480000e+01	   4.0240429e-01	  -1.4305687e-01	  -8.8927799e-02	
   6.2535000e+01	   4.0575560e-01	  -1.4394359e-01	  -8.9269530e-02	
   6.2590000e+01	   4.0974956e-01	  -1.4443739e-01	  -8.9807965e-02	
   6.2645000e+01	   4.1441162e-01	  -1.4457891e-01	  -9.0570078e-02	
   6.2700000e+01	   4.1974694e-01	  -1.4441420e-01	  -9.1559062e-02	
   6.2755000e+01	   4.2575062e-01	  -1.4399091e-01	  -9.2744030e-02	
   6.2810000e+01	   4.3241733e-01	  -1.4335653e-01	  -9.4053089e-02	
   6.2865000e+01	   4.3974796e-01	  -1.4255765e-01	  -9.5372092e-02	
   6.2920000e+01	   4.4775205e-01	  -1.4163954e-01	  -9.6550379e-02	
   6.2975000e+01	   4.5644628e-01	  -1.4064588e-01	  -9.7411292e-02	
   6.3030000e+01	   4.6585058e-01	  -1.3961864e-01	  -9.7763035e-02	
   6.3085000e+01	   4.7598239e-01	  -1.3859887e-01	  -9.7407696e-02	
   6.3140000e+01	   4.8684905e-01	  -1.3762893e-01	  -9.6149902e-02	
   6.3195000e+01	   4.9843870e-01	  -1.3675509e-01	  -9.3806462e-02	
   6.3250000e+01	   5.1071135e-01	  -1.3602871e-01	  -9.0216131e-02	
   6.3305000e+01	   5.2359162e-01	  -1.3550599e-01	  -8.5248549e-02	
   6.3360000e+01	   5.3696518e-01	  -1.3524745e-01	  -7.8811922e-02	
   6.3415000e+01	   5.5068030e-01	  -1.3531591e-01	  -7.0857983e-02	
   6.3470000e+01	   5.6455549e-01	  -1.3577051e-01	  -6.1383057e-02	
   6.3525000e+01	   5.7839199e-01	  -1.3665657e-01	  -5.0426133e-02	
   6.3580000e+01	   5.9198826e-01	  -1.3799502e-01	  -3.8065528e-02	
   6.3635000e+01	   6.0515379e-01	  -1.3977532e-01	  -2.4414997e-02	
   6.3690000e+01	   6.1772042e-01	  -1.4195356e-01	  -9.6194752e-03	
   6.3745000e+01	   6.2955051e-01	  -1.4445505e-01	   6.1495836e-03	
   6.3800000e+01	   6.4054123e-01	  -1.4718049e-01	   2.2699241e-02	
   6.3855000e+01	   6.5062497e-01	  -1.5001514e-01	   3.9820517e-02	
   6.3910000e+01	   6.5976618e-01	  -1.5283968e-01	   5.7294041e-02	
   6.3965000e+01	   6.6795535e-01	  -1.5554092e-01	   7.4895112e-02	
   6.4020000e+01	   6.7520034e-01	  -1.5802073e-01	   9.2397564e-02	
   6.4075000e+01	   6.8151658e-01	  -1.6020202e-01	   1.0957680e-01	
   6.4130000e+01	   6.8691781e-01	  -1.6203166e-01	   1.2621283e-01	
   6.4185000e+01	   6.9140899e-01	  -1.6348081e-01	   1.4209368e-01	
   6.4240000e+01	   6.9498173e-01	  -1.6454269e-01	   1.5701934e-01	
   6.4295000e+01	   6.9761250e-01	  -1.6522836e-01	   1.7080610e-01	
   6.4350000e+01	   6.9926486e-01	  -1.6556043e-01	   1.8329153e-01	
   6.4405000e+01	   6.9989611e-01	  -1.6556570e-01	   1.9434079e-01	
   6.4460000e+01	   6.9946714e-01	  -1.6526815e-01	   2.0385389e-01	
   6.4515000e+01	   6.9795298e-01	  -1.6468380e-01	   2.1177164e-01	
   6.4570000e+01	   6.9535174e-01	  -1.6381854e-01	   2.1807743e-01	
   6.4625000e+01	   6.9169104e-01	  -1.6266873e-01	   2.2279424e-01	
   6.4680000e+01	   6.8703141e-01	  -1.6122485e-01	   2.2597898e-01	
   6.4735000e+01	   6.8146570e-01	  -1.5947698e-01	   2.2771732e-01	
   6.4790000e+01	   6.7511382e-01	  -1.5742097e-01	   2.2812125e-01	
   6.4845000e+01	   6.6811394e-01	  -1.5506358e-01	   2.2732893e-01	
   6.4900000e+01	   6.6061165e-01	  -1.5242631e-01	   2.2550509e-01	
   6.4955000e+01	   6.5274892e-01	  -1.4954723e-01	   2.2283967e-01	
   6.5010000e+01	   6.4465431e-01	  -1.4648019e-01	   2.1954263e-01	
   6.5065000e+01	   6.3643584e-01	  -1.4329063e-01	   2.1583503e-01	
   6.5120000e+01	   6.2817763e-01	  -1.4004912e-01	   2.1193852e-01	
   6.5175000e+01	   6.1994094e-01	  -1.3682417e-01	   2.0806632e-01	
   6.5230000e+01	   6.1176965e-01	  -1.3367555e-01	   2.0441736e-01	
   6.5285000e+01	   6.0369865e-01	  -1.3064842e-01	   2.0117410e-01	
   6.5340000e+01	   5.9576237e-01	  -1.2776909e-01	   1.9850220e-01	
   6.5395000e+01	   5.8800085e-01	  -1.2504365e-01	   1.9654942e-01	
   6.5450000e+01	   5.8046190e-01	  -1.2246001e-01	   1.9544280e-01	
   6.5505000e+01	   5.7319937e-01	  -1.1999313e-01	   1.9528488e-01	
   6.5560000e+01	   5.6626815e-01	  -1.1761263e-01	   1.9614979e-01	
   6.5615000e+01	   5.5971693e-01	  -1.1529154e-01	   1.9807953e-01	
   6.5670000e+01	   5.5358011e-01	  -1.1301292e-01	   2.0108150e-01	
   6.5725000e+01	   5.4787058e-01	  -1.1077222e-01	   2.0512857e-01	
   6.5780000e+01	   5.4257436e-01	  -1.0857501e-01	   2.1016227e-01	
   6.5835000e+01	   5.3764781e-01	  -1.0643203e-01	   2.1609839e-01	
   6.5890000e+01	   5.3301837e-01	  -1.0435302e-01	   2.2283287e-01	
   6.5945000e+01	   5.2859004e-01	  -1.0234045e-01	   2.3024681e-01	
   6.6000000e+01	   5.2425372e-01	  -1.0038383e-01	   2.3821003e-01	
   6.6055000e+01	   5.1990067e-01	  -9.8456239e-02	   2.4658339e-01	
   6.6110000e+01	   5.1543591e-01	  -9.6514080e-02	   2.5522040e-01	
   6.6165000e+01	   5.1078929e-01	  -9.4500342e-02	   2.6396936e-01	
   6.6220000e+01	   5.0592269e-01	  -9.2350886e-02	   2.7267688e-01	
   6.6275000e+01	   5.0083244e-01	  -9.0002976e-02	   2.8119232e-01	
   6.6330000e+01	   4.9554706e-01	  -8.7405045e-02	   2.8937240e-01	
   6.6385000e+01	   4.9012136e-01	  -8.4526502e-02	   2.9708495e-01	
   6.6440000e+01	   4.8462804e-01	  -8.1365996e-02	   3.0421095e-01	
   6.6495000e+01	   4.7914735e-01	  -7.7956275e-02	   3.1064437e-01	
   6.6550000e+01	   4.7375571e-01	  -7.4364432e-02	   3.1629006e-01	
   6.6605000e+01	   4.6851432e-01	  -7.0688169e-02	   3.2106073e-01	
   6.6660000e+01	   4.6345832e-01	  -6.7049940e-02	   3.2487435e-01	
   6.6715000e+01	   4.5858707e-01	  -6.3590331e-02	   3.2765337e-01	
   6.6770000e+01	   4.5385698e-01	  -6.0460629e-02	   3.2932673e-01	
   6.6825000e+01	   4.4917963e-01	  -5.7814212e-02	   3.2983459e-01	
   6.6880000e+01	   4.4442708e-01	  -5.5797272e-02	   3.2913458e-01	
   6.6935000e+01	   4.3944388e-01	  -5.4540285e-02	   3.2720724e-01	
   6.6990000e+01	   4.3406291e-01	  -5.4151410e-02	   3.2405916e-01	
   6.7045000e+01	   4.2812152e-01	  -5.4712124e-02	   3.1972302e-01	
   6.7100000e+01	   4.2147612e-01	  -5.6274687e-02	   3.1425534e-01	
   6.7155000e+01	   4.1401411e-01	  -5.8860684e-02	   3.0773325e-01	
   6.7210000e+01	   4.0566267e-01	  -6.2459938e-02	   3.0025106e-01	
   6.7265000e+01	   3.9639400e-01	  -6.7029740e-02	   2.9191778e-01	
   6.7320000e+01	   3.8622695e-01	  -7.2495079e-02	   2.8285636e-01	
   6.7375000e+01	   3.7522458e-01	  -7.8750818e-02	   2.7320425e-01	
   6.7430000e+01	   3.6348716e-01	  -8.5666236e-02	   2.6311354e-01	
   6.7485000e+01	   3.5114141e-01	  -9.3091390e-02	   2.5274828e-01	
   6.7540000e+01	   3.3832815e-01	  -1.0086407e-01	   2.4227794e-01	
   6.7595000e+01	   3.2518974e-01	  -1.0881659e-01	   2.3186786e-01	
   6.7650000e+01	   3.1185829e-01	  -1.1678228e-01	   2.2166949e-01	
   6.7705000e+01	   2.9844559e-01	  -1.2460095e-01	   2.1181402e-01	
   6.7760000e+01	   2.8503668e-01	  -1.3212180e-01	   2.0241105e-01	
   6.7815000e+01	   2.7168895e-01	  -1.3920401e-01	   1.9355062e-01	
   6.7870000e+01	   2.5843703e-01	  -1.4571674e-01	   1.8530509e-01	
   6.7925000e+01	   2.4530220e-01	  -1.5153947e-01	   1.7772867e-01	
   6.7980000e+01	   2.3230367e-01	  -1.5656236e-01	   1.7085525e-01	
   6.8035000e+01	   2.1946863e-01	  -1.6068715e-01	   1.6469586e-01	
   6.8090000e+01	   2.0683825e-01	  -1.6382975e-01	   1.5923655e-01	
   6.8145000e+01	   1.9446869e-01	  -1.6592415e-01	   1.5443696e-01	
   6.8200000e+01	   1.8242793e-01	  -1.6692624e-01	   1.5023048e-01	
   6.8255000e+01	   1.7079016e-01	  -1.6681671e-01	   1.4652602e-01	
   6.8310000e+01	   1.5962882e-01	  -1.6560323e-01	   1.4321105e-01	
   6.8365000e+01	   1.4900948e-01	  -1.6332154e-01	   1.4015588e-01	
   6.8420000e+01	   1.3898260e-01	  -1.6003532e-01	   1.3721956e-01	
   6.8475000e+01	   1.2957679e-01	  -1.5583500e-01	   1.3425732e-01	
   6.8530000e+01	   1.2079310e-01	  -1.5083595e-01	   1.3112825e-01	
   6.8585000e+01	   1.1260174e-01	  -1.4517499e-01	   1.2770271e-01	
   6.8640000e+01	   1.0494354e-01	  -1.3900445e-01	   1.2386943e-01	
   6.8695000e+01	   9.7736917e-02	  -1.3248426e-01	   1.1954108e-01	
   6.8750000e+01	   9.0888668e-02	  -1.2577435e-01	   1.1465682e-01	
   6.8805000e+01	   8.4305382e-02	  -1.1902897e-01	   1.0918139e-01	
   6.8860000e+01	   7.7903128e-02	  -1.1239289e-01	   1.0310161e-01	
   6.8915000e+01	   7.1614235e-02	  -1.0599926e-01	   9.6421209e-02	
   6.8970000e+01	   6.5390533e-02	  -9.9969520e-02	   8.9155066e-02	
   6.9025000e+01	   5.9202827e-02	  -9.4414863e-02	   8.1324625e-02	
   6.9080000e+01	   5.3037337e-02	  -8.9437155e-02	   7.2956348e-02	
   6.9135000e+01	   4.6890118e-02	  -8.5128250e-02	   6.4082859e-02	
   6.9190000e+01	   4.0760109e-02	  -8.1568928e-02	   5.4744719e-02	
   6.9245000e+01	   3.4641693e-02	  -7.8828301e-02	   4.4991066e-02	
   6.9300000e+01	   2.8518492e-02	  -7.6962568e-02	   3.4878823e-02	
   6.9355000e+01	   2.2360232e-02	  -7.6011812e-02	   2.4471538e-02	
   6.9410000e+01	   1.6123882e-02	  -7.5994850e-02	   1.3839070e-02	
   6.9465000e+01	   9.7595891e-03	  -7.6903238e-02	   3.0582400e-03	
   6.9520000e+01	   3.2207163e-03	  -7.8696248e-02	  -7.7865369e-03	
   6.9575000e+01	  -3.5244163e-03	  -8.1298858e-02	  -1.8604252e-02	
   6.9630000e+01	  -1.0482569e-02	  -8.4603901e-02	  -2.9301362e-02	
   6.9685000e+01	  -1.7630289e-02	  -8.8478216e-02	  -3.9788699e-02	
   6.9740000e+01	  -2.4914066e-02	  -9.2771686e-02	  -4.9989069e-02	
   6.9795000e+01	  -3.2254888e-02	  -9.7327345e-02	  -5.9843343e-02	
   6.9850000e+01	  -3.9556057e-02	  -1.0199078e-01	  -6.9314578e-02	
   6.9905000e+01	  -4.6713742e-02	  -1.0661805e-01	  -7.8390343e-02	
   6.9960000e+01	  -5.3629548e-02	  -1.1108189e-01	  -8.7082631e-02	
   7.0015000e+01	  -6.0223698e-02	  -1.1527646e-01	  -9.5425559e-02	
   7.0070000e+01	  -6.6447145e-02	  -1.1912081e-01	  -1.0347324e-01	
   7.0125000e+01	  -7.2290882e-02	  -1.2256152e-01	  -1.1129928e-01	
   7.0180000e+01	  -7.7790854e-02	  -1.2557430e-01	  -1.1899615e-01	
   7.0235000e+01	  -8.3027395e-02	  -1.2816345e-01	  -1.2667183e-01	
   7.0290000e+01	  -8.8118665e-02	  -1.3035839e-01	  -1.3444335e-01	
   7.0345000e+01	  -9.3207988e-02	  -1.3220755e-01	  -1.4242794e-01	
   7.0400000e+01	  -9.8446146e-02	  -1.3377136e-01	  -1.5073252e-01	
   7.0455000e+01	  -1.0397174e-01	  -1.3511640e-01	  -1.5944184e-01	
   7.0510000e+01	  -1.0989389e-01	  -1.3631142e-01	  -1.6860675e-01	
   7.0565000e+01	  -1.1628008e-01	  -1.3742527e-01	  -1.7823494e-01	
   7.0620000e+01	  -1.2314986e-01	  -1.3852548e-01	  -1.8828502e-01	
   7.0675000e+01	  -1.3047385e-01	  -1.3967645e-01	  -1.9866436e-01	
   7.0730000e+01	  -1.3817812e-01	  -1.4093754e-01	  -2.0923243e-01	
   7.0785000e+01	  -1.4615381e-01	  -1.4236232e-01	  -2.1981041e-01	
   7.0840000e+01	  -1.5427030e-01	  -1.4399934e-01	  -2.3019584e-01	
   7.0895000e+01	  -1.6238970e-01	  -1.4589310e-01	  -2.4018001e-01	
   7.0950000e+01	  -1.7038080e-01	  -1.4808360e-01	  -2.4956584e-01	
   7.1005000e+01	  -1.7813236e-01	  -1.5060413e-01	  -2.5818436e-01	
   7.1060000e+01	  -1.8556457e-01	  -1.5347827e-01	  -2.6590687e-01	
   7.1115000e+01	  -1.9263747e-01	  -1.5671697e-01	  -2.7265044e-01	
   7.1170000e+01	  -1.9935426e-01	  -1.6031572e-01	  -2.7837708e-01	
   7.1225000e+01	  -2.0575882e-01	  -1.6425178e-01	  -2.8308947e-01	
   7.1280000e+01	  -2.1192725e-01	  -1.6848250e-01	  -2.8682597e-01	
   7.1335000e+01	  -2.1795455e-01	  -1.7294465e-01	  -2.8965581e-01	
   7.1390000e+01	  -2.2393903e-01	  -1.7755383e-01	  -2.9167341e-01	
   7.1445000e+01	  -2.2996835e-01	  -1.8220431e-01	  -2.9299088e-01	
   7.1500000e+01	  -2.3610992e-01	  -1.8677101e-01	  -2.9372936e-01	
   7.1555000e+01	  -2.4240636e-01	  -1.9111434e-01	  -2.9401123e-01	
   7.1610000e+01	  -2.4887560e-01	  -1.9508676e-01	  -2.9395563e-01	
   7.1665000e+01	  -2.5551497e-01	  -1.9854043e-01	  -2.9367859e-01	
   7.1720000e+01	  -2.6230829e-01	  -2.0133546e-01	  -2.9329645e-01	
   7.1775000e+01	  -2.6923401e-01	  -2.0334790e-01	  -2.9292907e-01	
   7.1830000e+01	  -2.7627263e-01	  -2.0447654e-01	  -2.9269952e-01	
   7.1885000e+01	  -2.8341244e-01	  -2.0464769e-01	  -2.9272980e-01	
   7.1940000e+01	  -2.9065323e-01	  -2.0381808e-01	  -2.9313516e-01	
   7.1995000e+01	  -2.9800706e-01	  -2.0197623e-01	  -2.9401904e-01	
   7.2050000e+01	  -3.0549504e-01	  -1.9914266e-01	  -2.9546914e-01	
   7.2105000e+01	  -3.1313976e-01	  -1.9536836e-01	  -2.9755417e-01	
   7.2160000e+01	  -3.2095535e-01	  -1.9073098e-01	  -3.0032166e-01	
   7.2215000e+01	  -3.2893828e-01	  -1.8532963e-01	  -3.0379692e-01	
   7.2270000e+01	  -3.3706135e-01	  -1.7927944e-01	  -3.0798360e-01	
   7.2325000e+01	  -3.4527161e-01	  -1.7270786e-01	  -3.1286549e-01	
   7.2380000e+01	  -3.5349208e-01	  -1.6575332e-01	  -3.1840968e-01	
   7.2435000e+01	  -3.6162583e-01	  -1.5856494e-01	  -3.2457061e-01	
   7.2490000e+01	  -3.6956169e-01	  -1.5130021e-01	  -3.3129362e-01	
   7.2545000e+01	  -3.7718122e-01	  -1.4411951e-01	  -3.3851583e-01	
   7.2600000e+01	  -3.8436681e-01	  -1.3717857e-01	  -3.4616364e-01	
   7.2655000e+01	  -3.9100996e-01	  -1.3062104e-01	  -3.5414765e-01	
   7.2710000e+01	  -3.9701864e-01	  -1.2457295e-01	  -3.6235795e-01	
   7.2765000e+01	  -4.0232300e-01	  -1.1914024e-01	  -3.7066280e-01	
   7.2820000e+01	  -4.0687900e-01	  -1.1440839e-01	  -3.7891171e-01	
   7.2875000e+01	  -4.1066849e-01	  -1.1044181e-01	  -3.8694162e-01	
   7.2930000e+01	  -4.1369466e-01	  -1.0728077e-01	  -3.9458335e-01	
   7.2985000e+01	  -4.1597383e-01	  -1.0493692e-01	  -4.0166713e-01	
   7.3040000e+01	  -4.1752695e-01	  -1.0339011e-01	  -4.0802733e-01	
   7.3095000e+01	  -4.1837323e-01	  -1.0258789e-01	  -4.1350734e-01	
   7.3150000e+01	  -4.1852670e-01	  -1.0244760e-01	  -4.1796519e-01	
   7.3205000e+01	  -4.1799543e-01	  -1.0286063e-01	  -4.2128048e-01	
   7.3260000e+01	  -4.1678306e-01	  -1.0369929e-01	  -4.2336184e-01	
   7.3315000e+01	  -4.1489214e-01	  -1.0482596e-01	  -4.2415374e-01	
   7.3370000e+01	  -4.1232906e-01	  -1.0610297e-01	  -4.2364173e-01	
   7.3425000e+01	  -4.0911009e-01	  -1.0740207e-01	  -4.2185598e-01	
   7.3480000e+01	  -4.0526858e-01	  -1.0861265e-01	  -4.1887349e-01	
   7.3535000e+01	  -4.0086220e-01	  -1.0964831e-01	  -4.1481828e-01	
   7.3590000e+01	  -3.9597827e-01	  -1.1045035e-01	  -4.0985784e-01	
   7.3645000e+01	  -3.9073473e-01	  -1.1098722e-01	  -4.0419435e-01	
   7.3700000e+01	  -3.8527522e-01	  -1.1125065e-01	  -3.9805111e-01	
   7.3755000e+01	  -3.7975792e-01	  -1.1125011e-01	  -3.9165697e-01	
   7.3810000e+01	  -3.7434029e-01	  -1.1100701e-01	  -3.8523195e-01	
   7.3865000e+01	  -3.6916319e-01	  -1.1054941e-01	  -3.7897637e-01	
   7.3920000e+01	  -3.6433812e-01	  -1.0990704e-01	  -3.7306402e-01	
   7.3975000e+01	  -3.5993964e-01	  -1.0910724e-01	  -3.6763859e-01	
   7.4030000e+01	  -3.5600402e-01	  -1.0817279e-01	  -3.6281232e-01	
   7.4085000e+01	  -3.5253361e-01	  -1.0712267e-01	  -3.5866536e-01	
   7.4140000e+01	  -3.4950533e-01	  -1.0597536e-01	  -3.5524492e-01	
   7.4195000e+01	  -3.4688088e-01	  -1.0475304e-01	  -3.5256430e-01	
   7.4250000e+01	  -3.4461707e-01	  -1.0348555e-01	  -3.5060229e-01	
   7.4305000e+01	  -3.4267577e-01	  -1.0221396e-01	  -3.4930437e-01	
   7.4360000e+01	  -3.4103364e-01	  -1.0099405e-01	  -3.4858671e-01	
   7.4415000e+01	  -3.3969007e-01	  -9.9898433e-02	  -3.4834288e-01	
   7.4470000e+01	  -3.3867097e-01	  -9.9015007e-02	  -3.4845259e-01	
   7.4525000e+01	  -3.3802610e-01	  -9.8440494e-02	  -3.4879117e-01	
   7.4580000e+01	  -3.3782014e-01	  -9.8269993e-02	  -3.4923823e-01	
   7.4635000e+01	  -3.3811885e-01	  -9.8584814e-02	  -3.4968462e-01	
   7.4690000e+01	  -3.3897390e-01	  -9.9440594e-02	  -3.5003739e-01	
   7.4745000e+01	  -3.4040938e-01	  -1.0085765e-01	  -3.5022315e-01	
   7.4800000e+01	  -3.4241224e-01	  -1.0281563e-01	  -3.5018940e-01	
   7.4855000e+01	  -3.4492706e-01	  -1.0525367e-01	  -3.4990337e-01	
   7.4910000e+01	  -3.4785487e-01	  -1.0807581e-01	  -3.4934916e-01	
   7.4965000e+01	  -3.5105600e-01	  -1.1116063e-01	  -3.4852444e-01	
   7.5020000e+01	  -3.5435797e-01	  -1.1437349e-01	  -3.4743771e-01	
   7.5075000e+01	  -3.5756803e-01	  -1.1757905e-01	  -3.4610552e-01	
   7.5130000e+01	  -3.6048842e-01	  -1.2065182e-01	  -3.4454897e-01	
   7.5185000e+01	  -3.6293200e-01	  -1.2348363e-01	  -3.4278960e-01	
   7.5240000e+01	  -3.6473686e-01	  -1.2598832e-01	  -3.4084541e-01	
   7.5295000e+01	  -3.6577917e-01	  -1.2810443e-01	  -3.3872833e-01	
   7.5350000e+01	  -3.6598249e-01	  -1.2979573e-01	  -3.3644359e-01	
   7.5405000e+01	  -3.6532163e-01	  -1.3104882e-01	  -3.3398946e-01	
   7.5460000e+01	  -3.6381994e-01	  -1.3186799e-01	  -3.3135626e-01	
   7.5515000e+01	  -3.6154051e-01	  -1.3226832e-01	  -3.2852450e-01	
   7.5570000e+01	  -3.5857321e-01	  -1.3226837e-01	  -3.2546308e-01	
   7.5625000e+01	  -3.5502052e-01	  -1.3188420e-01	  -3.2212920e-01	
   7.5680000e+01	  -3.5098502e-01	  -1.3112664e-01	  -3.1847107e-01	
   7.5735000e+01	  -3.4656035e-01	  -1.3000303e-01	  -3.1443373e-01	
   7.5790000e+01	  -3.4182692e-01	  -1.2852223e-01	  -3.0996697e-01	
   7.5845000e+01	  -3.3685174e-01	  -1.2670034e-01	  -3.0503335e-01	
   7.5900000e+01	  -3.3169095e-01	  -1.2456509e-01	  -2.9961431e-01	
   7.5955000e+01	  -3.2639408e-01	  -1.2215895e-01	  -2.9371338e-01	
   7.6010000e+01	  -3.2100900e-01	  -1.1954136e-01	  -2.8735628e-01	
   7.6065000e+01	  -3.1558681e-01	  -1.1678951e-01	  -2.8058830e-01	
   7.6120000e+01	  -3.1018606e-01	  -1.1399717e-01	  -2.7347022e-01	
   7.6175000e+01	  -3.0487640e-01	  -1.1127227e-01	  -2.6607467e-01	
   7.6230000e+01	  -2.9974018e-01	  -1.0873342e-01	  -2.5848392e-01	
   7.6285000e+01	  -2.9487002e-01	  -1.0650474e-01	  -2.5078858e-01	
   7.6340000e+01	  -2.9036188e-01	  -1.0470827e-01	  -2.4308552e-01	
   7.6395000e+01	  -2.8630561e-01	  -1.0345501e-01	  -2.3547357e-01	
   7.6450000e+01	  -2.8277556e-01	  -1.0283592e-01	  -2.2804648e-01	
   7.6505000e+01	  -2.7982290e-01	  -1.0291551e-01	  -2.2088453e-01	
   7.6560000e+01	  -2.7747132e-01	  -1.0372981e-01	  -2.1404768e-01	
   7.6615000e+01	  -2.7571638e-01	  -1.0528751e-01	  -2.0757213e-01	
   7.6670000e+01	  -2.7452782e-01	  -1.0757161e-01	  -2.0147016e-01	
   7.6725000e+01	  -2.7385362e-01	  -1.1053993e-01	  -1.9573170e-01	
   7.6780000e+01	  -2.7362604e-01	  -1.1412612e-01	  -1.9032637e-01	
   7.6835000e+01	  -2.7377001e-01	  -1.1824312e-01	  -1.8520648e-01	
   7.6890000e+01	  -2.7421301e-01	  -1.2278931e-01	  -1.8031242e-01	
   7.6945000e+01	  -2.7489413e-01	  -1.2765564e-01	  -1.7558048e-01	
   7.7000000e+01	  -2.7577054e-01	  -1.3273236e-01	  -1.7095146e-01	
   7.7055000e+01	  -2.7682017e-01	  -1.3791475e-01	  -1.6637820e-01	
   7.7110000e+01	  -2.7804006e-01	  -1.4310668e-01	  -1.6183098e-01	
   7.7165000e+01	  -2.7944009e-01	  -1.4822098e-01	  -1.5729975e-01	
   7.7220000e+01	  -2.8103345e-01	  -1.5317683e-01	  -1.5279254e-01	
   7.7275000e+01	  -2.8282637e-01	  -1.5789676e-01	  -1.4833136e-01	
   7.7330000e+01	  -2.8480958e-01	  -1.6230625e-01	  -1.4394751e-01	
   7.7385000e+01	  -2.8695313e-01	  -1.6633617e-01	  -1.3967754e-01	
   7.7440000e+01	  -2.8920541e-01	  -1.6992648e-01	  -1.3555958e-01	
   7.7495000e+01	  -2.9149640e-01	  -1.7303025e-01	  -1.3162993e-01	
   7.7550000e+01	  -2.9374441e-01	  -1.7561782e-01	  -1.2792084e-01	
   7.7605000e+01	  -2.9586502e-01	  -1.7768053e-01	  -1.2445988e-01	
   7.7660000e+01	  -2.9778072e-01	  -1.7923267e-01	  -1.2127041e-01	
   7.7715000e+01	  -2.9943012e-01	  -1.8031136e-01	  -1.1837211e-01	
   7.7770000e+01	  -3.0077592e-01	  -1.8097503e-01	  -1.1578139e-01	
   7.7825000e+01	  -3.0180994e-01	  -1.8129944e-01	  -1.1351066e-01	
   7.7880000e+01	  -3.0255354e-01	  -1.8137047e-01	  -1.1156639e-01	
   7.7935000e+01	  -3.0305280e-01	  -1.8127411e-01	  -1.0994632e-01	
   7.7990000e+01	  -3.0336893e-01	  -1.8108632e-01	  -1.0863695e-01	
   7.8045000e+01	  -3.0356587e-01	  -1.8086438e-01	  -1.0761094e-01	
   7.8100000e+01	  -3.0369734e-01	  -1.8064024e-01	  -1.0682423e-01	
   7.8155000e+01	  -3.0379620e-01	  -1.8041569e-01	  -1.0621358e-01	
   7.8210000e+01	  -3.0386804e-01	  -1.8016047e-01	  -1.0569599e-01	
   7.8265000e+01	  -3.0388931e-01	  -1.7981468e-01	  -1.0517083e-01	
   7.8320000e+01	  -3.0380932e-01	  -1.7929533e-01	  -1.0452349e-01	
   7.8375000e+01	  -3.0355582e-01	  -1.7850592e-01	  -1.0362908e-01	
   7.8430000e+01	  -3.0304416e-01	  -1.7734690e-01	  -1.0235633e-01	
   7.8485000e+01	  -3.0218927e-01	  -1.7572563e-01	  -1.0057318e-01	
   7.8540000e+01	  -3.0091856e-01	  -1.7356467e-01	  -9.8154806e-02	
   7.8595000e+01	  -2.9918456e-01	  -1.7080886e-01	  -9.4993041e-02	
   7.8650000e+01	  -2.9697579e-01	  -1.6743167e-01	  -9.1005976e-02	
   7.8705000e+01	  -2.9432439e-01	  -1.6343994e-01	  -8.6146554e-02	
   7.8760000e+01	  -2.9130880e-01	  -1.5887644e-01	  -8.0409891e-02	
   7.8815000e+01	  -2.8805041e-01	  -1.5381935e-01	  -7.3838776e-02	
   7.8870000e+01	  -2.8470405e-01	  -1.4837749e-01	  -6.6525016e-02	
   7.8925000e+01	  -2.8144302e-01	  -1.4268042e-01	  -5.8603682e-02	
   7.8980000e+01	  -2.7844159e-01	  -1.3686508e-01	  -5.0240537e-02	
   7.9035000e+01	  -2.7585855e-01	  -1.3106350e-01	  -4.1617163e-02	
   7.9090000e+01	  -2.7382499e-01	  -1.2539529e-01	  -3.2919029e-02	
   7.9145000e+01	  -2.7243733e-01	  -1.1996548e-01	  -2.4327850e-02	
   7.9200000e+01	  -2.7175493e-01	  -1.1486542e-01	  -1.6016066e-02	
   7.9255000e+01	  -2.7180130e-01	  -1.1017496e-01	  -8.1420962e-03	
   7.9310000e+01	  -2.7256806e-01	  -1.0596550e-01	  -8.4723621e-04	
   7.9365000e+01	  -2.7402079e-01	  -1.0230302e-01	   5.7460019e-03	
   7.9420000e+01	  -2.7610594e-01	  -9.9248878e-02	   1.1536615e-02	
   7.9475000e+01	  -2.7875797e-01	  -9.6857551e-02	   1.6450251e-02	
   7.9530000e+01	  -2.8190605e-01	  -9.5173239e-02	   2.0444640e-02	
   7.9585000e+01	  -2.8547906e-01	  -9.4227053e-02	   2.3512506e-02	
   7.9640000e+01	  -2.8940681e-01	  -9.4033847e-02	   2.5681546e-02	
   7.9695000e+01	  -2.9361680e-01	  -9.4587410e-02	   2.7012579e-02	
   7.9750000e+01	  -2.9802792e-01	  -9.5855434e-02	   2.7596143e-02	
   7.9805000e+01	  -3.0254431e-01	  -9.7777066e-02	   2.7547788e-02	
   7.9860000e+01	  -3.0705146e-01	  -1.0026411e-01	   2.7003178e-02	
   7.9915000e+01	  -3.1141573e-01	  -1.0320501e-01	   2.6113583e-02	
   7.9970000e+01	  -3.1548806e-01	  -1.0647054e-01	   2.5040811e-02	
   8.0025000e+01	  -3.1911143e-01	  -1.0992051e-01	   2.3951183e-02	
   8.0080000e+01	  -3.2213032e-01	  -1.1341019e-01	   2.3009273e-02	
   8.0135000e+01	  -3.2440077e-01	  -1.1679624e-01	   2.2371378e-02	
   8.0190000e+01	  -3.2580058e-01	  -1.1994239e-01	   2.2177491e-02	
   8.0245000e+01	  -3.2623908e-01	  -1.2272462e-01	   2.2542430e-02	
   8.0300000e+01	  -3.2566475e-01	  -1.2503475e-01	   2.3549505e-02	
   8.0355000e+01	  -3.2406946e-01	  -1.2678231e-01	   2.5249004e-02	
   8.0410000e+01	  -3.2148843e-01	  -1.2789484e-01	   2.7659814e-02	
   8.0465000e+01	  -3.1799516e-01	  -1.2831634e-01	   3.0771438e-02	
   8.0520000e+01	  -3.1369106e-01	  -1.2800343e-01	   3.4545875e-02	
   8.0575000e+01	  -3.0869141e-01	  -1.2692032e-01	   3.8920117e-02	
   8.0630000e+01	  -3.0311087e-01	  -1.2503425e-01	   4.3809990e-02	
   8.0685000e+01	  -2.9705176e-01	  -1.2231305e-01	   4.9116013e-02	
   8.0740000e+01	  -2.9059673e-01	  -1.1872565e-01	   5.4731077e-02	
   8.0795000e+01	  -2.8380566e-01	  -1.1424560e-01	   6.0548466e-02	
   8.0850000e+01	  -2.7671632e-01	  -1.0885642e-01	   6.6469116e-02	
   8.0905000e+01	  -2.6934825e-01	  -1.0255719e-01	   7.2408518e-02	
   8.0960000e+01	  -2.6170943e-01	  -9.5366955e-02	   7.8303608e-02	
   8.1015000e+01	  -2.5380452e-01	  -8.7327742e-02	   8.4118152e-02	
   8.1070000e+01	  -2.4564367e-01	  -7.8506027e-02	   8.9844585e-02	
   8.1125000e+01	  -2.3725053e-01	  -6.8992900e-02	   9.5502036e-02	
   8.1180000e+01	  -2.2866725e-01	  -5.8902533e-02	   1.0113234e-01	
   8.1235000e+01	  -2.1995410e-01	  -4.8367659e-02	   1.0679612e-01	
   8.1290000e+01	  -2.1118271e-01	  -3.7531793e-02	   1.1256974e-01	
   8.1345000e+01	  -2.0242437e-01	  -2.6540318e-02	   1.1854288e-01	
   8.1400000e+01	  -1.9373645e-01	  -1.5532817e-02	   1.2481583e-01	
   8.1455000e+01	  -1.8515047e-01	  -4.6373378e-03	   1.3149603e-01	
   8.1510000e+01	  -1.7666515e-01	   6.0333631e-03	   1.3869353e-01	
   8.1565000e+01	  -1.6824524e-01	   1.6383422e-02	   1.4651580e-01	
   8.1620000e+01	  -1.5982474e-01	   2.6334079e-02	   1.5506254e-01	
   8.1675000e+01	  -1.5131215e-01	   3.5823581e-02	   1.6442064e-01	
   8.1730000e+01	  -1.4259753e-01	   4.4806515e-02	   1.7465848e-01	
   8.1785000e+01	  -1.3356212e-01	   5.3251545e-02	   1.8581877e-01	
   8.1840000e+01	  -1.2409115e-01	   6.1137619e-02	   1.9791045e-01	
   8.1895000e+01	  -1.1408884e-01	   6.8449923e-02	   2.1089980e-01	
   8.1950000e+01	  -1.0349334e-01	   7.5176591e-02	   2.2470248e-01	
   8.2005000e+01	  -9.2289237e-02	   8.1306902e-02	   2.3917929e-01	
   8.2060000e+01	  -8.0514827e-02	   8.6832158e-02	   2.5413934e-01	
   8.2115000e+01	  -6.8262109e-02	   9.1749527e-02	   2.6935105e-01	
   8.2170000e+01	  -5.5669162e-02	   9.6066535e-02	   2.8455827e-01	
   8.2225000e+01	  -4.2907276e-02	   9.9802739e-02	   2.9949710e-01	
   8.2280000e+01	  -3.0165791e-02	   1.0298757e-01	   3.1390997e-01	
   8.2335000e+01	  -1.7636731e-02	   1.0565620e-01	   3.2755615e-01	
   8.2390000e+01	  -5.5008300e-03	   1.0784558e-01	   3.4022013e-01	
   8.2445000e+01	   6.0831347e-03	   1.0959207e-01	   3.5171964e-01	
   8.2500000e+01	   1.6984289e-02	   1.1093146e-01	   3.6191291e-01	
   8.2555000e+01	   2.7101045e-02	   1.1190136e-01	   3.7070372e-01	
   8.2610000e+01	   3.6359363e-02	   1.1254444e-01	   3.7804173e-01	
   8.2665000e+01	   4.4709212e-02	   1.1291024e-01	   3.8391780e-01	
   8.2720000e+01	   5.2119860e-02	   1.1305509e-01	   3.8835650e-01	
   8.2775000e+01	   5.8574670e-02	   1.1304073e-01	   3.9140926e-01	
   8.2830000e+01	   6.4066371e-02	   1.1293255e-01	   3.9314943e-01	
   8.2885000e+01	   6.8593925e-02	   1.1279843e-01	   3.9366897e-01	
   8.2940000e+01	   7.2162308e-02	   1.1270921e-01	   3.9307610e-01	
   8.2995000e+01	   7.4785945e-02	   1.1274058e-01	   3.9149425e-01	
   8.3050000e+01	   7.6494529e-02	   1.1297390e-01	   3.8906225e-01	
   8.3105000e+01	   7.7338205e-02	   1.1349338e-01	   3.8593451e-01	
   8.3160000e+01	   7.7389832e-02	   1.1437976e-01	   3.8227983e-01	
   8.3215000e+01	   7.6743975e-02	   1.1570311e-01	   3.7827884e-01	
   8.3270000e+01	   7.5513181e-02	   1.1751724e-01	   3.7412054e-01	
   8.3325000e+01	   7.3822033e-02	   1.1985601e-01	   3.6999852e-01	
   8.3380000e+01	   7.1799515e-02	   1.2273170e-01	   3.6610694e-01	
   8.3435000e+01	   6.9570548e-02	   1.2613543e-01	   3.6263657e-01	
   8.3490000e+01	   6.7247616e-02	   1.3003883e-01	   3.5976998e-01	
   8.3545000e+01	   6.4923275e-02	   1.3439569e-01	   3.5767464e-01	
   8.3600000e+01	   6.2664294e-02	   1.3914398e-01	   3.5649403e-01	
   8.3655000e+01	   6.0508391e-02	   1.4420940e-01	   3.5633946e-01	
   8.3710000e+01	   5.8464669e-02	   1.4951012e-01	   3.5728550e-01	
   8.3765000e+01	   5.6518785e-02	   1.5496171e-01	   3.5936994e-01	
   8.3820000e+01	   5.4642996e-02	   1.6048161e-01	   3.6259764e-01	
   8.3875000e+01	   5.2809487e-02	   1.6599379e-01	   3.6694673e-01	
   8.3930000e+01	   5.1003474e-02	   1.7143305e-01	   3.7237505e-01	
   8.3985000e+01	   4.9232330e-02	   1.7674784e-01	   3.7882501e-01	
   8.4040000e+01	   4.7528812e-02	   1.8190042e-01	   3.8622624e-01	
   8.4095000e+01	   4.5948944e-02	   1.8686475e-01	   3.9449608e-01	
   8.4150000e+01	   4.4566101e-02	   1.9162302e-01	   4.0353786e-01	
   8.4205000e+01	   4.3462297e-02	   1.9616158e-01	   4.1323697e-01	
   8.4260000e+01	   4.2717113e-02	   2.0046621e-01	   4.2345566e-01	
   8.4315000e+01	   4.2395183e-02	   2.0451737e-01	   4.3402854e-01	
   8.4370000e+01	   4.2533974e-02	   2.0828670e-01	   4.4476011e-01	
   8.4425000e+01	   4.3133872e-02	   2.1173648e-01	   4.5542489e-01	
   8.4480000e+01	   4.4152614e-02	   2.1482197e-01	   4.6577108e-01	
   8.4535000e+01	   4.5505958e-02	   2.1749687e-01	   4.7552999e-01	
   8.4590000e+01	   4.7075642e-02	   2.1972106e-01	   4.8443224e-01	
   8.4645000e+01	   4.8723746e-02	   2.2146884e-01	   4.9222845e-01	
   8.4700000e+01	   5.0310405e-02	   2.2273566e-01	   4.9870959e-01	
   8.4755000e+01	   5.1710995e-02	   2.2354207e-01	   5.0372326e-01	
   8.4810000e+01	   5.2829863e-02	   2.2393490e-01	   5.0718518e-01	
   8.4865000e+01	   5.3609146e-02	   2.2398498e-01	   5.0908472e-01	
   8.4920000e+01	   5.4032267e-02	   2.2378125e-01	   5.0948279e-01	
   8.4975000e+01	   5.4122704e-02	   2.2342240e-01	   5.0850073e-01	
   8.5030000e+01	   5.3939335e-02	   2.2300867e-01	   5.0630301e-01	
   8.5085000e+01	   5.3569379e-02	   2.2263552e-01	   5.0307891e-01	
   8.5140000e+01	   5.3118865e-02	   2.2238948e-01	   4.9902737e-01	
   8.5195000e+01	   5.2700484e-02	   2.2234565e-01	   4.9434591e-01	
   8.5250000e+01	   5.2419871e-02	   2.2256612e-01	   4.8922186e-01	
   8.5305000e+01	   5.2362079e-02	   2.2309867e-01	   4.8382445e-01	
   8.5360000e+01	   5.2579933e-02	   2.2397564e-01	   4.7829740e-01	
   8.5415000e+01	   5.3086254e-02	   2.2521371e-01	   4.7275419e-01	
   8.5470000e+01	   5.3852509e-02	   2.2681559e-01	   4.6727822e-01	
   8.5525000e+01	   5.4815586e-02	   2.2877329e-01	   4.6192833e-01	
   8.5580000e+01	   5.5891418e-02	   2.3107163e-01	   4.5674690e-01	
   8.5635000e+01	   5.6991192e-02	   2.3369049e-01	   4.5176696e-01	
   8.5690000e+01	   5.8035416e-02	   2.3660546e-01	   4.4701678e-01	
   8.5745000e+01	   5.8963181e-02	   2.3978718e-01	   4.4252241e-01	
   8.5800000e+01	   5.9736266e-02	   2.4320012e-01	   4.3830847e-01	
   8.5855000e+01	   6.0339130e-02	   2.4680182e-01	   4.3439730e-01	
   8.5910000e+01	   6.0775877e-02	   2.5054333e-01	   4.3080603e-01	
   8.5965000e+01	   6.1064796e-02	   2.5437093e-01	   4.2754246e-01	
   8.6020000e+01	   6.1231031e-02	   2.5822847e-01	   4.2460136e-01	
   8.6075000e+01	   6.1298091e-02	   2.6205896e-01	   4.2196288e-01	
   8.6130000e+01	   6.1279143e-02	   2.6580518e-01	   4.1959297e-01	
   8.6185000e+01	   6.1169034e-02	   2.6940918e-01	   4.1744442e-01	
   8.6240000e+01	   6.0938248e-02	   2.7281132e-01	   4.1545802e-01	
   8.6295000e+01	   6.0530572e-02	   2.7595097e-01	   4.1356471e-01	
   8.6350000e+01	   5.9866345e-02	   2.7877068e-01	   4.1169062e-01	
   8.6405000e+01	   5.8851765e-02	   2.8122332e-01	   4.0976533e-01	
   8.6460000e+01	   5.7392175e-02	   2.8327864e-01	   4.0773073e-01	
   8.6515000e+01	   5.5405838e-02	   2.8492632e-01	   4.0554679e-01	
   8.6570000e+01	   5.2835391e-02	   2.8617545e-01	   4.0319261e-01	
   8.6625000e+01	   4.9655531e-02	   2.8705188e-01	   4.0066393e-01	
   8.6680000e+01	   4.5876191e-02	   2.8759336e-01	   3.9796921e-01	
   8.6735000e+01	   4.1541178e-02	   2.8784200e-01	   3.9512570e-01	
   8.6790000e+01	   3.6722932e-02	   2.8783551e-01	   3.9215492e-01	
   8.6845000e+01	   3.1514321e-02	   2.8759970e-01	   3.8907642e-01	
   8.6900000e+01	   2.6018564e-02	   2.8714404e-01	   3.8589969e-01	
   8.6955000e+01	   2.0338945e-02	   2.8646087e-01	   3.8261580e-01	
   8.7010000e+01	   1.4569985e-02	   2.8552820e-01	   3.7919158e-01	
   8.7065000e+01	   8.7907404e-03	   2.8431455e-01	   3.7556833e-01	
   8.7120000e+01	   3.0602468e-03	   2.8278393e-01	   3.7166481e-01	
   8.7175000e+01	  -2.5842854e-03	   2.8089991e-01	   3.6738384e-01	
   8.7230000e+01	  -8.1252094e-03	   2.7862964e-01	   3.6262175e-01	
   8.7285000e+01	  -1.3557586e-02	   2.7594854e-01	   3.5727916e-01	
   8.7340000e+01	  -1.8879016e-02	   2.7284525e-01	   3.5127063e-01	
   8.7395000e+01	  -2.4078570e-02	   2.6932569e-01	   3.4453042e-01	
   8.7450000e+01	  -2.9127006e-02	   2.6541598e-01	   3.3701430e-01	
   8.7505000e+01	  -3.3969831e-02	   2.6116346e-01	   3.2869965e-01	
   8.7560000e+01	  -3.8524881e-02	   2.5663478e-01	   3.1958517e-01	
   8.7615000e+01	  -4.2685899e-02	   2.5191059e-01	   3.0969038e-01	
   8.7670000e+01	  -4.6332247e-02	   2.4707841e-01	   2.9905357e-01	
   8.7725000e+01	  -4.9342989e-02	   2.4222588e-01	   2.8772752e-01	
   8.7780000e+01	  -5.1612596e-02	   2.3743558e-01	   2.7577268e-01	
   8.7835000e+01	  -5.3065688e-02	   2.3278103e-01	   2.6324944e-01	
   8.7890000e+01	  -5.3669043e-02	   2.2832357e-01	   2.5021282e-01	
   8.7945000e+01	  -5.3440208e-02	   2.2410977e-01	   2.3671147e-01	
   8.8000000e+01	  -5.2452575e-02	   2.2017003e-01	   2.2279030e-01	
   8.8055000e+01	  -5.0836028e-02	   2.1651932e-01	   2.0849486e-01	
   8.8110000e+01	  -4.8771168e-02	   2.1316189e-01	   1.9387649e-01	
   8.8165000e+01	  -4.6475979e-02	   2.1009882e-01	   1.7899713e-01	
   8.8220000e+01	  -4.4186886e-02	   2.0733450e-01	   1.6393138e-01	
   8.8275000e+01	  -4.2138718e-02	   2.0487909e-01	   1.4876407e-01	
   8.8330000e+01	  -4.0547674e-02	   2.0274665e-01	   1.3358414e-01	
   8.8385000e+01	  -3.9599121e-02	   2.0095049e-01	   1.1847736e-01	
   8.8440000e+01	  -3.9440098e-02	   1.9949745e-01	   1.0351951e-01	
   8.8495000e+01	  -4.0175635e-02	   1.9838289e-01	   8.8770544e-02	
   8.8550000e+01	  -4.1868210e-02	   1.9758786e-01	   7.4269816e-02	
   8.8605000e+01	  -4.4540154e-02	   1.9707806e-01	   6.0032690e-02	
   8.8660000e+01	  -4.8178757e-02	   1.9680329e-01	   4.6048863e-02	
   8.8715000e+01	  -5.2743388e-02	   1.9669646e-01	   3.2282653e-02	
   8.8770000e+01	  -5.8173775e-02	   1.9667278e-01	   1.8675474e-02	
   8.8825000e+01	  -6.4399165e-02	   1.9663030e-01	   5.1502336e-03	
   8.8880000e+01	  -7.1348425e-02	   1.9645201e-01	  -8.3835574e-03	
   8.8935000e+01	  -7.8960074e-02	   1.9600906e-01	  -2.2025170e-02	
   8.8990000e+01	  -8.7189422e-02	   1.9516612e-01	  -3.5877868e-02	
   8.9045000e+01	  -9.6009737e-02	   1.9378948e-01	  -5.0041929e-02	
   8.9100000e+01	  -1.0540664e-01	   1.9175622e-01	  -6.4605079e-02	
   8.9155000e+01	  -1.1536804e-01	   1.8896145e-01	  -7.9632530e-02	
   8.9210000e+01	  -1.2587314e-01	   1.8532179e-01	  -9.5159638e-02	
   8.9265000e+01	  -1.3688362e-01	   1.8077626e-01	  -1.1118884e-01	
   8.9320000e+01	  -1.4833848e-01	   1.7528652e-01	  -1.2769015e-01	
   8.9375000e+01	  -1.6015305e-01	   1.6883711e-01	  -1.4460310e-01	
   8.9430000e+01	  -1.7222168e-01	   1.6143561e-01	  -1.6183886e-01	
   8.9485000e+01	  -1.8442339e-01	   1.5311285e-01	  -1.7928351e-01	
   8.9540000e+01	  -1.9662950e-01	   1.4392292e-01	  -1.9680460e-01	
   8.9595000e+01	  -2.0871266e-01	   1.3394226e-01	  -2.1426125e-01	
   8.9650000e+01	  -2.2055636e-01	   1.2326781e-01	  -2.3151563e-01	
   8.9705000e+01	  -2.3206449e-01	   1.1201464e-01	  -2.4844286e-01	
   8.9760000e+01	  -2.4317003e-01	   1.0031315e-01	  -2.6493830e-01	
   8.9815000e+01	  -2.5384208e-01	   8.8306051e-02	  -2.8092341e-01	
   8.9870000e+01	  -2.6408970e-01	   7.6146182e-02	  -2.9635092e-01	
   8.9925000e+01	  -2.7396100e-01	   6.3995165e-02	  -3.1120812e-01	
   8.9980000e+01	  -2.8353609e-01	   5.2022010e-02	  -3.2551699e-01	
   9.0035000e+01	  -2.9291436e-01	   4.0400287e-02	  -3.3933121e-01	
   9.0090000e+01	  -3.0219838e-01	   2.9303281e-02	  -3.5273145e-01	
   9.0145000e+01	  -3.1147868e-01	   1.8896969e-02	  -3.6582015e-01	
   9.0200000e+01	  -3.2082270e-01	   9.3309305e-03	  -3.7871631e-01	
   9.0255000e+01	  -3.3026947e-01	   7.2846371e-04	  -3.9154930e-01	
   9.0310000e+01	  -3.3982912e-01	  -6.8215137e-03	  -4.0444967e-01	
   9.0365000e+01	  -3.4948530e-01	  -1.3269090e-02	  -4.1753645e-01	
   9.0420000e+01	  -3.5919951e-01	  -1.8604926e-02	  -4.3090333e-01	
   9.0475000e+01	  -3.6891751e-01	  -2.2859525e-02	  -4.4460819e-01	
   9.0530000e+01	  -3.7857742e-01	  -2.6099943e-02	  -4.5866791e-01	
   9.0585000e+01	  -3.8811827e-01	  -2.8423990e-02	  -4.7305750e-01	
   9.0640000e+01	  -3.9748754e-01	  -2.9953405e-02	  -4.8771311e-01	
   9.0695000e+01	  -4.0664658e-01	  -3.0827550e-02	  -5.0253923e-01	
   9.0750000e+01	  -4.1557207e-01	  -3.1197420e-02	  -5.1741840e-01	
   9.0805000e+01	  -4.2425239e-01	  -3.1218511e-02	  -5.3221999e-01	
   9.0860000e+01	  -4.3267957e-01	  -3.1042361e-02	  -5.4680634e-01	
   9.0915000e+01	  -4.4083989e-01	  -3.0808785e-02	  -5.6103803e-01	
   9.0970000e+01	  -4.4870577e-01	  -3.0641048e-02	  -5.7477898e-01	
   9.1025000e+01	  -4.5623045e-01	  -3.0644728e-02	  -5.8790064e-01	
   9.1080000e+01	  -4.6334601e-01	  -3.0909169e-02	  -6.0028461e-01	
   9.1135000e+01	  -4.6996452e-01	  -3.1509308e-02	  -6.1182389e-01	
   9.1190000e+01	  -4.7598162e-01	  -3.2505915e-02	  -6.2242316e-01	
   9.1245000e+01	  -4.8128211e-01	  -3.3943892e-02	  -6.3199791e-01	
   9.1300000e+01	  -4.8574757e-01	  -3.5849882e-02	  -6.4047304e-01	
   9.1355000e+01	  -4.8926669e-01	  -3.8231287e-02	  -6.4778269e-01	
   9.1410000e+01	  -4.9174807e-01	  -4.1078184e-02	  -6.5387276e-01	
   9.1465000e+01	  -4.9313361e-01	  -4.4367602e-02	  -6.5870545e-01	
   9.1520000e+01	  -4.9340971e-01	  -4.8068351e-02	  -6.6226403e-01	
   9.1575000e+01	  -4.9261408e-01	  -5.2145020e-02	  -6.6455749e-01	
   9.1630000e+01	  -4.9083628e-01	  -5.6560044e-02	  -6.6562448e-01	
   9.1685000e+01	  -4.8821007e-01	  -6.1272406e-02	  -6.6553410e-01	
   9.1740000e+01	  -4.8489806e-01	  -6.6233400e-02	  -6.6438312e-01	
   9.1795000e+01	  -4.8107223e-01	  -7.1382732e-02	  -6.6229215e-01	
   9.1850000e+01	  -4.7689545e-01	  -7.6647787e-02	  -6.5940319e-01	
   9.1905000e+01	  -4.7250710e-01	  -8.1945925e-02	  -6.5587799e-01	
   9.1960000e+01	  -4.6801364e-01	  -8.7188488e-02	  -6.5189561e-01	
   9.2015000e+01	  -4.6348457e-01	  -9.2286144e-02	  -6.4764910e-01	
   9.2070000e+01	  -4.5895358e-01	  -9.7155393e-02	  -6.4334185e-01	
   9.2125000e+01	  -4.5442402e-01	  -1.0172545e-01	  -6.3918375e-01	
   9.2180000e+01	  -4.4987792e-01	  -1.0594459e-01	  -6.3538721e-01	
   9.2235000e+01	  -4.4528794e-01	  -1.0978548e-01	  -6.3216384e-01	
   9.2290000e+01	  -4.4063123e-01	  -1.1324850e-01	  -6.2972177e-01	
   9.2345000e+01	  -4.3590321e-01	  -1.1636173e-01	  -6.2826248e-01	
   9.2400000e+01	  -4.3112875e-01	  -1.1917678e-01	  -6.2797583e-01	
   9.2455000e+01	  -4.2636885e-01	  -1.2176120e-01	  -6.2903309e-01	
   9.2510000e+01	  -4.2172122e-01	  -1.2418933e-01	  -6.3157752e-01	
   9.2565000e+01	  -4.1731371e-01	  -1.2653360e-01	  -6.3571339e-01	
   9.2620000e+01	  -4.1329115e-01	  -1.2885754e-01	  -6.4149486e-01	
   9.2675000e+01	  -4.0979819e-01	  -1.3121102e-01	  -6.4891645e-01	
   9.2730000e+01	  -4.0696124e-01	  -1.3362763e-01	  -6.5790616e-01	
   9.2785000e+01	  -4.0487266e-01	  -1.3612392e-01	  -6.6832204e-01	
   9.2840000e+01	  -4.0357880e-01	  -1.3869997e-01	  -6.7995327e-01	
   9.2895000e+01	  -4.0307373e-01	  -1.4134100e-01	  -6.9252707e-01	
   9.2950000e+01	  -4.0329960e-01	  -1.4401925e-01	  -7.0572213e-01	
   9.3005000e+01	  -4.0415304e-01	  -1.4669590e-01	  -7.1918749e-01	
   9.3060000e+01	  -4.0549638e-01	  -1.4932372e-01	  -7.3256352e-01	
   9.3115000e+01	  -4.0717202e-01	  -1.5185217e-01	  -7.4550145e-01	
   9.3170000e+01	  -4.0901830e-01	  -1.5423537e-01	  -7.5768025e-01	
   9.3225000e+01	  -4.1088532e-01	  -1.5644110e-01	  -7.6882046e-01	
   9.3280000e+01	  -4.1264930e-01	  -1.5845781e-01	  -7.7869501e-01	
   9.3335000e+01	  -4.1422393e-01	  -1.6029746e-01	  -7.8713646e-01	
   9.3390000e+01	  -4.1556717e-01	  -1.6199391e-01	  -7.9404023e-01	
   9.3445000e+01	  -4.1668074e-01	  -1.6359779e-01	  -7.9936266e-01	
   9.3500000e+01	  -4.1760137e-01	  -1.6516903e-01	  -8.0311358e-01	
   9.3555000e+01	  -4.1838514e-01	  -1.6676864e-01	  -8.0534648e-01	
   9.3610000e+01	  -4.1908968e-01	  -1.6845105e-01	  -8.0614949e-01	
   9.3665000e+01	  -4.1975783e-01	  -1.7025790e-01	  -8.0563840e-01	
   9.3720000e+01	  -4.2040551e-01	  -1.7221393e-01	  -8.0395049e-01	
   9.3775000e+01	  -4.2101448e-01	  -1.7432549e-01	  -8.0123881e-01	
   9.3830000e+01	  -4.2153070e-01	  -1.7658179e-01	  -7.9766631e-01	
   9.3885000e+01	  -4.2186809e-01	  -1.7895767e-01	  -7.9339805e-01	
   9.3940000e+01	  -4.2191724e-01	  -1.8141646e-01	  -7.8859087e-01	
   9.3995000e+01	  -4.2155788e-01	  -1.8391228e-01	  -7.8338323e-01	
   9.4050000e+01	  -4.2067373e-01	  -1.8639236e-01	  -7.7788874e-01	
   9.4105000e+01	  -4.1916698e-01	  -1.8879925e-01	  -7.7219489e-01	
   9.4160000e+01	  -4.1696972e-01	  -1.9107302e-01	  -7.6636536e-01	
   9.4215000e+01	  -4.1405022e-01	  -1.9315322e-01	  -7.6044392e-01	
   9.4270000e+01	  -4.1041380e-01	  -1.9498119e-01	  -7.5445838e-01	
   9.4325000e+01	  -4.0609861e-01	  -1.9650226e-01	  -7.4842357e-01	
   9.4380000e+01	  -4.0116785e-01	  -1.9766790e-01	  -7.4234370e-01	
   9.4435000e+01	  -3.9570102e-01	  -1.9843873e-01	  -7.3621495e-01	
   9.4490000e+01	  -3.8978613e-01	  -1.9878867e-01	  -7.3002795e-01	
   9.4545000e+01	  -3.8351410e-01	  -1.9870946e-01	  -7.2376871e-01	
   9.4600000e+01	  -3.7697561e-01	  -1.9821349e-01	  -7.1741806e-01	
   9.4655000e+01	  -3.7026053e-01	  -1.9733431e-01	  -7.1095065e-01	
   9.4710000e+01	  -3.6345962e-01	  -1.9612503e-01	  -7.0433590e-01	
   9.4765000e+01	  -3.5666777e-01	  -1.9465564e-01	  -6.9754168e-01	
   9.4820000e+01	  -3.4998718e-01	  -1.9300905e-01	  -6.9054001e-01	
   9.4875000e+01	  -3.4352935e-01	  -1.9127601e-01	  -6.8331381e-01	
   9.4930000e+01	  -3.3741515e-01	  -1.8955028e-01	  -6.7586321e-01	
   9.4985000e+01	  -3.3177264e-01	  -1.8792467e-01	  -6.6821042e-01	
   9.5040000e+01	  -3.2673199e-01	  -1.8648700e-01	  -6.6040181e-01	
   9.5095000e+01	  -3.2241752e-01	  -1.8531513e-01	  -6.5250635e-01	
   9.5150000e+01	  -3.1893774e-01	  -1.8447133e-01	  -6.4460973e-01	
   9.5205000e+01	  -3.1637431e-01	  -1.8399641e-01	  -6.3680537e-01	
   9.5260000e+01	  -3.1477180e-01	  -1.8390415e-01	  -6.2918572e-01	
   9.5315000e+01	  -3.1413025e-01	  -1.8417759e-01	  -6.2183599e-01	
   9.5370000e+01	  -3.1440225e-01	  -1.8476869e-01	  -6.1483074e-01	
   9.5425000e+01	  -3.1549476e-01	  -1.8560074e-01	  -6.0823180e-01	
   9.5480000e+01	  -3.1727486e-01	  -1.8657181e-01	  -6.0208631e-01	
   9.5535000e+01	  -3.1957896e-01	  -1.8755882e-01	  -5.9642508e-01	
