
0   5   7	
   0.0000000e+00	  -4.4847897e-01	  -1.2617695e-01	
   5.5000000e-02	  -4.6254923e-01	  -1.4091319e-01	
   1.1000000e-01	  -4.7625569e-01	  -1.5551499e-01	
   1.6500000e-01	  -4.8942093e-01	  -1.6980026e-01	
   2.2000000e-01	  -5.0187967e-01	  -1.8359951e-01	
   2.7500000e-01	  -5.1348275e-01	  -1.9676020e-01	
   3.3000000e-01	  -5.2410082e-01	  -2.0915046e-01	
   3.8500000e-01	  -5.3362687e-01	  -2.2066202e-01	
   4.4000000e-01	  -5.4197776e-01	  -2.3121224e-01	
   4.9500000e-01	  -5.4909441e-01	  -2.4074439e-01	
   5.5000000e-01	  -5.5493900e-01	  -2.4922527e-01	
   6.0500000e-01	  -5.5948880e-01	  -2.5664006e-01	
   6.6000000e-01	  -5.6272928e-01	  -2.6298635e-01	
   7.1500000e-01	  -5.6464916e-01	  -2.6826912e-01	
   7.7000000e-01	  -5.6523819e-01	  -2.7249712e-01	
   8.2500000e-01	  -5.6448710e-01	  -2.7568064e-01	
   8.8000000e-01	  -5.6238992e-01	  -2.7783128e-01	
   9.3500000e-01	  -5.5894800e-01	  -2.7896384e-01	
   9.9000000e-01	  -5.5417407e-01	  -2.7909908e-01	
   1.0450000e+00	  -5.4809570e-01	  -2.7826620e-01	
   1.1000000e+00	  -5.4075843e-01	  -2.7650422e-01	
   1.1550000e+00	  -5.3222798e-01	  -2.7386140e-01	
   1.2100000e+00	  -5.2259048e-01	  -2.7039172e-01	
   1.2650000e+00	  -5.1195149e-01	  -2.6615008e-01	
   1.3200000e+00	  -5.0043619e-01	  -2.6118837e-01	
   1.3750000e+00	  -4.8819132e-01	  -2.5555439e-01	
   1.4300000e+00	  -4.7538679e-01	  -2.4929303e-01	
   1.4850000e+00	  -4.6221511e-01	  -2.4244931e-01	
   1.5400000e+00	  -4.4888767e-01	  -2.3507265e-01	
   1.5950000e+00	  -4.3562814e-01	  -2.2722194e-01	
   1.6500000e+00	  -4.2266332e-01	  -2.1897052e-01	
   1.7050000e+00	  -4.1021343e-01	  -2.1040981e-01	
   1.7600000e+00	  -3.9848390e-01	  -2.0165038e-01	
   1.8150000e+00	  -3.8765855e-01	  -1.9281907e-01	
   1.8700000e+00	  -3.7789278e-01	  -1.8405124e-01	
   1.9250000e+00	  -3.6930665e-01	  -1.7547983e-01	
   1.9800000e+00	  -3.6197968e-01	  -1.6722470e-01	
   2.0350000e+00	  -3.5594863e-01	  -1.5938473e-01	
   2.0900000e+00	  -3.5120806e-01	  -1.5203293e-01	
   2.1450000e+00	  -3.4771220e-01	  -1.4521415e-01	
   2.2000000e+00	  -3.4537799e-01	  -1.3894601e-01	
   2.2550000e+00	  -3.4408947e-01	  -1.3322341e-01	
   2.3100000e+00	  -3.4370383e-01	  -1.2802560e-01	
   2.3650000e+00	  -3.4405814e-01	  -1.2332389e-01	
   2.4200000e+00	  -3.4497630e-01	  -1.1908816e-01	
   2.4750000e+00	  -3.4627545e-01	  -1.1529017e-01	
   2.5300000e+00	  -3.4777143e-01	  -1.1190275e-01	
   2.5850000e+00	  -3.4928284e-01	  -1.0889558e-01	
   2.6400000e+00	  -3.5063359e-01	  -1.0623053e-01	
   2.6950000e+00	  -3.5165396e-01	  -1.0385867e-01	
   2.7500000e+00	  -3.5218053e-01	  -1.0171941e-01	
   2.8050000e+00	  -3.5205563e-01	  -9.9741866e-02	
   2.8600000e+00	  -3.5112744e-01	  -9.7848480e-02	
   2.9150000e+00	  -3.4925137e-01	  -9.5960457e-02	
   2.9700000e+00	  -3.4629311e-01	  -9.4003802e-02	
   3.0250000e+00	  -3.4213282e-01	  -9.1914941e-02	
   3.0800000e+00	  -3.3667029e-01	  -8.9645610e-02	
   3.1350000e+00	  -3.2983014e-01	  -8.7166695e-02	
   3.1900000e+00	  -3.2156626e-01	  -8.4470107e-02	
   3.2450000e+00	  -3.1186474e-01	  -8.1567912e-02	
   3.3000000e+00	  -3.0074595e-01	  -7.8488745e-02	
   3.3550000e+00	  -2.8826562e-01	  -7.5272248e-02	
   3.4100000e+00	  -2.7451399e-01	  -7.1962421e-02	
   3.4650000e+00	  -2.5961267e-01	  -6.8601125e-02	
   3.5200000e+00	  -2.4371028e-01	  -6.5223216e-02	
   3.5750000e+00	  -2.2697794e-01	  -6.1854210e-02	
   3.6300000e+00	  -2.0960459e-01	  -5.8510420e-02	
   3.6850000e+00	  -1.9179284e-01	  -5.5200842e-02	
   3.7400000e+00	  -1.7375597e-01	  -5.1929725e-02	
   3.7950000e+00	  -1.5571493e-01	  -4.8698595e-02	
   3.8500000e+00	  -1.3789369e-01	  -4.5506843e-02	
   3.9050000e+00	  -1.2051209e-01	  -4.2350833e-02	
   3.9600000e+00	  -1.0377744e-01	  -3.9222114e-02	
   4.0150000e+00	  -8.7875960e-02	  -3.6105437e-02	
   4.0700000e+00	  -7.2964461e-02	  -3.2977344e-02	
   4.1250000e+00	  -5.9163009e-02	  -2.9806078e-02	
   4.1800000e+00	  -4.6550347e-02	  -2.6553082e-02	
   4.2350000e+00	  -3.5163263e-02	  -2.3175673e-02	
   4.2900000e+00	  -2.4999762e-02	  -1.9630640e-02	
   4.3450000e+00	  -1.6025305e-02	  -1.5879086e-02	
   4.4000000e+00	  -8.1821121e-03	  -1.1892562e-02	
   4.4550000e+00	  -1.4010962e-03	  -7.6593213e-03	
   4.5100000e+00	   4.3860059e-03	  -3.1887426e-03	
   4.5650000e+00	   9.2373821e-03	   1.4876815e-03	
   4.6200000e+00	   1.3196260e-02	   6.3194943e-03	
   4.6750000e+00	   1.6290375e-02	   1.1244227e-02	
   4.7300000e+00	   1.8534975e-02	   1.6196668e-02	
   4.7850000e+00	   1.9937476e-02	   2.1117764e-02	
   4.8400000e+00	   2.0501536e-02	   2.5960227e-02	
   4.8950000e+00	   2.0229271e-02	   3.0689713e-02	
   4.9500000e+00	   1.9121448e-02	   3.5282644e-02	
   5.0050000e+00	   1.7176210e-02	   3.9722187e-02	
   5.0600000e+00	   1.4387700e-02	   4.3993072e-02	
   5.1150000e+00	   1.0746021e-02	   4.8075818e-02	
   5.1700000e+00	   6.2385552e-03	   5.1941432e-02	
   5.2250000e+00	   8.5167074e-04	   5.5547649e-02	
   5.2800000e+00	  -5.4273720e-03	   5.8837962e-02	
   5.3350000e+00	  -1.2607058e-02	   6.1744704e-02	
   5.3900000e+00	  -2.0685612e-02	   6.4196178e-02	
   5.4450000e+00	  -2.9642880e-02	   6.6125431e-02	
   5.5000000e+00	  -3.9432454e-02	   6.7477366e-02	
   5.5550000e+00	  -4.9976532e-02	   6.8212455e-02	
   5.6100000e+00	  -6.1164299e-02	   6.8307312e-02	
   5.6650000e+00	  -7.2853071e-02	   6.7753014e-02	
   5.7200000e+00	  -8.4871354e-02	   6.6551723e-02	
   5.7750000e+00	  -9.7023491e-02	   6.4712269e-02	
   5.8300000e+00	  -1.0909595e-01	   6.2245789e-02	
   5.8850000e+00	  -1.2086561e-01	   5.9162078e-02	
   5.9400000e+00	  -1.3211042e-01	   5.5466258e-02	
   5.9950000e+00	  -1.4262183e-01	   5.1155709e-02	
   6.0500000e+00	  -1.5221686e-01	   4.6218825e-02	
   6.1050000e+00	  -1.6074727e-01	   4.0637509e-02	
   6.1600000e+00	  -1.6810510e-01	   3.4393546e-02	
   6.2150000e+00	  -1.7422548e-01	   2.7477080e-02	
   6.2700000e+00	  -1.7908796e-01	   1.9894843e-02	
   6.3250000e+00	  -1.8271681e-01	   1.1675978e-02	
   6.3800000e+00	  -1.8518147e-01	   2.8739883e-03	
   6.4350000e+00	  -1.8659761e-01	  -6.4351455e-03	
   6.4900000e+00	  -1.8712773e-01	  -1.6157592e-02	
   6.5450000e+00	  -1.8697975e-01	  -2.6188010e-02	
   6.6000000e+00	  -1.8640277e-01	  -3.6416805e-02	
   6.6550000e+00	  -1.8568004e-01	  -4.6737215e-02	
   6.7100000e+00	  -1.8511995e-01	  -5.7051203e-02	
   6.7650000e+00	  -1.8504539e-01	  -6.7273757e-02	
   6.8200000e+00	  -1.8578120e-01	  -7.7335451e-02	
   6.8750000e+00	  -1.8763881e-01	  -8.7182770e-02	
   6.9300000e+00	  -1.9089808e-01	  -9.6775747e-02	
   6.9850000e+00	  -1.9578699e-01	  -1.0608350e-01	
   7.0400000e+00	  -2.0245983e-01	  -1.1507918e-01	
   7.0950000e+00	  -2.1097363e-01	  -1.2373535e-01	
   7.1500000e+00	  -2.2126573e-01	  -1.3201990e-01	
   7.2050000e+00	  -2.3314050e-01	  -1.3989275e-01	
   7.2600000e+00	  -2.4627373e-01	  -1.4730469e-01	
   7.3150000e+00	  -2.6023484e-01	  -1.5419860e-01	
   7.3700000e+00	  -2.7451831e-01	  -1.6051174e-01	
   7.4250000e+00	  -2.8857535e-01	  -1.6617705e-01	
   7.4800000e+00	  -3.0184120e-01	  -1.7112306e-01	
   7.5350000e+00	  -3.1375748e-01	  -1.7527248e-01	
   7.5900000e+00	  -3.2379011e-01	  -1.7854057e-01	
   7.6450000e+00	  -3.3144409e-01	  -1.8083468e-01	
   7.7000000e+00	  -3.3627647e-01	  -1.8205618e-01	
   7.7550000e+00	  -3.3790819e-01	  -1.8210475e-01	
   7.8100000e+00	  -3.3603519e-01	  -1.8088474e-01	
   7.8650000e+00	  -3.3043937e-01	  -1.7831365e-01	
   7.9200000e+00	  -3.2100001e-01	  -1.7433290e-01	
   7.9750000e+00	  -3.0770453e-01	  -1.6891946e-01	
   8.0300000e+00	  -2.9065711e-01	  -1.6209548e-01	
   8.0850000e+00	  -2.7008434e-01	  -1.5393411e-01	
   8.1400000e+00	  -2.4633787e-01	  -1.4456097e-01	
   8.1950000e+00	  -2.1989366e-01	  -1.3415189e-01	
   8.2500000e+00	  -1.9134671e-01	  -1.2292794e-01	
   8.3050000e+00	  -1.6139979e-01	  -1.1114832e-01	
   8.3600000e+00	  -1.3084519e-01	  -9.9101965e-02	
   8.4150000e+00	  -1.0053935e-01	  -8.7097637e-02	
   8.4700000e+00	  -7.1370398e-02	  -7.5452402e-02	
   8.5250000e+00	  -4.4219425e-02	  -6.4478727e-02	
   8.5800000e+00	  -1.9917494e-02	  -5.4471505e-02	
   8.6350000e+00	   7.9807099e-04	  -4.5696474e-02	
   8.6900000e+00	   1.7323870e-02	  -3.8380191e-02	
   8.7450000e+00	   2.9223592e-02	  -3.2700483e-02	
   8.8000000e+00	   3.6252231e-02	  -2.8776773e-02	
   8.8550000e+00	   3.8370703e-02	  -2.6661157e-02	
   8.9100000e+00	   3.5750437e-02	  -2.6331983e-02	
   8.9650000e+00	   2.8766590e-02	  -2.7691667e-02	
   9.0200000e+00	   1.7977942e-02	  -3.0570004e-02	
   9.0750000e+00	   4.0925443e-03	  -3.4733056e-02	
   9.1300000e+00	  -1.2079068e-02	  -3.9896530e-02	
   9.1850000e+00	  -2.9677206e-02	  -4.5742234e-02	
   9.2400000e+00	  -4.7843332e-02	  -5.1935974e-02	
   9.2950000e+00	  -6.5759518e-02	  -5.8144578e-02	
   9.3500000e+00	  -8.2675930e-02	  -6.4049610e-02	
   9.4050000e+00	  -9.7929361e-02	  -6.9356666e-02	
   9.4600000e+00	  -1.1095505e-01	  -7.3800830e-02	
   9.5150000e+00	  -1.2129248e-01	  -7.7149458e-02	
   9.5700000e+00	  -1.2858553e-01	  -7.9203484e-02	
   9.6250000e+00	  -1.3257867e-01	  -7.9798679e-02	
   9.6800000e+00	  -1.3311165e-01	  -7.8808339e-02	
   9.7350000e+00	  -1.3011558e-01	  -7.6148041e-02	
   9.7900000e+00	  -1.2361075e-01	  -7.1781659e-02	
   9.8450000e+00	  -1.1370496e-01	  -6.5726940e-02	
   9.9000000e+00	  -1.0059026e-01	  -5.8059027e-02	
   9.9550000e+00	  -8.4536796e-02	  -4.8910611e-02	
   1.0010000e+01	  -6.5883026e-02	  -3.8467578e-02	
   1.0065000e+01	  -4.5022411e-02	  -2.6959652e-02	
   1.0120000e+01	  -2.2386676e-02	  -1.4646955e-02	
   1.0175000e+01	   1.5736020e-03	  -1.8046854e-03	
   1.0230000e+01	   2.6409931e-02	   1.1291630e-02	
   1.0285000e+01	   5.1696812e-02	   2.4378730e-02	
   1.0340000e+01	   7.7051621e-02	   3.7215575e-02	
   1.0395000e+01	   1.0215300e-01	   4.9590747e-02	
   1.0450000e+01	   1.2675549e-01	   6.1327038e-02	
   1.0505000e+01	   1.5069539e-01	   7.2282290e-02	
   1.0560000e+01	   1.7388362e-01	   8.2346333e-02	
   1.0615000e+01	   1.9628811e-01	   9.1436277e-02	
   1.0670000e+01	   2.1791381e-01	   9.9493950e-02	
   1.0725000e+01	   2.3878830e-01	   1.0648754e-01	
   1.0780000e+01	   2.5895540e-01	   1.1241617e-01	
   1.0835000e+01	   2.7847560e-01	   1.1731527e-01	
   1.0890000e+01	   2.9743100e-01	   1.2126107e-01	
   1.0945000e+01	   3.1593146e-01	   1.2437283e-01	
   1.1000000e+01	   3.3411609e-01	   1.2680993e-01	
   1.1055000e+01	   3.5214543e-01	   1.2876272e-01	
   1.1110000e+01	   3.7018459e-01	   1.3043892e-01	
   1.1165000e+01	   3.8838264e-01	   1.3204945e-01	
   1.1220000e+01	   4.0685481e-01	   1.3379655e-01	
   1.1275000e+01	   4.2567214e-01	   1.3586554e-01	
   1.1330000e+01	   4.4485996e-01	   1.3842031e-01	
   1.1385000e+01	   4.6440528e-01	   1.4160197e-01	
   1.1440000e+01	   4.8427239e-01	   1.4552973e-01	
   1.1495000e+01	   5.0442472e-01	   1.5030305e-01	
   1.1550000e+01	   5.2484642e-01	   1.5600480e-01	
   1.1605000e+01	   5.4555277e-01	   1.6270328e-01	
   1.1660000e+01	   5.6658206e-01	   1.7045089e-01	
   1.1715000e+01	   5.8797236e-01	   1.7927803e-01	
   1.1770000e+01	   6.0973210e-01	   1.8918420e-01	
   1.1825000e+01	   6.3181275e-01	   2.0012985e-01	
   1.1880000e+01	   6.5409027e-01	   2.1203157e-01	
   1.1935000e+01	   6.7636095e-01	   2.2476228e-01	
   1.1990000e+01	   6.9835342e-01	   2.3815655e-01	
   1.2045000e+01	   7.1975598e-01	   2.5202004e-01	
   1.2100000e+01	   7.4025299e-01	   2.6614120e-01	
   1.2155000e+01	   7.5955889e-01	   2.8030270e-01	
   1.2210000e+01	   7.7743997e-01	   2.9429105e-01	
   1.2265000e+01	   7.9372317e-01	   3.0790322e-01	
   1.2320000e+01	   8.0829619e-01	   3.2095010e-01	
   1.2375000e+01	   8.2110172e-01	   3.3325723e-01	
   1.2430000e+01	   8.3212824e-01	   3.4466453e-01	
   1.2485000e+01	   8.4140020e-01	   3.5502677e-01	
   1.2540000e+01	   8.4896950e-01	   3.6421586e-01	
   1.2595000e+01	   8.5490816e-01	   3.7212529e-01	
   1.2650000e+01	   8.5930242e-01	   3.7867574e-01	
   1.2705000e+01	   8.6224761e-01	   3.8382076e-01	
   1.2760000e+01	   8.6384288e-01	   3.8755061e-01	
   1.2815000e+01	   8.6418596e-01	   3.8989325e-01	
   1.2870000e+01	   8.6336922e-01	   3.9091226e-01	
   1.2925000e+01	   8.6147887e-01	   3.9070206e-01	
   1.2980000e+01	   8.5859694e-01	   3.8938121e-01	
   1.3035000e+01	   8.5480439e-01	   3.8708454e-01	
   1.3090000e+01	   8.5018424e-01	   3.8395583e-01	
   1.3145000e+01	   8.4482458e-01	   3.8014217e-01	
   1.3200000e+01	   8.3882074e-01	   3.7579026e-01	
   1.3255000e+01	   8.3227595e-01	   3.7104442e-01	
   1.3310000e+01	   8.2530020e-01	   3.6604575e-01	
   1.3365000e+01	   8.1800667e-01	   3.6093149e-01	
   1.3420000e+01	   8.1050668e-01	   3.5583388e-01	
   1.3475000e+01	   8.0290491e-01	   3.5087829e-01	
   1.3530000e+01	   7.9529768e-01	   3.4618063e-01	
   1.3585000e+01	   7.8777358e-01	   3.4184380e-01	
   1.3640000e+01	   7.8041369e-01	   3.3795255e-01	
   1.3695000e+01	   7.7328905e-01	   3.3456730e-01	
   1.3750000e+01	   7.6645619e-01	   3.3171826e-01	
   1.3805000e+01	   7.5995229e-01	   3.2940211e-01	
   1.3860000e+01	   7.5379098e-01	   3.2758198e-01	
   1.3915000e+01	   7.4795918e-01	   3.2619107e-01	
   1.3970000e+01	   7.4241613e-01	   3.2514011e-01	
   1.4025000e+01	   7.3709612e-01	   3.2432782e-01	
   1.4080000e+01	   7.3191397e-01	   3.2365241e-01	
   1.4135000e+01	   7.2677081e-01	   3.2302208e-01	
   1.4190000e+01	   7.2155816e-01	   3.2236319e-01	
   1.4245000e+01	   7.1616041e-01	   3.2162535e-01	
   1.4300000e+01	   7.1045717e-01	   3.2078228e-01	
   1.4355000e+01	   7.0432632e-01	   3.1982858e-01	
   1.4410000e+01	   6.9764822e-01	   3.1877316e-01	
   1.4465000e+01	   6.9031105e-01	   3.1763146e-01	
   1.4520000e+01	   6.8221688e-01	   3.1641835e-01	
   1.4575000e+01	   6.7328735e-01	   3.1514243e-01	
   1.4630000e+01	   6.6346808e-01	   3.1380273e-01	
   1.4685000e+01	   6.5273196e-01	   3.1238822e-01	
   1.4740000e+01	   6.4108115e-01	   3.1087996e-01	
   1.4795000e+01	   6.2854686e-01	   3.0925428e-01	
   1.4850000e+01	   6.1518722e-01	   3.0748603e-01	
   1.4905000e+01	   6.0108406e-01	   3.0555137e-01	
   1.4960000e+01	   5.8633949e-01	   3.0342942e-01	
   1.5015000e+01	   5.7107272e-01	   3.0110239e-01	
   1.5070000e+01	   5.5541681e-01	   2.9855452e-01	
   1.5125000e+01	   5.3951428e-01	   2.9577102e-01	
   1.5180000e+01	   5.2351075e-01	   2.9273745e-01	
   1.5235000e+01	   5.0754708e-01	   2.8943982e-01	
   1.5290000e+01	   4.9175133e-01	   2.8586446e-01	
   1.5345000e+01	   4.7623184e-01	   2.8199760e-01	
   1.5400000e+01	   4.6107219e-01	   2.7782482e-01	
   1.5455000e+01	   4.4632844e-01	   2.7333144e-01	
   1.5510000e+01	   4.3202944e-01	   2.6850460e-01	
   1.5565000e+01	   4.1818060e-01	   2.6333709e-01	
   1.5620000e+01	   4.0477055e-01	   2.5783192e-01	
   1.5675000e+01	   3.9177881e-01	   2.5200570e-01	
   1.5730000e+01	   3.7918293e-01	   2.4589009e-01	
   1.5785000e+01	   3.6696394e-01	   2.3953113e-01	
   1.5840000e+01	   3.5510914e-01	   2.3298718e-01	
   1.5895000e+01	   3.4361248e-01	   2.2632549e-01	
   1.5950000e+01	   3.3247325e-01	   2.1961741e-01	
   1.6005000e+01	   3.2169316e-01	   2.1293239e-01	
   1.6060000e+01	   3.1127169e-01	   2.0633055e-01	
   1.6115000e+01	   3.0119968e-01	   1.9985418e-01	
   1.6170000e+01	   2.9145356e-01	   1.9352031e-01	
   1.6225000e+01	   2.8199266e-01	   1.8731687e-01	
   1.6280000e+01	   2.7276073e-01	   1.8120362e-01	
   1.6335000e+01	   2.6369079e-01	   1.7511752e-01	
   1.6390000e+01	   2.5471201e-01	   1.6898133e-01	
   1.6445000e+01	   2.4575756e-01	   1.6271401e-01	
   1.6500000e+01	   2.3677154e-01	   1.5624080e-01	
   1.6555000e+01	   2.2771367e-01	   1.4950134e-01	
   1.6610000e+01	   2.1856151e-01	   1.4245478e-01	
   1.6665000e+01	   2.0931111e-01	   1.3508206e-01	
   1.6720000e+01	   1.9997688e-01	   1.2738495e-01	
   1.6775000e+01	   1.9059004e-01	   1.1938230e-01	
   1.6830000e+01	   1.8119570e-01	   1.1110454e-01	
   1.6885000e+01	   1.7184827e-01	   1.0258846e-01	
   1.6940000e+01	   1.6260573e-01	   9.3873462e-02	
   1.6995000e+01	   1.5352325e-01	   8.5000381e-02	
   1.7050000e+01	   1.4464793e-01	   7.6013482e-02	
   1.7105000e+01	   1.3601576e-01	   6.6965020e-02	
   1.7160000e+01	   1.2765078e-01	   5.7920154e-02	
   1.7215000e+01	   1.1956456e-01	   4.8959645e-02	
   1.7270000e+01	   1.1175537e-01	   4.0179214e-02	
   1.7325000e+01	   1.0420758e-01	   3.1685458e-02	
   1.7380000e+01	   9.6891583e-02	   2.3588509e-02	
   1.7435000e+01	   8.9764618e-02	   1.5992092e-02	
   1.7490000e+01	   8.2772526e-02	   8.9826338e-03	
   1.7545000e+01	   7.5852891e-02	   2.6193456e-03	
   1.7600000e+01	   6.8939140e-02	  -3.0733571e-03	
   1.7655000e+01	   6.1964582e-02	  -8.1099977e-03	
   1.7710000e+01	   5.4865979e-02	  -1.2543504e-02	
   1.7765000e+01	   4.7587901e-02	  -1.6459236e-02	
   1.7820000e+01	   4.0088648e-02	  -1.9964385e-02	
   1.7875000e+01	   3.2346281e-02	  -2.3175026e-02	
   1.7930000e+01	   2.4362961e-02	  -2.6203286e-02	
   1.7985000e+01	   1.6167283e-02	  -2.9146335e-02	
   1.8040000e+01	   7.8150273e-03	  -3.2078285e-02	
   1.8095000e+01	  -6.1191299e-04	  -3.5045768e-02	
   1.8150000e+01	  -9.0090628e-03	  -3.8067580e-02	
   1.8205000e+01	  -1.7255370e-02	  -4.1138278e-02	
   1.8260000e+01	  -2.5220780e-02	  -4.4235064e-02	
   1.8315000e+01	  -3.2773934e-02	  -4.7326785e-02	
   1.8370000e+01	  -3.9788584e-02	  -5.0383486e-02	
   1.8425000e+01	  -4.6148335e-02	  -5.3385053e-02	
   1.8480000e+01	  -5.1750897e-02	  -5.6327996e-02	
   1.8535000e+01	  -5.6513121e-02	  -5.9229337e-02	
   1.8590000e+01	  -6.0375663e-02	  -6.2126143e-02	
   1.8645000e+01	  -6.3304680e-02	  -6.5069889e-02	
   1.8700000e+01	  -6.5290023e-02	  -6.8117166e-02	
   1.8755000e+01	  -6.6342250e-02	  -7.1319805e-02	
   1.8810000e+01	  -6.6490594e-02	  -7.4716767e-02	
   1.8865000e+01	  -6.5782076e-02	  -7.8328726e-02	
   1.8920000e+01	  -6.4280941e-02	  -8.2155808e-02	
   1.8975000e+01	  -6.2067686e-02	  -8.6178409e-02	
   1.9030000e+01	  -5.9237080e-02	  -9.0360045e-02	
   1.9085000e+01	  -5.5894823e-02	  -9.4651319e-02	
   1.9140000e+01	  -5.2153217e-02	  -9.8995323e-02	
   1.9195000e+01	  -4.8126887e-02	  -1.0333509e-01	
   1.9250000e+01	  -4.3929133e-02	  -1.0762228e-01	
   1.9305000e+01	  -3.9668465e-02	  -1.1182464e-01	
   1.9360000e+01	  -3.5444390e-02	  -1.1592958e-01	
   1.9415000e+01	  -3.1341923e-02	  -1.1994204e-01	
   1.9470000e+01	  -2.7425181e-02	  -1.2387711e-01	
   1.9525000e+01	  -2.3731616e-02	  -1.2775009e-01	
   1.9580000e+01	  -2.0269350e-02	  -1.3156735e-01	
   1.9635000e+01	  -1.7019636e-02	  -1.3532059e-01	
   1.9690000e+01	  -1.3944208e-02	  -1.3898485e-01	
   1.9745000e+01	  -1.0994773e-02	  -1.4251994e-01	
   1.9800000e+01	  -8.1210806e-03	  -1.4587481e-01	
   1.9855000e+01	  -5.2750806e-03	  -1.4899401e-01	
   1.9910000e+01	  -2.4107904e-03	  -1.5182482e-01	
   1.9965000e+01	   5.1816812e-04	  -1.5432358e-01	
   2.0020000e+01	   3.5602346e-03	  -1.5646118e-01	
   2.0075000e+01	   6.7645575e-03	  -1.5822787e-01	
   2.0130000e+01	   1.0176895e-02	  -1.5963624e-01	
   2.0185000e+01	   1.3834997e-02	  -1.6072037e-01	
   2.0240000e+01	   1.7765382e-02	  -1.6153075e-01	
   2.0295000e+01	   2.1981919e-02	  -1.6212692e-01	
   2.0350000e+01	   2.6485802e-02	  -1.6257029e-01	
   2.0405000e+01	   3.1266635e-02	  -1.6291898e-01	
   2.0460000e+01	   3.6304237e-02	  -1.6322482e-01	
   2.0515000e+01	   4.1570811e-02	  -1.6353251e-01	
   2.0570000e+01	   4.7033474e-02	  -1.6387954e-01	
   2.0625000e+01	   5.2657092e-02	  -1.6429635e-01	
   2.0680000e+01	   5.8406559e-02	  -1.6480695e-01	
   2.0735000e+01	   6.4247496e-02	  -1.6543051e-01	
   2.0790000e+01	   7.0145727e-02	  -1.6618358e-01	
   2.0845000e+01	   7.6067187e-02	  -1.6708150e-01	
   2.0900000e+01	   8.1979158e-02	  -1.6813798e-01	
   2.0955000e+01	   8.7852202e-02	  -1.6936250e-01	
   2.1010000e+01	   9.3662182e-02	  -1.7075637e-01	
   2.1065000e+01	   9.9392383e-02	  -1.7230850e-01	
   2.1120000e+01	   1.0503508e-01	  -1.7399305e-01	
   2.1175000e+01	   1.1059112e-01	  -1.7577003e-01	
   2.1230000e+01	   1.1606665e-01	  -1.7758938e-01	
   2.1285000e+01	   1.2146765e-01	  -1.7939741e-01	
   2.1340000e+01	   1.2679383e-01	  -1.8114461e-01	
   2.1395000e+01	   1.3203290e-01	  -1.8279294e-01	
   2.1450000e+01	   1.3715638e-01	  -1.8432100e-01	
   2.1505000e+01	   1.4211748e-01	  -1.8572544e-01	
   2.1560000e+01	   1.4685120e-01	  -1.8701833e-01	
   2.1615000e+01	   1.5127686e-01	  -1.8822118e-01	
   2.1670000e+01	   1.5530299e-01	  -1.8935761e-01	
   2.1725000e+01	   1.5883437e-01	  -1.9044625e-01	
   2.1780000e+01	   1.6177988e-01	  -1.9149548e-01	
   2.1835000e+01	   1.6405954e-01	  -1.9250096e-01	
   2.1890000e+01	   1.6560975e-01	  -1.9344604e-01	
   2.1945000e+01	   1.6638662e-01	  -1.9430429e-01	
   2.2000000e+01	   1.6636761e-01	  -1.9504352e-01	
   2.2055000e+01	   1.6555181e-01	  -1.9563085e-01	
   2.2110000e+01	   1.6395853e-01	  -1.9603848e-01	
   2.2165000e+01	   1.6162516e-01	  -1.9624941e-01	
   2.2220000e+01	   1.5860585e-01	  -1.9626091e-01	
   2.2275000e+01	   1.5497152e-01	  -1.9608452e-01	
   2.2330000e+01	   1.5081092e-01	  -1.9574236e-01	
   2.2385000e+01	   1.4623161e-01	  -1.9526096e-01	
   2.2440000e+01	   1.4135941e-01	  -1.9466512e-01	
   2.2495000e+01	   1.3633456e-01	  -1.9397389e-01	
   2.2550000e+01	   1.3130487e-01	  -1.9319875e-01	
   2.2605000e+01	   1.2641814e-01	  -1.9234283e-01	
   2.2660000e+01	   1.2181592e-01	  -1.9140060e-01	
   2.2715000e+01	   1.1762845e-01	  -1.9035918e-01	
   2.2770000e+01	   1.1396998e-01	  -1.8920200e-01	
   2.2825000e+01	   1.1093429e-01	  -1.8791374e-01	
   2.2880000e+01	   1.0859068e-01	  -1.8648547e-01	
   2.2935000e+01	   1.0697981e-01	  -1.8491920e-01	
   2.2990000e+01	   1.0611014e-01	  -1.8323141e-01	
   2.3045000e+01	   1.0595667e-01	  -1.8145436e-01	
   2.3100000e+01	   1.0646353e-01	  -1.7963407e-01	
   2.3155000e+01	   1.0755093e-01	  -1.7782475e-01	
   2.3210000e+01	   1.0912558e-01	  -1.7608053e-01	
   2.3265000e+01	   1.1109262e-01	  -1.7444639e-01	
   2.3320000e+01	   1.1336654e-01	  -1.7295071e-01	
   2.3375000e+01	   1.1587926e-01	  -1.7160121e-01	
   2.3430000e+01	   1.1858492e-01	  -1.7038488e-01	
   2.3485000e+01	   1.2146079e-01	  -1.6927130e-01	
   2.3540000e+01	   1.2450369e-01	  -1.6821913e-01	
   2.3595000e+01	   1.2772172e-01	  -1.6718433e-01	
   2.3650000e+01	   1.3112267e-01	  -1.6612871e-01	
   2.3705000e+01	   1.3470135e-01	  -1.6502724e-01	
   2.3760000e+01	   1.3842830e-01	  -1.6387349e-01	
   2.3815000e+01	   1.4224169e-01	  -1.6268278e-01	
   2.3870000e+01	   1.4604419e-01	  -1.6149205e-01	
   2.3925000e+01	   1.4970601e-01	  -1.6035559e-01	
   2.3980000e+01	   1.5307363e-01	  -1.5933656e-01	
   2.4035000e+01	   1.5598138e-01	  -1.5849663e-01	
   2.4090000e+01	   1.5826234e-01	  -1.5788588e-01	
   2.4145000e+01	   1.5975718e-01	  -1.5753433e-01	
   2.4200000e+01	   1.6032156e-01	  -1.5744646e-01	
   2.4255000e+01	   1.5983222e-01	  -1.5759966e-01	
   2.4310000e+01	   1.5819048e-01	  -1.5794650e-01	
   2.4365000e+01	   1.5532261e-01	  -1.5841958e-01	
   2.4420000e+01	   1.5117881e-01	  -1.5893772e-01	
   2.4475000e+01	   1.4573215e-01	  -1.5941306e-01	
   2.4530000e+01	   1.3897793e-01	  -1.5975894e-01	
   2.4585000e+01	   1.3093247e-01	  -1.5989753e-01	
   2.4640000e+01	   1.2163125e-01	  -1.5976667e-01	
   2.4695000e+01	   1.1112784e-01	  -1.5932467e-01	
   2.4750000e+01	   9.9495229e-02	  -1.5855162e-01	
   2.4805000e+01	   8.6829424e-02	  -1.5744622e-01	
   2.4860000e+01	   7.3253195e-02	  -1.5601962e-01	
   2.4915000e+01	   5.8917129e-02	  -1.5428858e-01	
   2.4970000e+01	   4.3996262e-02	  -1.5227015e-01	
   2.5025000e+01	   2.8682099e-02	  -1.4997873e-01	
   2.5080000e+01	   1.3170957e-02	  -1.4742649e-01	
   2.5135000e+01	  -2.3490946e-03	  -1.4462655e-01	
   2.5190000e+01	  -1.7709400e-02	  -1.4159689e-01	
   2.5245000e+01	  -3.2767364e-02	  -1.3836288e-01	
   2.5300000e+01	  -4.7408581e-02	  -1.3495782e-01	
   2.5355000e+01	  -6.1546285e-02	  -1.3142233e-01	
   2.5410000e+01	  -7.5119648e-02	  -1.2780278e-01	
   2.5465000e+01	  -8.8091124e-02	  -1.2414888e-01	
   2.5520000e+01	  -1.0044236e-01	  -1.2050981e-01	
   2.5575000e+01	  -1.1216850e-01	  -1.1692945e-01	
   2.5630000e+01	  -1.2327126e-01	  -1.1344101e-01	
   2.5685000e+01	  -1.3375165e-01	  -1.1006198e-01	
   2.5740000e+01	  -1.4360388e-01	  -1.0679051e-01	
   2.5795000e+01	  -1.5281241e-01	  -1.0360490e-01	
   2.5850000e+01	  -1.6135396e-01	  -1.0046738e-01	
   2.5905000e+01	  -1.6920397e-01	  -9.7331340e-02	
   2.5960000e+01	  -1.7634470e-01	  -9.4150024e-02	
   2.6015000e+01	  -1.8277187e-01	  -9.0884574e-02	
   2.6070000e+01	  -1.8849788e-01	  -8.7509413e-02	
   2.6125000e+01	  -1.9355159e-01	  -8.4013671e-02	
   2.6180000e+01	  -1.9797540e-01	  -8.0398669e-02	
   2.6235000e+01	  -2.0182102e-01	  -7.6672950e-02	
   2.6290000e+01	  -2.0514529e-01	  -7.2846632e-02	
   2.6345000e+01	  -2.0800687e-01	  -6.8926334e-02	
   2.6400000e+01	  -2.1046393e-01	  -6.4911909e-02	
   2.6455000e+01	  -2.1257284e-01	  -6.0796143e-02	
   2.6510000e+01	  -2.1438773e-01	  -5.6567440e-02	
   2.6565000e+01	  -2.1595994e-01	  -5.2214139e-02	
   2.6620000e+01	  -2.1733637e-01	  -4.7729018e-02	
   2.6675000e+01	  -2.1855698e-01	  -4.3113535e-02	
   2.6730000e+01	  -2.1965288e-01	  -3.8382113e-02	
   2.6785000e+01	  -2.2064596e-01	  -3.3566568e-02	
   2.6840000e+01	  -2.2155049e-01	  -2.8720133e-02	
   2.6895000e+01	  -2.2237627e-01	  -2.3919882e-02	
   2.6950000e+01	  -2.2313198e-01	  -1.9265873e-02	
   2.7005000e+01	  -2.2382624e-01	  -1.4875539e-02	
   2.7060000e+01	  -2.2446567e-01	  -1.0873415e-02	
   2.7115000e+01	  -2.2505206e-01	  -7.3783787e-03	
   2.7170000e+01	  -2.2558086e-01	  -4.4911901e-03	
   2.7225000e+01	  -2.2604073e-01	  -2.2842702e-03	
   2.7280000e+01	  -2.2641318e-01	  -7.9502434e-04	
   2.7335000e+01	  -2.2667225e-01	  -2.3808789e-05	
   2.7390000e+01	  -2.2678566e-01	   6.3146311e-05	
   2.7445000e+01	  -2.2671728e-01	  -4.7301496e-04	
   2.7500000e+01	  -2.2642985e-01	  -1.5524754e-03	
   2.7555000e+01	  -2.2588775e-01	  -3.0861079e-03	
   2.7610000e+01	  -2.2506042e-01	  -4.9850104e-03	
   2.7665000e+01	  -2.2392737e-01	  -7.1696476e-03	
   2.7720000e+01	  -2.2248337e-01	  -9.5774288e-03	
   2.7775000e+01	  -2.2074281e-01	  -1.2167253e-02	
   2.7830000e+01	  -2.1874186e-01	  -1.4919927e-02	
   2.7885000e+01	  -2.1653768e-01	  -1.7834361e-02	
   2.7940000e+01	  -2.1420422e-01	  -2.0920721e-02	
   2.7995000e+01	  -2.1182600e-01	  -2.4192352e-02	
   2.8050000e+01	  -2.0949147e-01	  -2.7657889e-02	
   2.8105000e+01	  -2.0728656e-01	  -3.1314115e-02	
   2.8160000e+01	  -2.0528856e-01	  -3.5140067e-02	
   2.8215000e+01	  -2.0356129e-01	  -3.9093428e-02	
   2.8270000e+01	  -2.0215252e-01	  -4.3110260e-02	
   2.8325000e+01	  -2.0109399e-01	  -4.7108400e-02	
   2.8380000e+01	  -2.0040389e-01	  -5.0994271e-02	
   2.8435000e+01	  -2.0009236e-01	  -5.4672634e-02	
   2.8490000e+01	  -2.0016995e-01	  -5.8058231e-02	
   2.8545000e+01	  -2.0065630e-01	  -6.1087278e-02	
   2.8600000e+01	  -2.0158556e-01	  -6.3726676e-02	
   2.8655000e+01	  -2.0300753e-01	  -6.5979513e-02	
   2.8710000e+01	  -2.0498587e-01	  -6.7885853e-02	
   2.8765000e+01	  -2.0759398e-01	  -6.9518185e-02	
   2.8820000e+01	  -2.1090845e-01	  -7.0972615e-02	
   2.8875000e+01	  -2.1499972e-01	  -7.2358339e-02	
   2.8930000e+01	  -2.1992045e-01	  -7.3787358e-02	
   2.8985000e+01	  -2.2569233e-01	  -7.5365182e-02	
   2.9040000e+01	  -2.3229382e-01	  -7.7183363e-02	
   2.9095000e+01	  -2.3965241e-01	  -7.9314956e-02	
   2.9150000e+01	  -2.4764322e-01	  -8.1813063e-02	
   2.9205000e+01	  -2.5609417e-01	  -8.4711779e-02	
   2.9260000e+01	  -2.6479655e-01	  -8.8029037e-02	
   2.9315000e+01	  -2.7351945e-01	  -9.1770867e-02	
   2.9370000e+01	  -2.8202550e-01	  -9.5935946e-02	
   2.9425000e+01	  -2.9008581e-01	  -1.0051910e-01	
   2.9480000e+01	  -2.9749249e-01	  -1.0551301e-01	
   2.9535000e+01	  -3.0406750e-01	  -1.1090800e-01	
   2.9590000e+01	  -3.0966711e-01	  -1.1668952e-01	
   2.9645000e+01	  -3.1418197e-01	  -1.2283359e-01	
   2.9700000e+01	  -3.1753361e-01	  -1.2930140e-01	
   2.9755000e+01	  -3.1966895e-01	  -1.3603514e-01	
   2.9810000e+01	  -3.2055463e-01	  -1.4295636e-01	
   2.9865000e+01	  -3.2017206e-01	  -1.4996753e-01	
   2.9920000e+01	  -3.1851462e-01	  -1.5695693e-01	
   2.9975000e+01	  -3.1558845e-01	  -1.6380730e-01	
   3.0030000e+01	  -3.1141705e-01	  -1.7040621e-01	
   3.0085000e+01	  -3.0604743e-01	  -1.7665569e-01	
   3.0140000e+01	  -2.9955477e-01	  -1.8247887e-01	
   3.0195000e+01	  -2.9204324e-01	  -1.8782297e-01	
   3.0250000e+01	  -2.8364320e-01	  -1.9265916e-01	
   3.0305000e+01	  -2.7450584e-01	  -1.9697933e-01	
   3.0360000e+01	  -2.6479692e-01	  -2.0079085e-01	
   3.0415000e+01	  -2.5469018e-01	  -2.0411090e-01	
   3.0470000e+01	  -2.4436068e-01	  -2.0696122e-01	
   3.0525000e+01	  -2.3397831e-01	  -2.0936345e-01	
   3.0580000e+01	  -2.2370266e-01	  -2.1133498e-01	
   3.0635000e+01	  -2.1368037e-01	  -2.1288642e-01	
   3.0690000e+01	  -2.0404437e-01	  -2.1402195e-01	
   3.0745000e+01	  -1.9491330e-01	  -2.1474252e-01	
   3.0800000e+01	  -1.8639037e-01	  -2.1505108e-01	
   3.0855000e+01	  -1.7856222e-01	  -2.1495871e-01	
   3.0910000e+01	  -1.7149847e-01	  -2.1449009e-01	
   3.0965000e+01	  -1.6525151e-01	  -2.1368672e-01	
   3.1020000e+01	  -1.5985576e-01	  -2.1260644e-01	
   3.1075000e+01	  -1.5532611e-01	  -2.1131867e-01	
   3.1130000e+01	  -1.5165598e-01	  -2.0989583e-01	
   3.1185000e+01	  -1.4881555e-01	  -2.0840209e-01	
   3.1240000e+01	  -1.4675090e-01	  -2.0688224e-01	
   3.1295000e+01	  -1.4538505e-01	  -2.0535295e-01	
   3.1350000e+01	  -1.4462188e-01	  -2.0379871e-01	
   3.1405000e+01	  -1.4435264e-01	  -2.0217243e-01	
   3.1460000e+01	  -1.4446335e-01	  -2.0039996e-01	
   3.1515000e+01	  -1.4484110e-01	  -1.9838762e-01	
   3.1570000e+01	  -1.4537810e-01	  -1.9603195e-01	
   3.1625000e+01	  -1.4597396e-01	  -1.9323117e-01	
   3.1680000e+01	  -1.4653751e-01	  -1.8989741e-01	
   3.1735000e+01	  -1.4698886e-01	  -1.8596886e-01	
   3.1790000e+01	  -1.4726152e-01	  -1.8142061e-01	
   3.1845000e+01	  -1.4730369e-01	  -1.7627254e-01	
   3.1900000e+01	  -1.4707798e-01	  -1.7059200e-01	
   3.1955000e+01	  -1.4655943e-01	  -1.6449077e-01	
   3.2010000e+01	  -1.4573308e-01	  -1.5811653e-01	
   3.2065000e+01	  -1.4459200e-01	  -1.5164023e-01	
   3.2120000e+01	  -1.4313610e-01	  -1.4524093e-01	
   3.2175000e+01	  -1.4137114e-01	  -1.3909021e-01	
   3.2230000e+01	  -1.3930744e-01	  -1.3333869e-01	
   3.2285000e+01	  -1.3695803e-01	  -1.2810575e-01	
   3.2340000e+01	  -1.3433685e-01	  -1.2347348e-01	
   3.2395000e+01	  -1.3145795e-01	  -1.1948500e-01	
   3.2450000e+01	  -1.2833649e-01	  -1.1614706e-01	
   3.2505000e+01	  -1.2499102e-01	  -1.1343580e-01	
   3.2560000e+01	  -1.2144651e-01	  -1.1130474e-01	
   3.2615000e+01	  -1.1773783e-01	  -1.0969447e-01	
   3.2670000e+01	  -1.1391352e-01	  -1.0854317e-01	
   3.2725000e+01	  -1.1003926e-01	  -1.0779612e-01	
   3.2780000e+01	  -1.0619948e-01	  -1.0741284e-01	
   3.2835000e+01	  -1.0249699e-01	  -1.0737120e-01	
   3.2890000e+01	  -9.9050933e-02	  -1.0766794e-01	
   3.2945000e+01	  -9.5992858e-02	  -1.0831515e-01	
   3.3000000e+01	  -9.3459693e-02	  -1.0933251e-01	
   3.3055000e+01	  -9.1583611e-02	  -1.1073675e-01	
   3.3110000e+01	  -9.0479939e-02	  -1.1253089e-01	
   3.3165000e+01	  -9.0234698e-02	  -1.1469604e-01	
   3.3220000e+01	  -9.0893218e-02	  -1.1718717e-01	
   3.3275000e+01	  -9.2451788e-02	  -1.1993324e-01	
   3.3330000e+01	  -9.4854276e-02	  -1.2284118e-01	
   3.3385000e+01	  -9.7994430e-02	  -1.2580315e-01	
   3.3440000e+01	  -1.0172289e-01	  -1.2870595e-01	
   3.3495000e+01	  -1.0585746e-01	  -1.3144173e-01	
   3.3550000e+01	  -1.1019591e-01	  -1.3391899e-01	
   3.3605000e+01	  -1.1453129e-01	  -1.3607319e-01	
   3.3660000e+01	  -1.1866848e-01	  -1.3787545e-01	
   3.3715000e+01	  -1.2244001e-01	  -1.3933814e-01	
   3.3770000e+01	  -1.2571875e-01	  -1.4051580e-01	
   3.3825000e+01	  -1.2842487e-01	  -1.4150019e-01	
   3.3880000e+01	  -1.3052571e-01	  -1.4240889e-01	
   3.3935000e+01	  -1.3202972e-01	  -1.4336982e-01	
   3.3990000e+01	  -1.3297774e-01	  -1.4450530e-01	
   3.4045000e+01	  -1.3343441e-01	  -1.4591852e-01	
   3.4100000e+01	  -1.3348058e-01	  -1.4768327e-01	
   3.4155000e+01	  -1.3320653e-01	  -1.4983755e-01	
   3.4210000e+01	  -1.3270608e-01	  -1.5238152e-01	
   3.4265000e+01	  -1.3207132e-01	  -1.5527914e-01	
   3.4320000e+01	  -1.3138754e-01	  -1.5846278e-01	
   3.4375000e+01	  -1.3072875e-01	  -1.6184009e-01	
   3.4430000e+01	  -1.3015518e-01	  -1.6530319e-01	
   3.4485000e+01	  -1.2971385e-01	  -1.6873974e-01	
   3.4540000e+01	  -1.2944225e-01	  -1.7204461e-01	
   3.4595000e+01	  -1.2937374e-01	  -1.7513054e-01	
   3.4650000e+01	  -1.2954151e-01	  -1.7793561e-01	
   3.4705000e+01	  -1.2997925e-01	  -1.8042564e-01	
   3.4760000e+01	  -1.3071770e-01	  -1.8259088e-01	
   3.4815000e+01	  -1.3177852e-01	  -1.8443841e-01	
   3.4870000e+01	  -1.3316802e-01	  -1.8598336e-01	
   3.4925000e+01	  -1.3487292e-01	  -1.8724100e-01	
   3.4980000e+01	  -1.3685845e-01	  -1.8822067e-01	
   3.5035000e+01	  -1.3906924e-01	  -1.8892193e-01	
   3.5090000e+01	  -1.4143325e-01	  -1.8933378e-01	
   3.5145000e+01	  -1.4386819e-01	  -1.8943764e-01	
   3.5200000e+01	  -1.4628936e-01	  -1.8921340e-01	
   3.5255000e+01	  -1.4861824e-01	  -1.8864718e-01	
   3.5310000e+01	  -1.5079231e-01	  -1.8773931e-01	
   3.5365000e+01	  -1.5277542e-01	  -1.8651122e-01	
   3.5420000e+01	  -1.5456600e-01	  -1.8500933e-01	
   3.5475000e+01	  -1.5619985e-01	  -1.8330424e-01	
   3.5530000e+01	  -1.5774576e-01	  -1.8148449e-01	
   3.5585000e+01	  -1.5929508e-01	  -1.7964584e-01	
   3.5640000e+01	  -1.6094722e-01	  -1.7787812e-01	
   3.5695000e+01	  -1.6279411e-01	  -1.7625258e-01	
   3.5750000e+01	  -1.6490678e-01	  -1.7481280e-01	
   3.5805000e+01	  -1.6732629e-01	  -1.7357006e-01	
   3.5860000e+01	  -1.7005994e-01	  -1.7250303e-01	
   3.5915000e+01	  -1.7308311e-01	  -1.7156122e-01	
   3.5970000e+01	  -1.7634599e-01	  -1.7067200e-01	
   3.6025000e+01	  -1.7978302e-01	  -1.6975011e-01	
   3.6080000e+01	  -1.8332211e-01	  -1.6870768e-01	
   3.6135000e+01	  -1.8689225e-01	  -1.6746329e-01	
   3.6190000e+01	  -1.9042951e-01	  -1.6594917e-01	
   3.6245000e+01	  -1.9388169e-01	  -1.6411631e-01	
   3.6300000e+01	  -1.9721103e-01	  -1.6193651e-01	
   3.6355000e+01	  -2.0039452e-01	  -1.5940075e-01	
   3.6410000e+01	  -2.0342216e-01	  -1.5651417e-01	
   3.6465000e+01	  -2.0629408e-01	  -1.5328869e-01	
   3.6520000e+01	  -2.0901661e-01	  -1.4973457e-01	
   3.6575000e+01	  -2.1159707e-01	  -1.4585316e-01	
   3.6630000e+01	  -2.1403796e-01	  -1.4163251e-01	
   3.6685000e+01	  -2.1633174e-01	  -1.3704701e-01	
   3.6740000e+01	  -2.1845707e-01	  -1.3206024e-01	
   3.6795000e+01	  -2.2037662e-01	  -1.2663031e-01	
   3.6850000e+01	  -2.2203763e-01	  -1.2071693e-01	
   3.6905000e+01	  -2.2337540e-01	  -1.1428983e-01	
   3.6960000e+01	  -2.2431888e-01	  -1.0733657e-01	
   3.7015000e+01	  -2.2479698e-01	  -9.9868478e-02	
   3.7070000e+01	  -2.2474503e-01	  -9.1923672e-02	
   3.7125000e+01	  -2.2411124e-01	  -8.3567121e-02	
   3.7180000e+01	  -2.2286225e-01	  -7.4886847e-02	
   3.7235000e+01	  -2.2098659e-01	  -6.5986192e-02	
   3.7290000e+01	  -2.1849547e-01	  -5.6973579e-02	
   3.7345000e+01	  -2.1542143e-01	  -4.7952309e-02	
   3.7400000e+01	  -2.1181523e-01	  -3.9012402e-02	
   3.7455000e+01	  -2.0774071e-01	  -3.0225484e-02	
   3.7510000e+01	  -2.0326868e-01	  -2.1643267e-02	
   3.7565000e+01	  -1.9847076e-01	  -1.3299687e-02	
   3.7620000e+01	  -1.9341451e-01	  -5.2156565e-03	
   3.7675000e+01	  -1.8815999e-01	   2.5950816e-03	
   3.7730000e+01	  -1.8275841e-01	   1.0119907e-02	
   3.7785000e+01	  -1.7725341e-01	   1.7341515e-02	
   3.7840000e+01	  -1.7168423e-01	   2.4233326e-02	
   3.7895000e+01	  -1.6608849e-01	   3.0757535e-02	
   3.7950000e+01	  -1.6050334e-01	   3.6866876e-02	
   3.8005000e+01	  -1.5496483e-01	   4.2510323e-02	
   3.8060000e+01	  -1.4950566e-01	   4.7641649e-02	
   3.8115000e+01	  -1.4415229e-01	   5.2228337e-02	
   3.8170000e+01	  -1.3892296e-01	   5.6258015e-02	
   3.8225000e+01	  -1.3382758e-01	   5.9741054e-02	
   3.8280000e+01	  -1.2886873e-01	   6.2709759e-02	
   3.8335000e+01	  -1.2404253e-01	   6.5215099e-02	
   3.8390000e+01	  -1.1933997e-01	   6.7321456e-02	
   3.8445000e+01	  -1.1474969e-01	   6.9099958e-02	
   3.8500000e+01	  -1.1026199e-01	   7.0621405e-02	
   3.8555000e+01	  -1.0587296e-01	   7.1949567e-02	
   3.8610000e+01	  -1.0158747e-01	   7.3135265e-02	
   3.8665000e+01	  -9.7420044e-02	   7.4211824e-02	
   3.8720000e+01	  -9.3393948e-02	   7.5193124e-02	
   3.8775000e+01	  -8.9538532e-02	   7.6075615e-02	
   3.8830000e+01	  -8.5884882e-02	   7.6844308e-02	
   3.8885000e+01	  -8.2460137e-02	   7.7480929e-02	
   3.8940000e+01	  -7.9281358e-02	   7.7971995e-02	
   3.8995000e+01	  -7.6349789e-02	   7.8315371e-02	
   3.9050000e+01	  -7.3646393e-02	   7.8524366e-02	
   3.9105000e+01	  -7.1129983e-02	   7.8628542e-02	
   3.9160000e+01	  -6.8738697e-02	   7.8671445e-02	
   3.9215000e+01	  -6.6394063e-02	   7.8706764e-02	
   3.9270000e+01	  -6.4006553e-02	   7.8794124e-02	
   3.9325000e+01	  -6.1482162e-02	   7.8994447e-02	
   3.9380000e+01	  -5.8729574e-02	   7.9364858e-02	
   3.9435000e+01	  -5.5667135e-02	   7.9954147e-02	
   3.9490000e+01	  -5.2229141e-02	   8.0800077e-02	
   3.9545000e+01	  -4.8370334e-02	   8.1929386e-02	
   3.9600000e+01	  -4.4066378e-02	   8.3360745e-02	
   3.9655000e+01	  -3.9309251e-02	   8.5109737e-02	
   3.9710000e+01	  -3.4099794e-02	   8.7193838e-02	
   3.9765000e+01	  -2.8441525e-02	   8.9635201e-02	
   3.9820000e+01	  -2.2338218e-02	   9.2460140e-02	
   3.9875000e+01	  -1.5794641e-02	   9.5695570e-02	
   3.9930000e+01	  -8.8182189e-03	   9.9363663e-02	
   3.9985000e+01	  -1.4201583e-03	   1.0347606e-01	
   4.0040000e+01	   6.3842659e-03	   1.0802837e-01	
   4.0095000e+01	   1.4576101e-02	   1.1299549e-01	
   4.0150000e+01	   2.3133147e-02	   1.1832835e-01	
   4.0205000e+01	   3.2029867e-02	   1.2395297e-01	
   4.0260000e+01	   4.1237188e-02	   1.2977275e-01	
   4.0315000e+01	   5.0723323e-02	   1.3567453e-01	
   4.0370000e+01	   6.0455992e-02	   1.4153750e-01	
   4.0425000e+01	   7.0405381e-02	   1.4724292e-01	
   4.0480000e+01	   8.0547480e-02	   1.5268312e-01	
   4.0535000e+01	   9.0867722e-02	   1.5776918e-01	
   4.0590000e+01	   1.0136362e-01	   1.6243638e-01	
   4.0645000e+01	   1.1204437e-01	   1.6664637e-01	
   4.0700000e+01	   1.2292733e-01	   1.7038530e-01	
   4.0755000e+01	   1.3403266e-01	   1.7365925e-01	
   4.0810000e+01	   1.4537704e-01	   1.7648752e-01	
   4.0865000e+01	   1.5696614e-01	   1.7889469e-01	
   4.0920000e+01	   1.6878790e-01	   1.8090293e-01	
   4.0975000e+01	   1.8081008e-01	   1.8252621e-01	
   4.1030000e+01	   1.9298281e-01	   1.8376764e-01	
   4.1085000e+01	   2.0524434e-01	   1.8462004e-01	
   4.1140000e+01	   2.1752740e-01	   1.8507082e-01	
   4.1195000e+01	   2.2976520e-01	   1.8511013e-01	
   4.1250000e+01	   2.4189568e-01	   1.8473969e-01	
   4.1305000e+01	   2.5386254e-01	   1.8397898e-01	
   4.1360000e+01	   2.6561270e-01	   1.8286752e-01	
   4.1415000e+01	   2.7709179e-01	   1.8146378e-01	
   4.1470000e+01	   2.8823924e-01	   1.7984111e-01	
   4.1525000e+01	   2.9898438e-01	   1.7808086e-01	
   4.1580000e+01	   3.0924509e-01	   1.7626366e-01	
   4.1635000e+01	   3.1892964e-01	   1.7446045e-01	
   4.1690000e+01	   3.2794010e-01	   1.7272421e-01	
   4.1745000e+01	   3.3617526e-01	   1.7108263e-01	
   4.1800000e+01	   3.4353224e-01	   1.6953233e-01	
   4.1855000e+01	   3.4990766e-01	   1.6803582e-01	
   4.1910000e+01	   3.5519891e-01	   1.6652199e-01	
   4.1965000e+01	   3.5930599e-01	   1.6489062e-01	
   4.2020000e+01	   3.6213480e-01	   1.6302111e-01	
   4.2075000e+01	   3.6360209e-01	   1.6078507e-01	
   4.2130000e+01	   3.6364097e-01	   1.5806058e-01	
   4.2185000e+01	   3.6220609e-01	   1.5474545e-01	
   4.2240000e+01	   3.5927833e-01	   1.5076802e-01	
   4.2295000e+01	   3.5486892e-01	   1.4609403e-01	
   4.2350000e+01	   3.4902093e-01	   1.4072861e-01	
   4.2405000e+01	   3.4180719e-01	   1.3471254e-01	
   4.2460000e+01	   3.3332533e-01	   1.2811383e-01	
   4.2515000e+01	   3.2369288e-01	   1.2101696e-01	
   4.2570000e+01	   3.1304297e-01	   1.1351182e-01	
   4.2625000e+01	   3.0151985e-01	   1.0568364e-01	
   4.2680000e+01	   2.8927365e-01	   9.7605217e-02	
   4.2735000e+01	   2.7645557e-01	   8.9332811e-02	
   4.2790000e+01	   2.6321481e-01	   8.0906230e-02	
   4.2845000e+01	   2.4969725e-01	   7.2352256e-02	
   4.2900000e+01	   2.3604536e-01	   6.3689850e-02	
   4.2955000e+01	   2.2239920e-01	   5.4935670e-02	
   4.3010000e+01	   2.0889867e-01	   4.6109138e-02	
   4.3065000e+01	   1.9568594e-01	   3.7236561e-02	
   4.3120000e+01	   1.8290672e-01	   2.8353940e-02	
   4.3175000e+01	   1.7070938e-01	   1.9508061e-02	
   4.3230000e+01	   1.5924205e-01	   1.0755295e-02	
   4.3285000e+01	   1.4864777e-01	   2.1579323e-03	
   4.3340000e+01	   1.3905833e-01	  -6.2209318e-03	
   4.3395000e+01	   1.3058767e-01	  -1.4322299e-02	
   4.3450000e+01	   1.2332608e-01	  -2.2094764e-02	
   4.3505000e+01	   1.1733544e-01	  -2.9496105e-02	
   4.3560000e+01	   1.1264580e-01	  -3.6492627e-02	
   4.3615000e+01	   1.0925409e-01	  -4.3056259e-02	
   4.3670000e+01	   1.0712493e-01	  -4.9160605e-02	
   4.3725000e+01	   1.0619218e-01	  -5.4777573e-02	
   4.3780000e+01	   1.0636048e-01	  -5.9875176e-02	
   4.3835000e+01	   1.0750769e-01	  -6.4416198e-02	
   4.3890000e+01	   1.0948922e-01	  -6.8357925e-02	
   4.3945000e+01	   1.1214386e-01	  -7.1653896e-02	
   4.4000000e+01	   1.1529918e-01	  -7.4258339e-02	
   4.4055000e+01	   1.1877551e-01	  -7.6133188e-02	
   4.4110000e+01	   1.2238877e-01	  -7.7256636e-02	
   4.4165000e+01	   1.2595375e-01	  -7.7631556e-02	
   4.4220000e+01	   1.2928849e-01	  -7.7292209e-02	
   4.4275000e+01	   1.3222011e-01	  -7.6307762e-02	
   4.4330000e+01	   1.3459130e-01	  -7.4781196e-02	
   4.4385000e+01	   1.3626692e-01	  -7.2842681e-02	
   4.4440000e+01	   1.3713935e-01	  -7.0638037e-02	
   4.4495000e+01	   1.3713250e-01	  -6.8314484e-02	
   4.4550000e+01	   1.3620518e-01	  -6.6006414e-02	
   4.4605000e+01	   1.3435482e-01	  -6.3823615e-02	
   4.4660000e+01	   1.3162075e-01	  -6.1843460e-02	
   4.4715000e+01	   1.2808483e-01	  -6.0107558e-02	
   4.4770000e+01	   1.2386828e-01	  -5.8622841e-02	
   4.4825000e+01	   1.1912390e-01	  -5.7367175e-02	
   4.4880000e+01	   1.1402402e-01	  -5.6298911e-02	
   4.4935000e+01	   1.0874646e-01	  -5.5368444e-02	
   4.4990000e+01	   1.0346227e-01	  -5.4529417e-02	
   4.5045000e+01	   9.8327142e-02	  -5.3748063e-02	
   4.5100000e+01	   9.3475829e-02	  -5.3009532e-02	
   4.5155000e+01	   8.9019441e-02	  -5.2319670e-02	
   4.5210000e+01	   8.5046634e-02	  -5.1701408e-02	
   4.5265000e+01	   8.1628185e-02	  -5.1187011e-02	
   4.5320000e+01	   7.8822489e-02	  -5.0808952e-02	
   4.5375000e+01	   7.6680025e-02	  -5.0591747e-02	
   4.5430000e+01	   7.5246115e-02	  -5.0545778e-02	
   4.5485000e+01	   7.4560951e-02	  -5.0663657e-02	
   4.5540000e+01	   7.4655631e-02	  -5.0919939e-02	
   4.5595000e+01	   7.5544774e-02	  -5.1274612e-02	
   4.5650000e+01	   7.7218441e-02	  -5.1679654e-02	
   4.5705000e+01	   7.9636466e-02	  -5.2086990e-02	
   4.5760000e+01	   8.2726939e-02	  -5.2456409e-02	
   4.5815000e+01	   8.6388810e-02	  -5.2762618e-02	
   4.5870000e+01	   9.0497520e-02	  -5.3000767e-02	
   4.5925000e+01	   9.4911933e-02	  -5.3189662e-02	
   4.5980000e+01	   9.9480967e-02	  -5.3371824e-02	
   4.6035000e+01	   1.0404970e-01	  -5.3609471e-02	
   4.6090000e+01	   1.0846587e-01	  -5.3976299e-02	
   4.6145000e+01	   1.1258666e-01	  -5.4546832e-02	
   4.6200000e+01	   1.1628452e-01	  -5.5386363e-02	
   4.6255000e+01	   1.1945101e-01	  -5.6543651e-02	
   4.6310000e+01	   1.2199907e-01	  -5.8046914e-02	
   4.6365000e+01	   1.2386348e-01	  -5.9903224e-02	
   4.6420000e+01	   1.2499960e-01	  -6.2101350e-02	
   4.6475000e+01	   1.2538069e-01	  -6.4617228e-02	
   4.6530000e+01	   1.2499519e-01	  -6.7420412e-02	
   4.6585000e+01	   1.2384463e-01	  -7.0480379e-02	
   4.6640000e+01	   1.2194158e-01	  -7.3772189e-02	
   4.6695000e+01	   1.1930705e-01	  -7.7280840e-02	
   4.6750000e+01	   1.1596799e-01	  -8.1003291e-02	
   4.6805000e+01	   1.1195615e-01	  -8.4947302e-02	
   4.6860000e+01	   1.0730845e-01	  -8.9126757e-02	
   4.6915000e+01	   1.0206790e-01	  -9.3554058e-02	
   4.6970000e+01	   9.6284815e-02	  -9.8231335e-02	
   4.7025000e+01	   9.0018053e-02	  -1.0314292e-01	
   4.7080000e+01	   8.3335579e-02	  -1.0825101e-01	
   4.7135000e+01	   7.6313375e-02	  -1.1349529e-01	
   4.7190000e+01	   6.9032271e-02	  -1.1879620e-01	
   4.7245000e+01	   6.1573382e-02	  -1.2406155e-01	
   4.7300000e+01	   5.4013211e-02	  -1.2919546e-01	
   4.7355000e+01	   4.6419231e-02	  -1.3410797e-01	
   4.7410000e+01	   3.8846308e-02	  -1.3872338e-01	
   4.7465000e+01	   3.1334372e-02	  -1.4298651e-01	
   4.7520000e+01	   2.3907827e-02	  -1.4686693e-01	
   4.7575000e+01	   1.6576950e-02	  -1.5036064e-01	
   4.7630000e+01	   9.3413386e-03	  -1.5348810e-01	
   4.7685000e+01	   2.1955801e-03	  -1.5628806e-01	
   4.7740000e+01	  -4.8629028e-03	  -1.5880841e-01	
   4.7795000e+01	  -1.1824739e-02	  -1.6109620e-01	
   4.7850000e+01	  -1.8660016e-02	  -1.6318880e-01	
   4.7905000e+01	  -2.5312546e-02	  -1.6510787e-01	
   4.7960000e+01	  -3.1698918e-02	  -1.6685680e-01	
   4.8015000e+01	  -3.7712596e-02	  -1.6842121e-01	
   4.8070000e+01	  -4.3231607e-02	  -1.6977124e-01	
   4.8125000e+01	  -4.8128024e-02	  -1.7086554e-01	
   4.8180000e+01	  -5.2278190e-02	  -1.7165660e-01	
   4.8235000e+01	  -5.5572934e-02	  -1.7209738e-01	
   4.8290000e+01	  -5.7926538e-02	  -1.7214758e-01	
   4.8345000e+01	  -5.9282884e-02	  -1.7177807e-01	
   4.8400000e+01	  -5.9618131e-02	  -1.7097212e-01	
   4.8455000e+01	  -5.8940290e-02	  -1.6972344e-01	
   4.8510000e+01	  -5.7286378e-02	  -1.6803168e-01	
   4.8565000e+01	  -5.4718175e-02	  -1.6589680e-01	
   4.8620000e+01	  -5.1317761e-02	  -1.6331379e-01	
   4.8675000e+01	  -4.7182984e-02	  -1.6026885e-01	
   4.8730000e+01	  -4.2422483e-02	  -1.5673742e-01	
   4.8785000e+01	  -3.7150788e-02	  -1.5268429e-01	
   4.8840000e+01	  -3.1484810e-02	  -1.4806671e-01	
   4.8895000e+01	  -2.5541997e-02	  -1.4284072e-01	
   4.8950000e+01	  -1.9439226e-02	  -1.3696979e-01	
   4.9005000e+01	  -1.3291619e-02	  -1.3043370e-01	
   4.9060000e+01	  -7.2113795e-03	  -1.2323642e-01	
   4.9115000e+01	  -1.3069033e-03	  -1.1541146e-01	
   4.9170000e+01	   4.3187830e-03	  -1.0702283e-01	
   4.9225000e+01	   9.5719410e-03	  -9.8159803e-02	
   4.9280000e+01	   1.4375011e-02	  -8.8926095e-02	
   4.9335000e+01	   1.8674821e-02	  -7.9425687e-02	
   4.9390000e+01	   2.2449418e-02	  -6.9748805e-02	
   4.9445000e+01	   2.5711948e-02	  -5.9960621e-02	
   4.9500000e+01	   2.8511619e-02	  -5.0094412e-02	
   4.9555000e+01	   3.0932012e-02	  -4.0149799e-02	
   4.9610000e+01	   3.3086099e-02	  -3.0095984e-02	
   4.9665000e+01	   3.5107392e-02	  -1.9879638e-02	
   4.9720000e+01	   3.7137599e-02	  -9.4367741e-03	
   4.9775000e+01	   3.9312435e-02	   1.2932470e-03	
   4.9830000e+01	   4.1748449e-02	   1.2354343e-02	
   4.9885000e+01	   4.4533428e-02	   2.3763282e-02	
   4.9940000e+01	   4.7721346e-02	   3.5503182e-02	
   4.9995000e+01	   5.1331770e-02	   4.7521547e-02	
   5.0050000e+01	   5.5353197e-02	   5.9733807e-02	
   5.0105000e+01	   5.9748502e-02	   7.2032363e-02	
   5.0160000e+01	   6.4459882e-02	   8.4298692e-02	
   5.0215000e+01	   6.9412038e-02	   9.6415014e-02	
   5.0270000e+01	   7.4514776e-02	   1.0827355e-01	
   5.0325000e+01	   7.9666878e-02	   1.1978308e-01	
   5.0380000e+01	   8.4761699e-02	   1.3087280e-01	
   5.0435000e+01	   8.9693914e-02	   1.4149341e-01	
   5.0490000e+01	   9.4366776e-02	   1.5161590e-01	
   5.0545000e+01	   9.8698381e-02	   1.6122821e-01	
   5.0600000e+01	   1.0262495e-01	   1.7032973e-01	
   5.0655000e+01	   1.0610131e-01	   1.7892416e-01	
   5.0710000e+01	   1.0910120e-01	   1.8701248e-01	
   5.0765000e+01	   1.1161913e-01	   1.9458843e-01	
   5.0820000e+01	   1.1367279e-01	   2.0163794e-01	
   5.0875000e+01	   1.1530373e-01	   2.0814264e-01	
   5.0930000e+01	   1.1657544e-01	   2.1408645e-01	
   5.0985000e+01	   1.1756910e-01	   2.1946337e-01	
   5.1040000e+01	   1.1837808e-01	   2.2428420e-01	
   5.1095000e+01	   1.1910186e-01	   2.2858024e-01	
   5.1150000e+01	   1.1983958e-01	   2.3240309e-01	
   5.1205000e+01	   1.2068386e-01	   2.3582136e-01	
   5.1260000e+01	   1.2171476e-01	   2.3891504e-01	
   5.1315000e+01	   1.2299493e-01	   2.4176814e-01	
   5.1370000e+01	   1.2456713e-01	   2.4446087e-01	
   5.1425000e+01	   1.2645410e-01	   2.4706233e-01	
   5.1480000e+01	   1.2866003e-01	   2.4962429e-01	
   5.1535000e+01	   1.3117284e-01	   2.5217663e-01	
   5.1590000e+01	   1.3396769e-01	   2.5472592e-01	
   5.1645000e+01	   1.3701241e-01	   2.5725803e-01	
   5.1700000e+01	   1.4027313e-01	   2.5974382e-01	
   5.1755000e+01	   1.4371714e-01	   2.6214562e-01	
   5.1810000e+01	   1.4731228e-01	   2.6442286e-01	
   5.1865000e+01	   1.5102552e-01	   2.6653740e-01	
   5.1920000e+01	   1.5482311e-01	   2.6845802e-01	
   5.1975000e+01	   1.5867258e-01	   2.7016324e-01	
   5.2030000e+01	   1.6254529e-01	   2.7164189e-01	
   5.2085000e+01	   1.6641844e-01	   2.7289197e-01	
   5.2140000e+01	   1.7027522e-01	   2.7391793e-01	
   5.2195000e+01	   1.7410222e-01	   2.7472648e-01	
   5.2250000e+01	   1.7788467e-01	   2.7532174e-01	
   5.2305000e+01	   1.8160212e-01	   2.7570174e-01	
   5.2360000e+01	   1.8522651e-01	   2.7585809e-01	
   5.2415000e+01	   1.8872226e-01	   2.7577891e-01	
   5.2470000e+01	   1.9204730e-01	   2.7545482e-01	
   5.2525000e+01	   1.9515514e-01	   2.7488639e-01	
   5.2580000e+01	   1.9799817e-01	   2.7409096e-01	
   5.2635000e+01	   2.0053108e-01	   2.7310659e-01	
   5.2690000e+01	   2.0271253e-01	   2.7199247e-01	
   5.2745000e+01	   2.0450424e-01	   2.7082620e-01	
   5.2800000e+01	   2.0586807e-01	   2.6969815e-01	
   5.2855000e+01	   2.0676242e-01	   2.6870286e-01	
   5.2910000e+01	   2.0714072e-01	   2.6792893e-01	
   5.2965000e+01	   2.0695451e-01	   2.6744979e-01	
   5.3020000e+01	   2.0616030e-01	   2.6731655e-01	
   5.3075000e+01	   2.0472693e-01	   2.6755312e-01	
   5.3130000e+01	   2.0264146e-01	   2.6815354e-01	
   5.3185000e+01	   1.9991394e-01	   2.6908245e-01	
   5.3240000e+01	   1.9658211e-01	   2.7028000e-01	
   5.3295000e+01	   1.9271565e-01	   2.7167092e-01	
   5.3350000e+01	   1.8841824e-01	   2.7317590e-01	
   5.3405000e+01	   1.8382659e-01	   2.7472199e-01	
   5.3460000e+01	   1.7910653e-01	   2.7624965e-01	
   5.3515000e+01	   1.7444611e-01	   2.7771518e-01	
   5.3570000e+01	   1.7004614e-01	   2.7908947e-01	
   5.3625000e+01	   1.6610856e-01	   2.8035493e-01	
   5.3680000e+01	   1.6282432e-01	   2.8150224e-01	
   5.3735000e+01	   1.6036241e-01	   2.8252712e-01	
   5.3790000e+01	   1.5885999e-01	   2.8342665e-01	
   5.3845000e+01	   1.5841283e-01	   2.8419479e-01	
   5.3900000e+01	   1.5906684e-01	   2.8481790e-01	
   5.3955000e+01	   1.6081226e-01	   2.8527025e-01	
   5.4010000e+01	   1.6358189e-01	   2.8551022e-01	
   5.4065000e+01	   1.6725414e-01	   2.8547893e-01	
   5.4120000e+01	   1.7166111e-01	   2.8510354e-01	
   5.4175000e+01	   1.7660133e-01	   2.8430505e-01	
   5.4230000e+01	   1.8185552e-01	   2.8300904e-01	
   5.4285000e+01	   1.8720302e-01	   2.8115685e-01	
   5.4340000e+01	   1.9243685e-01	   2.7871523e-01	
   5.4395000e+01	   1.9737592e-01	   2.7568247e-01	
   5.4450000e+01	   2.0187288e-01	   2.7208994e-01	
   5.4505000e+01	   2.0581759e-01	   2.6799908e-01	
   5.4560000e+01	   2.0913718e-01	   2.6349497e-01	
   5.4615000e+01	   2.1179357e-01	   2.5867748e-01	
   5.4670000e+01	   2.1377909e-01	   2.5365071e-01	
   5.4725000e+01	   2.1511062e-01	   2.4851160e-01	
   5.4780000e+01	   2.1582360e-01	   2.4333896e-01	
   5.4835000e+01	   2.1596643e-01	   2.3818431e-01	
   5.4890000e+01	   2.1559506e-01	   2.3306566e-01	
   5.4945000e+01	   2.1476722e-01	   2.2796583e-01	
   5.5000000e+01	   2.1353751e-01	   2.2283620e-01	
   5.5055000e+01	   2.1195475e-01	   2.1760531e-01	
   5.5110000e+01	   2.1006130e-01	   2.1219004e-01	
   5.5165000e+01	   2.0789309e-01	   2.0650714e-01	
   5.5220000e+01	   2.0548030e-01	   2.0048365e-01	
   5.5275000e+01	   2.0284784e-01	   1.9406550e-01	
   5.5330000e+01	   2.0001465e-01	   1.8722302e-01	
   5.5385000e+01	   1.9699163e-01	   1.7995334e-01	
   5.5440000e+01	   1.9378023e-01	   1.7228033e-01	
   5.5495000e+01	   1.9037192e-01	   1.6425198e-01	
   5.5550000e+01	   1.8674787e-01	   1.5593469e-01	
   5.5605000e+01	   1.8287869e-01	   1.4740476e-01	
   5.5660000e+01	   1.7872524e-01	   1.3873886e-01	
   5.5715000e+01	   1.7424013e-01	   1.3000475e-01	
   5.5770000e+01	   1.6936896e-01	   1.2125347e-01	
   5.5825000e+01	   1.6405124e-01	   1.1251410e-01	
   5.5880000e+01	   1.5822275e-01	   1.0379306e-01	
   5.5935000e+01	   1.5182101e-01	   9.5078312e-02	
   5.5990000e+01	   1.4479380e-01	   8.6347487e-02	
   5.6045000e+01	   1.3710818e-01	   7.7577621e-02	
   5.6100000e+01	   1.2875719e-01	   6.8754034e-02	
   5.6155000e+01	   1.1976303e-01	   5.9876946e-02	
   5.6210000e+01	   1.1017721e-01	   5.0965536e-02	
   5.6265000e+01	   1.0007892e-01	   4.2059702e-02	
   5.6320000e+01	   8.9571923e-02	   3.3219615e-02	
   5.6375000e+01	   7.8779797e-02	   2.4522744e-02	
   5.6430000e+01	   6.7838660e-02	   1.6058107e-02	
   5.6485000e+01	   5.6887763e-02	   7.9182744e-03	
   5.6540000e+01	   4.6058658e-02	   1.9036850e-04	
   5.6595000e+01	   3.5464078e-02	  -7.0527084e-03	
   5.6650000e+01	   2.5188002e-02	  -1.3759603e-02	
   5.6705000e+01	   1.5278795e-02	  -1.9904842e-02	
   5.6760000e+01	   5.7475409e-03	  -2.5488500e-02	
   5.6815000e+01	  -3.4276223e-03	  -3.0531067e-02	
   5.6870000e+01	  -1.2293336e-02	  -3.5065567e-02	
   5.6925000e+01	  -2.0912607e-02	  -3.9129454e-02	
   5.6980000e+01	  -2.9357607e-02	  -4.2757622e-02	
   5.7035000e+01	  -3.7702744e-02	  -4.5977162e-02	
   5.7090000e+01	  -4.6017831e-02	  -4.8804689e-02	
   5.7145000e+01	  -5.4362791e-02	  -5.1246738e-02	
   5.7200000e+01	  -6.2784520e-02	  -5.3302531e-02	
   5.7255000e+01	  -7.1315102e-02	  -5.4967713e-02	
   5.7310000e+01	  -7.9971262e-02	  -5.6238363e-02	
   5.7365000e+01	  -8.8755564e-02	  -5.7115303e-02	
   5.7420000e+01	  -9.7658332e-02	  -5.7607939e-02	
   5.7475000e+01	  -1.0665858e-01	  -5.7736394e-02	
   5.7530000e+01	  -1.1572378e-01	  -5.7531230e-02	
   5.7585000e+01	  -1.2480925e-01	  -5.7030617e-02	
   5.7640000e+01	  -1.3385725e-01	  -5.6274971e-02	
   5.7695000e+01	  -1.4279601e-01	  -5.5300087e-02	
   5.7750000e+01	  -1.5153952e-01	  -5.4130901e-02	
   5.7805000e+01	  -1.5998837e-01	  -5.2777340e-02	
   5.7860000e+01	  -1.6803046e-01	  -5.1231972e-02	
   5.7915000e+01	  -1.7554079e-01	  -4.9468982e-02	
   5.7970000e+01	  -1.8238184e-01	  -4.7445194e-02	
   5.8025000e+01	  -1.8840668e-01	  -4.5104205e-02	
   5.8080000e+01	  -1.9346596e-01	  -4.2383563e-02	
   5.8135000e+01	  -1.9741778e-01	  -3.9223725e-02	
   5.8190000e+01	  -2.0013856e-01	  -3.5577247e-02	
   5.8245000e+01	  -2.0153335e-01	  -3.1416843e-02	
   5.8300000e+01	  -2.0154367e-01	  -2.6741048e-02	
   5.8355000e+01	  -2.0015118e-01	  -2.1576195e-02	
   5.8410000e+01	  -1.9737661e-01	  -1.5973962e-02	
   5.8465000e+01	  -1.9327523e-01	  -1.0004979e-02	
   5.8520000e+01	  -1.8793086e-01	  -3.7501186e-03	
   5.8575000e+01	  -1.8144933e-01	   2.7087880e-03	
   5.8630000e+01	  -1.7395139e-01	   9.2974683e-03	
   5.8685000e+01	  -1.6556586e-01	   1.5955760e-02	
   5.8740000e+01	  -1.5642425e-01	   2.2641232e-02	
   5.8795000e+01	  -1.4665725e-01	   2.9329661e-02	
   5.8850000e+01	  -1.3639204e-01	   3.6012600e-02	
   5.8905000e+01	  -1.2575045e-01	   4.2692287e-02	
   5.8960000e+01	  -1.1484861e-01	   4.9374706e-02	
   5.9015000e+01	  -1.0379746e-01	   5.6062306e-02	
   5.9070000e+01	  -9.2702778e-02	   6.2747475e-02	
   5.9125000e+01	  -8.1664714e-02	   6.9407264e-02	
   5.9180000e+01	  -7.0777172e-02	   7.6000513e-02	
   5.9235000e+01	  -6.0126329e-02	   8.2469126e-02	
   5.9290000e+01	  -4.9787408e-02	   8.8744088e-02	
   5.9345000e+01	  -3.9819986e-02	   9.4754968e-02	
   5.9400000e+01	  -3.0263400e-02	   1.0044069e-01	
   5.9455000e+01	  -2.1133710e-02	   1.0575938e-01	
   5.9510000e+01	  -1.2423423e-02	   1.1069541e-01	
   5.9565000e+01	  -4.1046011e-03	   1.1526220e-01	
   5.9620000e+01	   3.8656355e-03	   1.1950084e-01	
   5.9675000e+01	   1.1539084e-02	   1.2347533e-01	
   5.9730000e+01	   1.8971002e-02	   1.2726564e-01	
   5.9785000e+01	   2.6215548e-02	   1.3095946e-01	
   5.9840000e+01	   3.3322106e-02	   1.3464360e-01	
   5.9895000e+01	   4.0331824e-02	   1.3839557e-01	
   5.9950000e+01	   4.7273491e-02	   1.4227552e-01	
   6.0005000e+01	   5.4158894e-02	   1.4631911e-01	
   6.0060000e+01	   6.0978613e-02	   1.5053292e-01	
   6.0115000e+01	   6.7699238e-02	   1.5489415e-01	
   6.0170000e+01	   7.4263016e-02	   1.5935530e-01	
   6.0225000e+01	   8.0590582e-02	   1.6385285e-01	
   6.0280000e+01	   8.6586597e-02	   1.6831757e-01	
   6.0335000e+01	   9.2147820e-02	   1.7268439e-01	
   6.0390000e+01	   9.7173022e-02	   1.7689992e-01	
   6.0445000e+01	   1.0157289e-01	   1.8092616e-01	
   6.0500000e+01	   1.0527754e-01	   1.8473977e-01	
   6.0555000e+01	   1.0824114e-01	   1.8832853e-01	
   6.0610000e+01	   1.1044429e-01	   1.9168721e-01	
   6.0665000e+01	   1.1189431e-01	   1.9481363e-01	
   6.0720000e+01	   1.1262293e-01	   1.9770431e-01	
   6.0775000e+01	   1.1268271e-01	   2.0035011e-01	
   6.0830000e+01	   1.1214345e-01	   2.0273270e-01	
   6.0885000e+01	   1.1108924e-01	   2.0482218e-01	
   6.0940000e+01	   1.0961528e-01	   2.0657554e-01	
   6.0995000e+01	   1.0782514e-01	   2.0793697e-01	
   6.1050000e+01	   1.0582922e-01	   2.0884204e-01	
   6.1105000e+01	   1.0374437e-01	   2.0922578e-01	
   6.1160000e+01	   1.0169342e-01	   2.0903334e-01	
   6.1215000e+01	   9.9803185e-02	   2.0823050e-01	
   6.1270000e+01	   9.8200729e-02	   2.0681222e-01	
   6.1325000e+01	   9.7008759e-02	   2.0480771e-01	
   6.1380000e+01	   9.6341126e-02	   2.0228135e-01	
   6.1435000e+01	   9.6299545e-02	   1.9933029e-01	
   6.1490000e+01	   9.6972132e-02	   1.9607970e-01	
   6.1545000e+01	   9.8433274e-02	   1.9267572e-01	
   6.1600000e+01	   1.0074322e-01	   1.8927617e-01	
   6.1655000e+01	   1.0394620e-01	   1.8603938e-01	
   6.1710000e+01	   1.0806783e-01	   1.8311349e-01	
   6.1765000e+01	   1.1311348e-01	   1.8062827e-01	
   6.1820000e+01	   1.1906947e-01	   1.7869097e-01	
   6.1875000e+01	   1.2590708e-01	   1.7738608e-01	
   6.1930000e+01	   1.3358912e-01	   1.7677841e-01	
   6.1985000e+01	   1.4207765e-01	   1.7691765e-01	
   6.2040000e+01	   1.5134057e-01	   1.7784286e-01	
   6.2095000e+01	   1.6135491e-01	   1.7958559e-01	
   6.2150000e+01	   1.7210590e-01	   1.8217179e-01	
   6.2205000e+01	   1.8358243e-01	   1.8562229e-01	
   6.2260000e+01	   1.9577037e-01	   1.8995140e-01	
   6.2315000e+01	   2.0864549e-01	   1.9516317e-01	
   6.2370000e+01	   2.2216740e-01	   2.0124669e-01	
   6.2425000e+01	   2.3627488e-01	   2.0817155e-01	
   6.2480000e+01	   2.5088203e-01	   2.1588456e-01	
   6.2535000e+01	   2.6587551e-01	   2.2430809e-01	
   6.2590000e+01	   2.8111454e-01	   2.3334118e-01	
   6.2645000e+01	   2.9643555e-01	   2.4286499e-01	
   6.2700000e+01	   3.1166104e-01	   2.5275230e-01	
   6.2755000e+01	   3.2661095e-01	   2.6287887e-01	
   6.2810000e+01	   3.4111459e-01	   2.7313368e-01	
   6.2865000e+01	   3.5502205e-01	   2.8342646e-01	
   6.2920000e+01	   3.6821381e-01	   2.9369203e-01	
   6.2975000e+01	   3.8060783e-01	   3.0389196e-01	
   6.3030000e+01	   3.9216410e-01	   3.1401409e-01	
   6.3085000e+01	   4.0288610e-01	   3.2406939e-01	
   6.3140000e+01	   4.1281824e-01	   3.3408565e-01	
   6.3195000e+01	   4.2203952e-01	   3.4409824e-01	
   6.3250000e+01	   4.3065485e-01	   3.5413967e-01	
   6.3305000e+01	   4.3878536e-01	   3.6422964e-01	
   6.3360000e+01	   4.4655775e-01	   3.7436655e-01	
   6.3415000e+01	   4.5409368e-01	   3.8452120e-01	
   6.3470000e+01	   4.6150129e-01	   3.9463442e-01	
   6.3525000e+01	   4.6887054e-01	   4.0462046e-01	
   6.3580000e+01	   4.7627229e-01	   4.1437609e-01	
   6.3635000e+01	   4.8376029e-01	   4.2379281e-01	
   6.3690000e+01	   4.9137429e-01	   4.3276938e-01	
   6.3745000e+01	   4.9914335e-01	   4.4122228e-01	
   6.3800000e+01	   5.0708803e-01	   4.4909253e-01	
   6.3855000e+01	   5.1522114e-01	   4.5634842e-01	
   6.3910000e+01	   5.2354752e-01	   4.6298499e-01	
   6.3965000e+01	   5.3206390e-01	   4.6902157e-01	
   6.4020000e+01	   5.4076005e-01	   4.7449769e-01	
   6.4075000e+01	   5.4961999e-01	   4.7946701e-01	
   6.4130000e+01	   5.5862186e-01	   4.8398939e-01	
   6.4185000e+01	   5.6773517e-01	   4.8812222e-01	
   6.4240000e+01	   5.7691620e-01	   4.9191219e-01	
   6.4295000e+01	   5.8610302e-01	   4.9538878e-01	
   6.4350000e+01	   5.9521286e-01	   4.9856105e-01	
   6.4405000e+01	   6.0414353e-01	   5.0141884e-01	
   6.4460000e+01	   6.1277832e-01	   5.0393771e-01	
   6.4515000e+01	   6.2099232e-01	   5.0608509e-01	
   6.4570000e+01	   6.2865887e-01	   5.0782615e-01	
   6.4625000e+01	   6.3565621e-01	   5.0912868e-01	
   6.4680000e+01	   6.4187357e-01	   5.0996676e-01	
   6.4735000e+01	   6.4721579e-01	   5.1032298e-01	
   6.4790000e+01	   6.5160567e-01	   5.1018933e-01	
   6.4845000e+01	   6.5498502e-01	   5.0956693e-01	
   6.4900000e+01	   6.5731514e-01	   5.0846441e-01	
   6.4955000e+01	   6.5857741e-01	   5.0689448e-01	
   6.5010000e+01	   6.5877306e-01	   5.0486967e-01	
   6.5065000e+01	   6.5792248e-01	   5.0239912e-01	
   6.5120000e+01	   6.5606538e-01	   4.9948884e-01	
   6.5175000e+01	   6.5326239e-01	   4.9614612e-01	
   6.5230000e+01	   6.4959662e-01	   4.9238657e-01	
   6.5285000e+01	   6.4517339e-01	   4.8824113e-01	
   6.5340000e+01	   6.4011712e-01	   4.8376094e-01	
   6.5395000e+01	   6.3456483e-01	   4.7901818e-01	
   6.5450000e+01	   6.2865676e-01	   4.7410268e-01	
   6.5505000e+01	   6.2252628e-01	   4.6911578e-01	
   6.5560000e+01	   6.1629228e-01	   4.6416301e-01	
   6.5615000e+01	   6.1005471e-01	   4.5934615e-01	
   6.5670000e+01	   6.0389284e-01	   4.5475473e-01	
   6.5725000e+01	   5.9786536e-01	   4.5045729e-01	
   6.5780000e+01	   5.9201187e-01	   4.4649336e-01	
   6.5835000e+01	   5.8635494e-01	   4.4286714e-01	
   6.5890000e+01	   5.8090185e-01	   4.3954432e-01	
   6.5945000e+01	   5.7564541e-01	   4.3645351e-01	
   6.6000000e+01	   5.7056467e-01	   4.3349307e-01	
   6.6055000e+01	   5.6562579e-01	   4.3054196e-01	
   6.6110000e+01	   5.6078371e-01	   4.2747253e-01	
   6.6165000e+01	   5.5598631e-01	   4.2416368e-01	
   6.6220000e+01	   5.5118215e-01	   4.2051290e-01	
   6.6275000e+01	   5.4632989e-01	   4.1644576e-01	
   6.6330000e+01	   5.4140500e-01	   4.1192100e-01	
   6.6385000e+01	   5.3640165e-01	   4.0693087e-01	
   6.6440000e+01	   5.3133059e-01	   4.0149738e-01	
   6.6495000e+01	   5.2621460e-01	   3.9566574e-01	
   6.6550000e+01	   5.2108171e-01	   3.8949594e-01	
   6.6605000e+01	   5.1595637e-01	   3.8305359e-01	
   6.6660000e+01	   5.1085084e-01	   3.7640124e-01	
   6.6715000e+01	   5.0575888e-01	   3.6959061e-01	
   6.6770000e+01	   5.0065249e-01	   3.6265570e-01	
   6.6825000e+01	   4.9548051e-01	   3.5560717e-01	
   6.6880000e+01	   4.9016930e-01	   3.4842965e-01	
   6.6935000e+01	   4.8462714e-01	   3.4108364e-01	
   6.6990000e+01	   4.7875191e-01	   3.3351197e-01	
   6.7045000e+01	   4.7244049e-01	   3.2564931e-01	
   6.7100000e+01	   4.6559779e-01	   3.1743306e-01	
   6.7155000e+01	   4.5814376e-01	   3.0881377e-01	
   6.7210000e+01	   4.5001678e-01	   2.9976312e-01	
   6.7265000e+01	   4.4117345e-01	   2.9027834e-01	
   6.7320000e+01	   4.3158730e-01	   2.8038332e-01	
   6.7375000e+01	   4.2124907e-01	   2.7012746e-01	
   6.7430000e+01	   4.1016875e-01	   2.5958234e-01	
   6.7485000e+01	   3.9837738e-01	   2.4883605e-01	
   6.7540000e+01	   3.8592802e-01	   2.3798546e-01	
   6.7595000e+01	   3.7289666e-01	   2.2712743e-01	
   6.7650000e+01	   3.5938251e-01	   2.1634995e-01	
   6.7705000e+01	   3.4550597e-01	   2.0572404e-01	
   6.7760000e+01	   3.3140314e-01	   1.9529761e-01	
   6.7815000e+01	   3.1721676e-01	   1.8509267e-01	
   6.7870000e+01	   3.0308535e-01	   1.7510617e-01	
   6.7925000e+01	   2.8913304e-01	   1.6531444e-01	
   6.7980000e+01	   2.7546228e-01	   1.5567971e-01	
   6.8035000e+01	   2.6215036e-01	   1.4615726e-01	
   6.8090000e+01	   2.4924910e-01	   1.3670173e-01	
   6.8145000e+01	   2.3678685e-01	   1.2727149e-01	
   6.8200000e+01	   2.2477175e-01	   1.1783075e-01	
   6.8255000e+01	   2.1319554e-01	   1.0834988e-01	
   6.8310000e+01	   2.0203711e-01	   9.8804558e-02	
   6.8365000e+01	   1.9126494e-01	   8.9173615e-02	
   6.8420000e+01	   1.8083815e-01	   7.9435606e-02	
   6.8475000e+01	   1.7070666e-01	   6.9564676e-02	
   6.8530000e+01	   1.6081154e-01	   5.9527528e-02	
   6.8585000e+01	   1.5108630e-01	   4.9283179e-02	
   6.8640000e+01	   1.4145963e-01	   3.8786449e-02	
   6.8695000e+01	   1.3185897e-01	   2.7995066e-02	
   6.8750000e+01	   1.2221355e-01	   1.6878897e-02	
   6.8805000e+01	   1.1245637e-01	   5.4290365e-03	
   6.8860000e+01	   1.0252594e-01	  -6.3349911e-03	
   6.8915000e+01	   9.2369893e-02	  -1.8360783e-02	
   6.8970000e+01	   8.1950093e-02	  -3.0562368e-02	
   6.9025000e+01	   7.1247491e-02	  -4.2824140e-02	
   6.9080000e+01	   6.0265035e-02	  -5.5008917e-02	
   6.9135000e+01	   4.9028426e-02	  -6.6968317e-02	
   6.9190000e+01	   3.7584647e-02	  -7.8553987e-02	
   6.9245000e+01	   2.5998244e-02	  -8.9629254e-02	
   6.9300000e+01	   1.4346194e-02	  -1.0008041e-01	
   6.9355000e+01	   2.7131640e-03	  -1.0982585e-01	
   6.9410000e+01	  -8.8114872e-03	  -1.1882118e-01	
   6.9465000e+01	  -2.0134931e-02	  -1.2705946e-01	
   6.9520000e+01	  -3.1161002e-02	  -1.3456655e-01	
   6.9575000e+01	  -4.1789898e-02	  -1.4139300e-01	
   6.9630000e+01	  -5.1918309e-02	  -1.4760403e-01	
   6.9685000e+01	  -6.1441414e-02	  -1.5326938e-01	
   6.9740000e+01	  -7.0257594e-02	  -1.5845411e-01	
   6.9795000e+01	  -7.8274797e-02	  -1.6321154e-01	
   6.9850000e+01	  -8.5416647e-02	  -1.6757920e-01	
   6.9905000e+01	  -9.1627466e-02	  -1.7157859e-01	
   6.9960000e+01	  -9.6876126e-02	  -1.7521818e-01	
   7.0015000e+01	  -1.0115825e-01	  -1.7849831e-01	
   7.0070000e+01	  -1.0449623e-01	  -1.8141736e-01	
   7.0125000e+01	  -1.0693738e-01	  -1.8397906e-01	
   7.0180000e+01	  -1.0855094e-01	  -1.8620064e-01	
   7.0235000e+01	  -1.0942467e-01	  -1.8812019e-01	
   7.0290000e+01	  -1.0966155e-01	  -1.8980185e-01	
   7.0345000e+01	  -1.0937744e-01	  -1.9133740e-01	
   7.0400000e+01	  -1.0870003e-01	  -1.9284359e-01	
   7.0455000e+01	  -1.0776805e-01	  -1.9445412e-01	
   7.0510000e+01	  -1.0672919e-01	  -1.9630704e-01	
   7.0565000e+01	  -1.0573626e-01	  -1.9853020e-01	
   7.0620000e+01	  -1.0494189e-01	  -2.0122843e-01	
   7.0675000e+01	  -1.0449178e-01	  -2.0447420e-01	
   7.0730000e+01	  -1.0451627e-01	  -2.0830224e-01	
   7.0785000e+01	  -1.0512172e-01	  -2.1270813e-01	
   7.0840000e+01	  -1.0638378e-01	  -2.1765123e-01	
   7.0895000e+01	  -1.0834420e-01	  -2.2306123e-01	
   7.0950000e+01	  -1.1101071e-01	  -2.2884661e-01	
   7.1005000e+01	  -1.1435906e-01	  -2.3490425e-01	
   7.1060000e+01	  -1.1833760e-01	  -2.4112985e-01	
   7.1115000e+01	  -1.2287502e-01	  -2.4742877e-01	
   7.1170000e+01	  -1.2789024e-01	  -2.5372558e-01	
   7.1225000e+01	  -1.3330187e-01	  -2.5997013e-01	
   7.1280000e+01	  -1.3903499e-01	  -2.6613846e-01	
   7.1335000e+01	  -1.4502389e-01	  -2.7222815e-01	
   7.1390000e+01	  -1.5121064e-01	  -2.7824972e-01	
   7.1445000e+01	  -1.5754094e-01	  -2.8421636e-01	
   7.1500000e+01	  -1.6396059e-01	  -2.9013525e-01	
   7.1555000e+01	  -1.7041405e-01	  -2.9600201e-01	
   7.1610000e+01	  -1.7684401e-01	  -3.0179820e-01	
   7.1665000e+01	  -1.8319060e-01	  -3.0749126e-01	
   7.1720000e+01	  -1.8939111e-01	  -3.1303713e-01	
   7.1775000e+01	  -1.9538196e-01	  -3.1838588e-01	
   7.1830000e+01	  -2.0110247e-01	  -3.2348935e-01	
   7.1885000e+01	  -2.0649908e-01	  -3.2830897e-01	
   7.1940000e+01	  -2.1152926e-01	  -3.3282263e-01	
   7.1995000e+01	  -2.1616452e-01	  -3.3702929e-01	
   7.2050000e+01	  -2.2039215e-01	  -3.4095017e-01	
   7.2105000e+01	  -2.2421502e-01	  -3.4462566e-01	
   7.2160000e+01	  -2.2764968e-01	  -3.4810862e-01	
   7.2215000e+01	  -2.3072362e-01	  -3.5145594e-01	
   7.2270000e+01	  -2.3347233e-01	  -3.5471978e-01	
   7.2325000e+01	  -2.3593661e-01	  -3.5794048e-01	
   7.2380000e+01	  -2.3816035e-01	  -3.6114204e-01	
   7.2435000e+01	  -2.4018829e-01	  -3.6433018e-01	
   7.2490000e+01	  -2.4206225e-01	  -3.6749200e-01	
   7.2545000e+01	  -2.4381513e-01	  -3.7059699e-01	
   7.2600000e+01	  -2.4546472e-01	  -3.7360033e-01	
   7.2655000e+01	  -2.4700980e-01	  -3.7644895e-01	
   7.2710000e+01	  -2.4842916e-01	  -3.7908908e-01	
   7.2765000e+01	  -2.4968204e-01	  -3.8147306e-01	
   7.2820000e+01	  -2.5071013e-01	  -3.8356375e-01	
   7.2875000e+01	  -2.5144151e-01	  -3.8533616e-01	
   7.2930000e+01	  -2.5179597e-01	  -3.8677551e-01	
   7.2985000e+01	  -2.5169026e-01	  -3.8787177e-01	
   7.3040000e+01	  -2.5104217e-01	  -3.8861250e-01	
   7.3095000e+01	  -2.4977360e-01	  -3.8897662e-01	
   7.3150000e+01	  -2.4781319e-01	  -3.8893019e-01	
   7.3205000e+01	  -2.4509847e-01	  -3.8842458e-01	
   7.3260000e+01	  -2.4157741e-01	  -3.8739735e-01	
   7.3315000e+01	  -2.3720956e-01	  -3.8577644e-01	
   7.3370000e+01	  -2.3196706e-01	  -3.8348711e-01	
   7.3425000e+01	  -2.2583617e-01	  -3.8046017e-01	
   7.3480000e+01	  -2.1882017e-01	  -3.7664039e-01	
   7.3535000e+01	  -2.1094347e-01	  -3.7199452e-01	
   7.3590000e+01	  -2.0225581e-01	  -3.6651845e-01	
   7.3645000e+01	  -1.9283485e-01	  -3.6024170e-01	
   7.3700000e+01	  -1.8278629e-01	  -3.5322786e-01	
   7.3755000e+01	  -1.7224157e-01	  -3.4557003e-01	
   7.3810000e+01	  -1.6135358e-01	  -3.3738190e-01	
   7.3865000e+01	  -1.5029022e-01	  -3.2878579e-01	
   7.3920000e+01	  -1.3922601e-01	  -3.1990025e-01	
   7.3975000e+01	  -1.2833305e-01	  -3.1082933e-01	
   7.4030000e+01	  -1.1777235e-01	  -3.0165464e-01	
   7.4085000e+01	  -1.0768558e-01	  -2.9243052e-01	
   7.4140000e+01	  -9.8188240e-02	  -2.8318282e-01	
   7.4195000e+01	  -8.9365215e-02	  -2.7391187e-01	
   7.4250000e+01	  -8.1269336e-02	  -2.6459928e-01	
   7.4305000e+01	  -7.3923001e-02	  -2.5521713e-01	
   7.4360000e+01	  -6.7322749e-02	  -2.4573823e-01	
   7.4415000e+01	  -6.1446350e-02	  -2.3614578e-01	
   7.4470000e+01	  -5.6260803e-02	  -2.2644100e-01	
   7.4525000e+01	  -5.1729080e-02	  -2.1664775e-01	
   7.4580000e+01	  -4.7814057e-02	  -2.0681307e-01	
   7.4635000e+01	  -4.4479250e-02	  -1.9700347e-01	
   7.4690000e+01	  -4.1686859e-02	  -1.8729729e-01	
   7.4745000e+01	  -3.9394222e-02	  -1.7777493e-01	
   7.4800000e+01	  -3.7549534e-02	  -1.6850922e-01	
   7.4855000e+01	  -3.6087506e-02	  -1.5955763e-01	
   7.4910000e+01	  -3.4925938e-02	  -1.5095739e-01	
   7.4965000e+01	  -3.3963946e-02	  -1.4272301e-01	
   7.5020000e+01	  -3.3081987e-02	  -1.3484588e-01	
   7.5075000e+01	  -3.2144077e-02	  -1.2729584e-01	
   7.5130000e+01	  -3.1003077e-02	  -1.2002566e-01	
   7.5185000e+01	  -2.9509163e-02	  -1.1297807e-01	
   7.5240000e+01	  -2.7520277e-02	  -1.0609460e-01	
   7.5295000e+01	  -2.4912768e-02	  -9.9325092e-02	
   7.5350000e+01	  -2.1590644e-02	  -9.2636609e-02	
   7.5405000e+01	  -1.7492193e-02	  -8.6019391e-02	
   7.5460000e+01	  -1.2593318e-02	  -7.9488275e-02	
   7.5515000e+01	  -6.9076400e-03	  -7.3079487e-02	
   7.5570000e+01	  -4.8395832e-04	  -6.6844079e-02	
   7.5625000e+01	   6.5983121e-03	  -6.0839337e-02	
   7.5680000e+01	   1.4235376e-02	  -5.5119699e-02	
   7.5735000e+01	   2.2306705e-02	  -4.9728992e-02	
   7.5790000e+01	   3.0683327e-02	  -4.4695357e-02	
   7.5845000e+01	   3.9235214e-02	  -4.0029048e-02	
   7.5900000e+01	   4.7835867e-02	  -3.5722672e-02	
   7.5955000e+01	   5.6362986e-02	  -3.1753679e-02	
   7.6010000e+01	   6.4696124e-02	  -2.8088893e-02	
   7.6065000e+01	   7.2714064e-02	  -2.4690323e-02	
   7.6120000e+01	   8.0294473e-02	  -2.1521212e-02	
   7.6175000e+01	   8.7315967e-02	  -1.8551535e-02	
   7.6230000e+01	   9.3660722e-02	  -1.5762270e-02	
   7.6285000e+01	   9.9216269e-02	  -1.3147291e-02	
   7.6340000e+01	   1.0387742e-01	  -1.0711937e-02	
   7.6395000e+01	   1.0755010e-01	  -8.4686335e-03	
   7.6450000e+01	   1.1015731e-01	  -6.4310997e-03	
   7.6505000e+01	   1.1164580e-01	  -4.6083262e-03	
   7.6560000e+01	   1.1199213e-01	  -2.9988643e-03	
   7.6615000e+01	   1.1120704e-01	  -1.5864530e-03	
   7.6670000e+01	   1.0933793e-01	  -3.3867655e-04	
   7.6725000e+01	   1.0646861e-01	   7.9046522e-04	
   7.6780000e+01	   1.0271597e-01	   1.8548165e-03	
   7.6835000e+01	   9.8223151e-02	   2.9085723e-03	
   7.6890000e+01	   9.3149814e-02	   3.9983340e-03	
   7.6945000e+01	   8.7661257e-02	   5.1560151e-03	
   7.7000000e+01	   8.1918108e-02	   6.3937967e-03	
   7.7055000e+01	   7.6067747e-02	   7.7020704e-03	
   7.7110000e+01	   7.0238157e-02	   9.0512054e-03	
   7.7165000e+01	   6.4534936e-02	   1.0397505e-02	
   7.7220000e+01	   5.9041921e-02	   1.1692484e-02	
   7.7275000e+01	   5.3825001e-02	   1.2893327e-02	
   7.7330000e+01	   4.8937552e-02	   1.3971987e-02	
   7.7385000e+01	   4.4425521e-02	   1.4920960e-02	
   7.7440000e+01	   4.0330945e-02	   1.5754933e-02	
   7.7495000e+01	   3.6693972e-02	   1.6508443e-02	
   7.7550000e+01	   3.3553787e-02	   1.7230206e-02	
   7.7605000e+01	   3.0948345e-02	   1.7975326e-02	
   7.7660000e+01	   2.8912764e-02	   1.8797056e-02	
   7.7715000e+01	   2.7476439e-02	   1.9739237e-02	
   7.7770000e+01	   2.6658997e-02	   2.0829483e-02	
   7.7825000e+01	   2.6466000e-02	   2.2073346e-02	
   7.7880000e+01	   2.6886059e-02	   2.3450650e-02	
   7.7935000e+01	   2.7890199e-02	   2.4915312e-02	
   7.7990000e+01	   2.9432711e-02	   2.6399325e-02	
   7.8045000e+01	   3.1452387e-02	   2.7820920e-02	
   7.8100000e+01	   3.3874041e-02	   2.9095965e-02	
   7.8155000e+01	   3.6610671e-02	   3.0150422e-02	
   7.8210000e+01	   3.9566016e-02	   3.0930959e-02	
   7.8265000e+01	   4.2637112e-02	   3.1411625e-02	
   7.8320000e+01	   4.5717362e-02	   3.1596188e-02	
   7.8375000e+01	   4.8700803e-02	   3.1516760e-02	
   7.8430000e+01	   5.1487114e-02	   3.1229368e-02	
   7.8485000e+01	   5.3985887e-02	   3.0806834e-02	
   7.8540000e+01	   5.6118945e-02	   3.0329671e-02	
   7.8595000e+01	   5.7820734e-02	   2.9875985e-02	
   7.8650000e+01	   5.9037594e-02	   2.9511125e-02	
   7.8705000e+01	   5.9726482e-02	   2.9277976e-02	
   7.8760000e+01	   5.9853641e-02	   2.9189845e-02	
   7.8815000e+01	   5.9394153e-02	   2.9228235e-02	
   7.8870000e+01	   5.8333015e-02	   2.9346176e-02	
   7.8925000e+01	   5.6667651e-02	   2.9476080e-02	
   7.8980000e+01	   5.4411120e-02	   2.9540456e-02	
   7.9035000e+01	   5.1594772e-02	   2.9463665e-02	
   7.9090000e+01	   4.8268791e-02	   2.9182552e-02	
   7.9145000e+01	   4.4499747e-02	   2.8653945e-02	
   7.9200000e+01	   4.0365738e-02	   2.7858127e-02	
   7.9255000e+01	   3.5950786e-02	   2.6798727e-02	
   7.9310000e+01	   3.1339723e-02	   2.5500195e-02	
   7.9365000e+01	   2.6613711e-02	   2.4004023e-02	
   7.9420000e+01	   2.1846133e-02	   2.2364211e-02	
   7.9475000e+01	   1.7099139e-02	   2.0641892e-02	
   7.9530000e+01	   1.2421400e-02	   1.8899140e-02	
   7.9585000e+01	   7.8472503e-03	   1.7192971e-02	
   7.9640000e+01	   3.3972972e-03	   1.5571298e-02	
   7.9695000e+01	  -9.1891224e-04	   1.4072334e-02	
   7.9750000e+01	  -5.0976220e-03	   1.2727376e-02	
   7.9805000e+01	  -9.1335476e-03	   1.1565241e-02	
   7.9860000e+01	  -1.3012334e-02	   1.0616270e-02	
   7.9915000e+01	  -1.6705196e-02	   9.9147795e-03	
   7.9970000e+01	  -2.0167852e-02	   9.4998192e-03	
   8.0025000e+01	  -2.3344455e-02	   9.4143760e-03	
   8.0080000e+01	  -2.6175049e-02	   9.7031347e-03	
   8.0135000e+01	  -2.8603827e-02	   1.0409011e-02	
   8.0190000e+01	  -3.0586586e-02	   1.1568340e-02	
   8.0245000e+01	  -3.2097525e-02	   1.3204425e-02	
   8.0300000e+01	  -3.3135595e-02	   1.5320264e-02	
   8.0355000e+01	  -3.3729180e-02	   1.7892533e-02	
   8.0410000e+01	  -3.3937514e-02	   2.0869065e-02	
   8.0465000e+01	  -3.3848357e-02	   2.4171263e-02	
   8.0520000e+01	  -3.3572334e-02	   2.7701897e-02	
   8.0575000e+01	  -3.3234449e-02	   3.1357098e-02	
   8.0630000e+01	  -3.2963801e-02	   3.5039413e-02	
   8.0685000e+01	  -3.2883392e-02	   3.8668581e-02	
   8.0740000e+01	  -3.3101556e-02	   4.2188604e-02	
   8.0795000e+01	  -3.3705566e-02	   4.5571504e-02	
   8.0850000e+01	  -3.4757570e-02	   4.8818333e-02	
   8.0905000e+01	  -3.6293057e-02	   5.1957416e-02	
   8.0960000e+01	  -3.8321425e-02	   5.5039555e-02	
   8.1015000e+01	  -4.0827488e-02	   5.8130291e-02	
   8.1070000e+01	  -4.3773274e-02	   6.1299963e-02	
   8.1125000e+01	  -4.7100480e-02	   6.4613195e-02	
   8.1180000e+01	  -5.0734067e-02	   6.8119836e-02	
   8.1235000e+01	  -5.4586440e-02	   7.1849238e-02	
   8.1290000e+01	  -5.8560866e-02	   7.5809153e-02	
   8.1345000e+01	  -6.2553539e-02	   7.9989068e-02	
   8.1400000e+01	  -6.6455077e-02	   8.4366071e-02	
   8.1455000e+01	  -7.0152214e-02	   8.8911234e-02	
   8.1510000e+01	  -7.3529789e-02	   9.3595530e-02	
   8.1565000e+01	  -7.6473703e-02	   9.8394728e-02	
   8.1620000e+01	  -7.8876521e-02	   1.0329234e-01	
   8.1675000e+01	  -8.0645830e-02	   1.0827998e-01	
   8.1730000e+01	  -8.1713002e-02	   1.1335530e-01	
   8.1785000e+01	  -8.2039709e-02	   1.1851792e-01	
   8.1840000e+01	  -8.1620959e-02	   1.2376418e-01	
   8.1895000e+01	  -8.0484168e-02	   1.2908222e-01	
   8.1950000e+01	  -7.8684723e-02	   1.3444839e-01	
   8.2005000e+01	  -7.6300305e-02	   1.3982464e-01	
   8.2060000e+01	  -7.3426292e-02	   1.4515636e-01	
   8.2115000e+01	  -7.0171915e-02	   1.5037169e-01	
   8.2170000e+01	  -6.6655084e-02	   1.5538436e-01	
   8.2225000e+01	  -6.2995185e-02	   1.6010078e-01	
   8.2280000e+01	  -5.9305078e-02	   1.6442957e-01	
   8.2335000e+01	  -5.5683753e-02	   1.6829112e-01	
   8.2390000e+01	  -5.2210398e-02	   1.7162552e-01	
   8.2445000e+01	  -4.8940637e-02	   1.7439760e-01	
   8.2500000e+01	  -4.5906042e-02	   1.7659842e-01	
   8.2555000e+01	  -4.3117479e-02	   1.7824338e-01	
   8.2610000e+01	  -4.0571455e-02	   1.7936833e-01	
   8.2665000e+01	  -3.8257888e-02	   1.8002449e-01	
   8.2720000e+01	  -3.6168042e-02	   1.8027246e-01	
   8.2775000e+01	  -3.4301497e-02	   1.8017583e-01	
   8.2830000e+01	  -3.2671013e-02	   1.7979551e-01	
   8.2885000e+01	  -3.1305211e-02	   1.7918539e-01	
   8.2940000e+01	  -3.0249761e-02	   1.7838954e-01	
   8.2995000e+01	  -2.9566970e-02	   1.7744152e-01	
   8.3050000e+01	  -2.9332594e-02	   1.7636611e-01	
   8.3105000e+01	  -2.9629168e-02	   1.7518281e-01	
   8.3160000e+01	  -3.0536772e-02	   1.7390988e-01	
   8.3215000e+01	  -3.2123159e-02	   1.7256780e-01	
   8.3270000e+01	  -3.4434964e-02	   1.7118184e-01	
   8.3325000e+01	  -3.7491192e-02	   1.6978275e-01	
   8.3380000e+01	  -4.1280057e-02	   1.6840533e-01	
   8.3435000e+01	  -4.5759366e-02	   1.6708491e-01	
   8.3490000e+01	  -5.0859191e-02	   1.6585284e-01	
   8.3545000e+01	  -5.6485325e-02	   1.6473197e-01	
   8.3600000e+01	  -6.2523085e-02	   1.6373227e-01	
   8.3655000e+01	  -6.8841465e-02	   1.6284714e-01	
   8.3710000e+01	  -7.5296759e-02	   1.6205217e-01	
   8.3765000e+01	  -8.1734327e-02	   1.6130770e-01	
   8.3820000e+01	  -8.7988645e-02	   1.6056495e-01	
   8.3875000e+01	  -9.3883739e-02	   1.5977439e-01	
   8.3930000e+01	  -9.9236289e-02	   1.5889431e-01	
   8.3985000e+01	  -1.0386217e-01	   1.5789797e-01	
   8.4040000e+01	  -1.0758537e-01	   1.5677776e-01	
   8.4095000e+01	  -1.1024710e-01	   1.5554621e-01	
   8.4150000e+01	  -1.1171315e-01	   1.5423459e-01	
   8.4205000e+01	  -1.1187943e-01	   1.5288963e-01	
   8.4260000e+01	  -1.1067749e-01	   1.5156706e-01	
   8.4315000e+01	  -1.0808061e-01	   1.5032193e-01	
   8.4370000e+01	  -1.0410943e-01	   1.4919678e-01	
   8.4425000e+01	  -9.8834790e-02	   1.4821017e-01	
   8.4480000e+01	  -9.2376846e-02	   1.4734801e-01	
   8.4535000e+01	  -8.4900167e-02	   1.4655978e-01	
   8.4590000e+01	  -7.6604573e-02	   1.4576135e-01	
   8.4645000e+01	  -6.7712402e-02	   1.4484483e-01	
   8.4700000e+01	  -5.8454273e-02	   1.4369354e-01	
   8.4755000e+01	  -4.9055678e-02	   1.4219884e-01	
   8.4810000e+01	  -3.9725827e-02	   1.4027501e-01	
   8.4865000e+01	  -3.0649661e-02	   1.3786981e-01	
   8.4920000e+01	  -2.1983740e-02	   1.3496994e-01	
   8.4975000e+01	  -1.3855826e-02	   1.3160169e-01	
   8.5030000e+01	  -6.3670372e-03	   1.2782748e-01	
   8.5085000e+01	   4.0453900e-04	   1.2373877e-01	
   8.5140000e+01	   6.3995026e-03	   1.1944577e-01	
   8.5195000e+01	   1.1572615e-02	   1.1506522e-01	
   8.5250000e+01	   1.5888706e-02	   1.1070764e-01	
   8.5305000e+01	   1.9319656e-02	   1.0646606e-01	
   8.5360000e+01	   2.1842627e-02	   1.0240676e-01	
   8.5415000e+01	   2.3439103e-02	   9.8562767e-02	
   8.5470000e+01	   2.4094576e-02	   9.4930506e-02	
   8.5525000e+01	   2.3799335e-02	   9.1471020e-02	
   8.5580000e+01	   2.2550621e-02	   8.8115878e-02	
   8.5635000e+01	   2.0355797e-02	   8.4776760e-02	
   8.5690000e+01	   1.7236053e-02	   8.1357225e-02	
   8.5745000e+01	   1.3229921e-02	   7.7765055e-02	
   8.5800000e+01	   8.3953898e-03	   7.3923398e-02	
   8.5855000e+01	   2.8098119e-03	   6.9779158e-02	
   8.5910000e+01	  -3.4318281e-03	   6.5307883e-02	
   8.5965000e+01	  -1.0219200e-02	   6.0514866e-02	
   8.6020000e+01	  -1.7429271e-02	   5.5432330e-02	
   8.6075000e+01	  -2.4930058e-02	   5.0113031e-02	
   8.6130000e+01	  -3.2586095e-02	   4.4621633e-02	
   8.6185000e+01	  -4.0265286e-02	   3.9025543e-02	
   8.6240000e+01	  -4.7846313e-02	   3.3386161e-02	
   8.6295000e+01	  -5.5225988e-02	   2.7751027e-02	
   8.6350000e+01	  -6.2325988e-02	   2.2147779e-02	
   8.6405000e+01	  -6.9097928e-02	   1.6581609e-02	
   8.6460000e+01	  -7.5525325e-02	   1.1037566e-02	
   8.6515000e+01	  -8.1621286e-02	   5.4872242e-03	
   8.6570000e+01	  -8.7421591e-02	  -1.0218483e-04	
   8.6625000e+01	  -9.2974226e-02	  -5.7582707e-03	
   8.6680000e+01	  -9.8327982e-02	  -1.1495479e-02	
   8.6735000e+01	  -1.0352330e-01	  -1.7310198e-02	
   8.6790000e+01	  -1.0858705e-01	  -2.3179526e-02	
   8.6845000e+01	  -1.1353055e-01	  -2.9063175e-02	
   8.6900000e+01	  -1.1834938e-01	  -3.4907947e-02	
   8.6955000e+01	  -1.2302459e-01	  -4.0654670e-02	
   8.7010000e+01	  -1.2752573e-01	  -4.6246897e-02	
   8.7065000e+01	  -1.3181589e-01	  -5.1639806e-02	
   8.7120000e+01	  -1.3585795e-01	  -5.6807525e-02	
   8.7175000e+01	  -1.3962100e-01	  -6.1747495e-02	
   8.7230000e+01	  -1.4308463e-01	  -6.6480500e-02	
   8.7285000e+01	  -1.4623901e-01	  -7.1045596e-02	
   8.7340000e+01	  -1.4908086e-01	  -7.5490962e-02	
   8.7395000e+01	  -1.5160862e-01	  -7.9863504e-02	
   8.7450000e+01	  -1.5382001e-01	  -8.4199822e-02	
   8.7505000e+01	  -1.5571308e-01	  -8.8519742e-02	
   8.7560000e+01	  -1.5728966e-01	  -9.2822931e-02	
   8.7615000e+01	  -1.5856011e-01	  -9.7088961e-02	
   8.7670000e+01	  -1.5954770e-01	  -1.0128054e-01	
   8.7725000e+01	  -1.6029107e-01	  -1.0534906e-01	
   8.7780000e+01	  -1.6084389e-01	  -1.0924185e-01	
   8.7835000e+01	  -1.6127265e-01	  -1.1291074e-01	
   8.7890000e+01	  -1.6165327e-01	  -1.1632075e-01	
   8.7945000e+01	  -1.6206770e-01	  -1.1945784e-01	
   8.8000000e+01	  -1.6260175e-01	  -1.2233519e-01	
   8.8055000e+01	  -1.6334435e-01	  -1.2499780e-01	
   8.8110000e+01	  -1.6438651e-01	  -1.2752381e-01	
   8.8165000e+01	  -1.6581783e-01	  -1.3002037e-01	
   8.8220000e+01	  -1.6772048e-01	  -1.3261360e-01	
   8.8275000e+01	  -1.7016289e-01	  -1.3543512e-01	
   8.8330000e+01	  -1.7319500e-01	  -1.3860800e-01	
   8.8385000e+01	  -1.7684564e-01	  -1.4223383e-01	
   8.8440000e+01	  -1.8112133e-01	  -1.4638207e-01	
   8.8495000e+01	  -1.8600598e-01	  -1.5108307e-01	
   8.8550000e+01	  -1.9146081e-01	  -1.5632537e-01	
   8.8605000e+01	  -1.9742415e-01	  -1.6205789e-01	
   8.8660000e+01	  -2.0381132e-01	  -1.6819669e-01	
   8.8715000e+01	  -2.1051598e-01	  -1.7463527e-01	
   8.8770000e+01	  -2.1741297e-01	  -1.8125641e-01	
   8.8825000e+01	  -2.2436278e-01	  -1.8794350e-01	
   8.8880000e+01	  -2.3121742e-01	  -1.9459067e-01	
   8.8935000e+01	  -2.3782820e-01	  -2.0111179e-01	
   8.8990000e+01	  -2.4405457e-01	  -2.0744838e-01	
   8.9045000e+01	  -2.4977208e-01	  -2.1357427e-01	
   8.9100000e+01	  -2.5487700e-01	  -2.1949534e-01	
   8.9155000e+01	  -2.5928752e-01	  -2.2524372e-01	
   8.9210000e+01	  -2.6294290e-01	  -2.3086841e-01	
   8.9265000e+01	  -2.6580304e-01	  -2.3642526e-01	
   8.9320000e+01	  -2.6784876e-01	  -2.4196802e-01	
   8.9375000e+01	  -2.6908189e-01	  -2.4754168e-01	
   8.9430000e+01	  -2.6952328e-01	  -2.5317813e-01	
   8.9485000e+01	  -2.6920828e-01	  -2.5889353e-01	
   8.9540000e+01	  -2.6818116e-01	  -2.6468688e-01	
   8.9595000e+01	  -2.6649119e-01	  -2.7054085e-01	
   8.9650000e+01	  -2.6419187e-01	  -2.7642570e-01	
   8.9705000e+01	  -2.6134237e-01	  -2.8230576e-01	
   8.9760000e+01	  -2.5800941e-01	  -2.8814728e-01	
   8.9815000e+01	  -2.5426819e-01	  -2.9392626e-01	
   8.9870000e+01	  -2.5020304e-01	  -2.9963484e-01	
   8.9925000e+01	  -2.4590879e-01	  -3.0528486e-01	
   8.9980000e+01	  -2.4149282e-01	  -3.1090729e-01	
   9.0035000e+01	  -2.3707627e-01	  -3.1654765e-01	
   9.0090000e+01	  -2.3279318e-01	  -3.2225892e-01	
   9.0145000e+01	  -2.2878759e-01	  -3.2809426e-01	
   9.0200000e+01	  -2.2520936e-01	  -3.3410129e-01	
   9.0255000e+01	  -2.2220938e-01	  -3.4031850e-01	
   9.0310000e+01	  -2.1993383e-01	  -3.4677357e-01	
   9.0365000e+01	  -2.1851793e-01	  -3.5348317e-01	
   9.0420000e+01	  -2.1807966e-01	  -3.6045417e-01	
   9.0475000e+01	  -2.1871457e-01	  -3.6768622e-01	
   9.0530000e+01	  -2.2049205e-01	  -3.7517553e-01	
   9.0585000e+01	  -2.2345243e-01	  -3.8291938e-01	
   9.0640000e+01	  -2.2760336e-01	  -3.9091949e-01	
   9.0695000e+01	  -2.3291592e-01	  -3.9918315e-01	
   9.0750000e+01	  -2.3932206e-01	  -4.0772235e-01	
   9.0805000e+01	  -2.4671515e-01	  -4.1655101e-01	
   9.0860000e+01	  -2.5495287e-01	  -4.2567955e-01	
   9.0915000e+01	  -2.6386197e-01	  -4.3510667e-01	
   9.0970000e+01	  -2.7324430e-01	  -4.4481045e-01	
   9.1025000e+01	  -2.8288320e-01	  -4.5474091e-01	
   9.1080000e+01	  -2.9254952e-01	  -4.6481527e-01	
   9.1135000e+01	  -3.0200753e-01	  -4.7491693e-01	
   9.1190000e+01	  -3.1102197e-01	  -4.8489871e-01	
   9.1245000e+01	  -3.1936667e-01	  -4.9458989e-01	
   9.1300000e+01	  -3.2683448e-01	  -5.0380662e-01	
   9.1355000e+01	  -3.3324708e-01	  -5.1236452e-01	
   9.1410000e+01	  -3.3846304e-01	  -5.2009232e-01	
   9.1465000e+01	  -3.4238275e-01	  -5.2684461e-01	
   9.1520000e+01	  -3.4495030e-01	  -5.3251223e-01	
   9.1575000e+01	  -3.4615345e-01	  -5.3702968e-01	
   9.1630000e+01	  -3.4602294e-01	  -5.4037942e-01	
   9.1685000e+01	  -3.4463081e-01	  -5.4259221e-01	
   9.1740000e+01	  -3.4208671e-01	  -5.4374192e-01	
   9.1795000e+01	  -3.3853203e-01	  -5.4393533e-01	
   9.1850000e+01	  -3.3413351e-01	  -5.4329927e-01	
   9.1905000e+01	  -3.2907720e-01	  -5.4196798e-01	
   9.1960000e+01	  -3.2356173e-01	  -5.4007221e-01	
   9.2015000e+01	  -3.1779115e-01	  -5.3773116e-01	
   9.2070000e+01	  -3.1196874e-01	  -5.3504776e-01	
   9.2125000e+01	  -3.0629336e-01	  -5.3210746e-01	
   9.2180000e+01	  -3.0095737e-01	  -5.2897957e-01	
   9.2235000e+01	  -2.9614497e-01	  -5.2572033e-01	
   9.2290000e+01	  -2.9203019e-01	  -5.2237788e-01	
   9.2345000e+01	  -2.8877409e-01	  -5.1899855e-01	
   9.2400000e+01	  -2.8651990e-01	  -5.1563318e-01	
   9.2455000e+01	  -2.8538642e-01	  -5.1234158e-01	
   9.2510000e+01	  -2.8546178e-01	  -5.0919399e-01	
   9.2565000e+01	  -2.8679973e-01	  -5.0626850e-01	
   9.2620000e+01	  -2.8941792e-01	  -5.0364419e-01	
   9.2675000e+01	  -2.9329747e-01	  -5.0139103e-01	
   9.2730000e+01	  -2.9838375e-01	  -4.9955940e-01	
   9.2785000e+01	  -3.0458925e-01	  -4.9817189e-01	
   9.2840000e+01	  -3.1179790e-01	  -4.9721844e-01	
   9.2895000e+01	  -3.1986957e-01	  -4.9665484e-01	
   9.2950000e+01	  -3.2864369e-01	  -4.9640482e-01	
   9.3005000e+01	  -3.3794188e-01	  -4.9636574e-01	
   9.3060000e+01	  -3.4756996e-01	  -4.9641704e-01	
   9.3115000e+01	  -3.5732034e-01	  -4.9643010e-01	
   9.3170000e+01	  -3.6697626e-01	  -4.9627866e-01	
   9.3225000e+01	  -3.7631886e-01	  -4.9584892e-01	
   9.3280000e+01	  -3.8513591e-01	  -4.9504819e-01	
   9.3335000e+01	  -3.9323006e-01	  -4.9381156e-01	
   9.3390000e+01	  -4.0042565e-01	  -4.9210615e-01	
   9.3445000e+01	  -4.0657385e-01	  -4.8993265e-01	
   9.3500000e+01	  -4.1155680e-01	  -4.8732350e-01	
   9.3555000e+01	  -4.1529079e-01	  -4.8433679e-01	
   9.3610000e+01	  -4.1772820e-01	  -4.8104725e-01	
   9.3665000e+01	  -4.1885748e-01	  -4.7753550e-01	
   9.3720000e+01	  -4.1870046e-01	  -4.7387756e-01	
   9.3775000e+01	  -4.1730714e-01	  -4.7013607e-01	
   9.3830000e+01	  -4.1474987e-01	  -4.6635506e-01	
   9.3885000e+01	  -4.1111839e-01	  -4.6255900e-01	
   9.3940000e+01	  -4.0651634e-01	  -4.5875540e-01	
   9.3995000e+01	  -4.0105919e-01	  -4.5493978e-01	
   9.4050000e+01	  -3.9487344e-01	  -4.5110177e-01	
   9.4105000e+01	  -3.8809648e-01	  -4.4723147e-01	
   9.4160000e+01	  -3.8087609e-01	  -4.4332514e-01	
   9.4215000e+01	  -3.7336875e-01	  -4.3938941e-01	
   9.4270000e+01	  -3.6573711e-01	  -4.3544353e-01	
   9.4325000e+01	  -3.5814707e-01	  -4.3151910e-01	
   9.4380000e+01	  -3.5076394e-01	  -4.2765619e-01	
   9.4435000e+01	  -3.4374684e-01	  -4.2389626e-01	
   9.4490000e+01	  -3.3724174e-01	  -4.2027419e-01	
   9.4545000e+01	  -3.3137465e-01	  -4.1681186e-01	
   9.4600000e+01	  -3.2624622e-01	  -4.1351459e-01	
   9.4655000e+01	  -3.2192852e-01	  -4.1037008e-01	
   9.4710000e+01	  -3.1846461e-01	  -4.0734991e-01	
   9.4765000e+01	  -3.1587009e-01	  -4.0441326e-01	
   9.4820000e+01	  -3.1413517e-01	  -4.0151184e-01	
   9.4875000e+01	  -3.1322614e-01	  -3.9859520e-01	
   9.4930000e+01	  -3.1308729e-01	  -3.9561661e-01	
   9.4985000e+01	  -3.1364393e-01	  -3.9253893e-01	
   9.5040000e+01	  -3.1480654e-01	  -3.8933938e-01	
   9.5095000e+01	  -3.1647523e-01	  -3.8601155e-01	
   9.5150000e+01	  -3.1854368e-01	  -3.8256391e-01	
   9.5205000e+01	  -3.2090221e-01	  -3.7901480e-01	
   9.5260000e+01	  -3.2344010e-01	  -3.7538506e-01	
   9.5315000e+01	  -3.2604851e-01	  -3.7169025e-01	
   9.5370000e+01	  -3.2862432e-01	  -3.6793434e-01	
   9.5425000e+01	  -3.3107430e-01	  -3.6410618e-01	
   9.5480000e+01	  -3.3331890e-01	  -3.6017865e-01	
   9.5535000e+01	  -3.3529523e-01	  -3.5611039e-01	
   9.5590000e+01	  -3.3695866e-01	  -3.5184979e-01	
   9.5645000e+01	  -3.3828319e-01	  -3.4734077e-01	
   9.5700000e+01	  -3.3926044e-01	  -3.4252935e-01	
   9.5755000e+01	  -3.3989758e-01	  -3.3736961e-01	
   9.5810000e+01	  -3.4021473e-01	  -3.3182850e-01	
   9.5865000e+01	  -3.4024334e-01	  -3.2588978e-01	
   9.5920000e+01	  -3.4002591e-01	  -3.1955717e-01	
   9.5975000e+01	  -3.3961528e-01	  -3.1285533e-01	
   9.6030000e+01	  -3.3907206e-01	  -3.0582781e-01	
   9.6085000e+01	  -3.3846036e-01	  -2.9853174e-01	
   9.6140000e+01	  -3.3784285e-01	  -2.9103033e-01	
   9.6195000e+01	  -3.3727675e-01	  -2.8338491e-01	
   9.6250000e+01	  -3.3681166e-01	  -2.7564896e-01	
   9.6305000e+01	  -3.3648979e-01	  -2.6786548e-01	
   9.6360000e+01	  -3.3634698e-01	  -2.6006683e-01	
   9.6415000e+01	  -3.3641266e-01	  -2.5227575e-01	
   9.6470000e+01	  -3.3670826e-01	  -2.4450764e-01	
   9.6525000e+01	  -3.3724515e-01	  -2.3677484e-01	
   9.6580000e+01	  -3.3802254e-01	  -2.2909253e-01	
   9.6635000e+01	  -3.3902478e-01	  -2.2148501e-01	
   9.6690000e+01	  -3.4021873e-01	  -2.1399117e-01	
   9.6745000e+01	  -3.4155249e-01	  -2.0666832e-01	
   9.6800000e+01	  -3.4295615e-01	  -1.9959327e-01	
   9.6855000e+01	  -3.4434408e-01	  -1.9286009e-01	
   9.6910000e+01	  -3.4561804e-01	  -1.8657425e-01	
   9.6965000e+01	  -3.4667122e-01	  -1.8084363e-01	
   9.7020000e+01	  -3.4739315e-01	  -1.7576772e-01	
   9.7075000e+01	  -3.4767549e-01	  -1.7142698e-01	
   9.7130000e+01	  -3.4741827e-01	  -1.6787455e-01	
   9.7185000e+01	  -3.4653628e-01	  -1.6513166e-01	
   9.7240000e+01	  -3.4496494e-01	  -1.6318674e-01	
   9.7295000e+01	  -3.4266581e-01	  -1.6199732e-01	
   9.7350000e+01	  -3.3963177e-01	  -1.6149461e-01	
   9.7405000e+01	  -3.3589239e-01	  -1.6159059e-01	
   9.7460000e+01	  -3.3151843e-01	  -1.6218630e-01	
   9.7515000e+01	  -3.2662321e-01	  -1.6317988e-01	
   9.7570000e+01	  -3.2135905e-01	  -1.6447324e-01	
   9.7625000e+01	  -3.1590867e-01	  -1.6597699e-01	
   9.7680000e+01	  -3.1047308e-01	  -1.6761267e-01	
   9.7735000e+01	  -3.0525813e-01	  -1.6931193e-01	
   9.7790000e+01	  -3.0046225e-01	  -1.7101337e-01	
   9.7845000e+01	  -2.9626715e-01	  -1.7265861e-01	
   9.7900000e+01	  -2.9283173e-01	  -1.7418895e-01	
   9.7955000e+01	  -2.9028789e-01	  -1.7554359e-01	
   9.8010000e+01	  -2.8873698e-01	  -1.7665938e-01	
   9.8065000e+01	  -2.8824745e-01	  -1.7747233e-01	
   9.8120000e+01	  -2.8885447e-01	  -1.7792039e-01	
   9.8175000e+01	  -2.9056133e-01	  -1.7794727e-01	
   9.8230000e+01	  -2.9334223e-01	  -1.7750713e-01	
   9.8285000e+01	  -2.9714703e-01	  -1.7656991e-01	
   9.8340000e+01	  -3.0190789e-01	  -1.7512642e-01	
   9.8395000e+01	  -3.0754568e-01	  -1.7319115e-01	
   9.8450000e+01	  -3.1397418e-01	  -1.7080218e-01	
   9.8505000e+01	  -3.2110141e-01	  -1.6801806e-01	
   9.8560000e+01	  -3.2882848e-01	  -1.6491181e-01	
   9.8615000e+01	  -3.3704627e-01	  -1.6156251e-01	
   9.8670000e+01	  -3.4563184e-01	  -1.5804577e-01	
   9.8725000e+01	  -3.5444628e-01	  -1.5442540e-01	
   9.8780000e+01	  -3.6333518e-01	  -1.5074754e-01	
   9.8835000e+01	  -3.7213101e-01	  -1.4703702e-01	
   9.8890000e+01	  -3.8065774e-01	  -1.4329609e-01	
   9.8945000e+01	  -3.8873780e-01	  -1.3950608e-01	
   9.9000000e+01	  -3.9620043e-01	  -1.3563163e-01	
   9.9055000e+01	  -4.0288899e-01	  -1.3162667e-01	
   9.9110000e+01	  -4.0866641e-01	  -1.2744166e-01	
   9.9165000e+01	  -4.1341968e-01	  -1.2303234e-01	
   9.9220000e+01	  -4.1706427e-01	  -1.1836938e-01	
   9.9275000e+01	  -4.1954770e-01	  -1.1344698e-01	
   9.9330000e+01	  -4.2085092e-01	  -1.0828823e-01	
   9.9385000e+01	  -4.2098687e-01	  -1.0294543e-01	
   9.9440000e+01	  -4.1999654e-01	  -9.7495388e-02	
   9.9495000e+01	  -4.1794371e-01	  -9.2031251e-02	
   9.9550000e+01	  -4.1490941e-01	  -8.6652895e-02	
   9.9605000e+01	  -4.1098711e-01	  -8.1457690e-02	
   9.9660000e+01	  -4.0627921e-01	  -7.6532708e-02	
   9.9715000e+01	  -4.0089444e-01	  -7.1948905e-02	
   9.9770000e+01	  -3.9494605e-01	  -6.7757772e-02	
   9.9825000e+01	  -3.8855061e-01	  -6.3990676e-02	
   9.9880000e+01	  -3.8182668e-01	  -6.0660563e-02	
   9.9935000e+01	  -3.7489221e-01	  -5.7765376e-02	
   9.9990000e+01	  -3.6786046e-01	  -5.5292840e-02	
   1.0004500e+02	  -3.6083581e-01	  -5.3226411e-02	
   1.0010000e+02	  -3.5391116e-01	  -5.1551353e-02	
   1.0015500e+02	  -3.4716634e-01	  -5.0259040e-02	
   1.0021000e+02	  -3.4066666e-01	  -4.9347758e-02	
   1.0026500e+02	  -3.3446161e-01	  -4.8819584e-02	
   1.0032000e+02	  -3.2858512e-01	  -4.8674452e-02	
   1.0037500e+02	  -3.2305812e-01	  -4.8903617e-02	
   1.0043000e+02	  -3.1789328e-01	  -4.9484638e-02	
   1.0048500e+02	  -3.1310065e-01	  -5.0378774e-02	
   1.0054000e+02	  -3.0869281e-01	  -5.1530473e-02	
   1.0059500e+02	  -3.0468905e-01	  -5.2868570e-02	
   1.0065000e+02	  -3.0111883e-01	  -5.4309481e-02	
   1.0070500e+02	  -2.9802471e-01	  -5.5762942e-02	
   1.0076000e+02	  -2.9546446e-01	  -5.7139881e-02	
   1.0081500e+02	  -2.9351170e-01	  -5.8361166e-02	
   1.0087000e+02	  -2.9225350e-01	  -5.9365961e-02	
   1.0092500e+02	  -2.9178484e-01	  -6.0118767e-02	
   1.0098000e+02	  -2.9220039e-01	  -6.0613589e-02	
   1.0103500e+02	  -2.9358449e-01	  -6.0873163e-02	
   1.0109000e+02	  -2.9600088e-01	  -6.0942721e-02	
   1.0114500e+02	  -2.9948456e-01	  -6.0880360e-02	
   1.0120000e+02	  -3.0403789e-01	  -6.0747316e-02	
   1.0125500e+02	  -3.0963179e-01	  -6.0600326e-02	
   1.0131000e+02	  -3.1621064e-01	  -6.0486648e-02	
   1.0136500e+02	  -3.2369854e-01	  -6.0441519e-02	
   1.0142000e+02	  -3.3200456e-01	  -6.0487495e-02	
   1.0147500e+02	  -3.4102525e-01	  -6.0635173e-02	
   1.0153000e+02	  -3.5064477e-01	  -6.0885545e-02	
   1.0158500e+02	  -3.6073516e-01	  -6.1234708e-02	
   1.0164000e+02	  -3.7115854e-01	  -6.1680566e-02	
   1.0169500e+02	  -3.8177089e-01	  -6.2229690e-02	
   1.0175000e+02	  -3.9242660e-01	  -6.2902480e-02	
   1.0180500e+02	  -4.0298305e-01	  -6.3735555e-02	
   1.0186000e+02	  -4.1330506e-01	  -6.4780429e-02	
   1.0191500e+02	  -4.2326821e-01	  -6.6098090e-02	
   1.0197000e+02	  -4.3276070e-01	  -6.7750737e-02	
   1.0202500e+02	  -4.4168436e-01	  -6.9792969e-02	
   1.0208000e+02	  -4.4995510e-01	  -7.2263914e-02	
   1.0213500e+02	  -4.5750223e-01	  -7.5180770e-02	
   1.0219000e+02	  -4.6426622e-01	  -7.8534316e-02	
   1.0224500e+02	  -4.7019486e-01	  -8.2287024e-02	
   1.0230000e+02	  -4.7523842e-01	  -8.6373850e-02	
   1.0235500e+02	  -4.7934430e-01	  -9.0705374e-02	
   1.0241000e+02	  -4.8245308e-01	  -9.5173236e-02	
   1.0246500e+02	  -4.8449764e-01	  -9.9658122e-02	
   1.0252000e+02	  -4.8540599e-01	  -1.0403988e-01	
   1.0257500e+02	  -4.8510653e-01	  -1.0820820e-01	
   1.0263000e+02	  -4.8353417e-01	  -1.1207174e-01	
   1.0268500e+02	  -4.8063646e-01	  -1.1556432e-01	
   1.0274000e+02	  -4.7637857e-01	  -1.1864657e-01	
   1.0279500e+02	  -4.7074543e-01	  -1.2130253e-01	
   1.0285000e+02	  -4.6374054e-01	  -1.2353216e-01	
   1.0290500e+02	  -4.5538314e-01	  -1.2534293e-01	
   1.0296000e+02	  -4.4570649e-01	  -1.2674281e-01	
   1.0301500e+02	  -4.3475866e-01	  -1.2773559e-01	
   1.0307000e+02	  -4.2260517e-01	  -1.2831831e-01	
   1.0312500e+02	  -4.0933183e-01	  -1.2848100e-01	
   1.0318000e+02	  -3.9504653e-01	  -1.2820890e-01	
   1.0323500e+02	  -3.7988026e-01	  -1.2748685e-01	
   1.0329000e+02	  -3.6398817e-01	  -1.2630555e-01	
   1.0334500e+02	  -3.4755130e-01	  -1.2466895e-01	
   1.0340000e+02	  -3.3077790e-01	  -1.2260220e-01	
   1.0345500e+02	  -3.1390287e-01	  -1.2015822e-01	
   1.0351000e+02	  -2.9718437e-01	  -1.1742074e-01	
   1.0356500e+02	  -2.8089712e-01	  -1.1450237e-01	
   1.0362000e+02	  -2.6532247e-01	  -1.1153700e-01	
   1.0367500e+02	  -2.5073533e-01	  -1.0866776e-01	
   1.0373000e+02	  -2.3738946e-01	  -1.0603295e-01	
   1.0378500e+02	  -2.2550365e-01	  -1.0375297e-01	
   1.0384000e+02	  -2.1525190e-01	  -1.0192062e-01	
   1.0389500e+02	  -2.0675804e-01	  -1.0059540e-01	
   1.0395000e+02	  -2.0009357e-01	  -9.9801844e-02	
   1.0400500e+02	  -1.9527770e-01	  -9.9531200e-02	
   1.0406000e+02	  -1.9228023e-01	  -9.9746237e-02	
   1.0411500e+02	  -1.9102786e-01	  -1.0038795e-01	
   1.0417000e+02	  -1.9141312e-01	  -1.0138309e-01	
   1.0422500e+02	  -1.9330406e-01	  -1.0265162e-01	
   1.0428000e+02	  -1.9655252e-01	  -1.0411257e-01	
   1.0433500e+02	  -2.0099892e-01	  -1.0568638e-01	
   1.0439000e+02	  -2.0647357e-01	  -1.0729299e-01	
   1.0444500e+02	  -2.1279674e-01	  -1.0884764e-01	
   1.0450000e+02	  -2.1977962e-01	  -1.1025722e-01	
   1.0455500e+02	  -2.2722538e-01	  -1.1141892e-01	
   1.0461000e+02	  -2.3492888e-01	  -1.1222097e-01	
   1.0466500e+02	  -2.4267516e-01	  -1.1254485e-01	
   1.0472000e+02	  -2.5023829e-01	  -1.1226857e-01	
   1.0477500e+02	  -2.5738270e-01	  -1.1127116e-01	
   1.0483000e+02	  -2.6386838e-01	  -1.0943864e-01	
   1.0488500e+02	  -2.6946013e-01	  -1.0667144e-01	
   1.0494000e+02	  -2.7393866e-01	  -1.0289247e-01	
   1.0499500e+02	  -2.7711132e-01	  -9.8054036e-02	
   1.0505000e+02	  -2.7882076e-01	  -9.2141913e-02	
   1.0510500e+02	  -2.7895077e-01	  -8.5175119e-02	
   1.0516000e+02	  -2.7742913e-01	  -7.7201833e-02	
   1.0521500e+02	  -2.7422688e-01	  -6.8292812e-02	
   1.0527000e+02	  -2.6935485e-01	  -5.8534347e-02	
   1.0532500e+02	  -2.6285890e-01	  -4.8022290e-02	
   1.0538000e+02	  -2.5481647e-01	  -3.6857603e-02	
   1.0543500e+02	  -2.4533537e-01	  -2.5142835e-02	
   1.0549000e+02	  -2.3455255e-01	  -1.2979278e-02	
   1.0554500e+02	  -2.2263087e-01	  -4.6536885e-04	
   1.0560000e+02	  -2.0975406e-01	   1.2303248e-02	
   1.0565500e+02	  -1.9612161e-01	   2.5232702e-02	
   1.0571000e+02	  -1.8194435e-01	   3.8229822e-02	
   1.0576500e+02	  -1.6743996e-01	   5.1201346e-02	
   1.0582000e+02	  -1.5282663e-01	   6.4053786e-02	
   1.0587500e+02	  -1.3831305e-01	   7.6695128e-02	
   1.0593000e+02	  -1.2408470e-01	   8.9039207e-02	
   1.0598500e+02	  -1.1028963e-01	   1.0101183e-01	
   1.0604000e+02	  -9.7028092e-02	   1.1255653e-01	
   1.0609500e+02	  -8.4348912e-02	   1.2363847e-01	
   1.0615000e+02	  -7.2252505e-02	   1.3424562e-01	
   1.0620500e+02	  -6.0698837e-02	   1.4438672e-01	
   1.0626000e+02	  -4.9618758e-02	   1.5408593e-01	
   1.0631500e+02	  -3.8926767e-02	   1.6337535e-01	
   1.0637000e+02	  -2.8532959e-02	   1.7228772e-01	
   1.0642500e+02	  -1.8352059e-02	   1.8085034e-01	
   1.0648000e+02	  -8.3088972e-03	   1.8908050e-01	
   1.0653500e+02	   1.6589812e-03	   1.9698261e-01	
   1.0659000e+02	   1.1600841e-02	   2.0454834e-01	
   1.0664500e+02	   2.1554446e-02	   2.1176041e-01	
   1.0670000e+02	   3.1549760e-02	   2.1859940e-01	
   1.0675500e+02	   4.1613642e-02	   2.2505186e-01	
   1.0681000e+02	   5.1773724e-02	   2.3111737e-01	
   1.0686500e+02	   6.2059558e-02	   2.3681259e-01	
   1.0692000e+02	   7.2500239e-02	   2.4217111e-01	
   1.0697500e+02	   8.3119756e-02	   2.4723979e-01	
   1.0703000e+02	   9.3932622e-02	   2.5207324e-01	
   1.0708500e+02	   1.0494141e-01	   2.5672773e-01	
   1.0714000e+02	   1.1613569e-01	   2.6125493e-01	
   1.0719500e+02	   1.2749136e-01	   2.6569647e-01	
   1.0725000e+02	   1.3897039e-01	   2.7008063e-01	
   1.0730500e+02	   1.5052200e-01	   2.7442194e-01	
   1.0736000e+02	   1.6208497e-01	   2.7872326e-01	
   1.0741500e+02	   1.7359044e-01	   2.8297974e-01	
   1.0747000e+02	   1.8496449e-01	   2.8718387e-01	
   1.0752500e+02	   1.9613050e-01	   2.9133001e-01	
   1.0758000e+02	   2.0701141e-01	   2.9541702e-01	
   1.0763500e+02	   2.1753247e-01	   2.9944821e-01	
   1.0769000e+02	   2.2762454e-01	   3.0342919e-01	
   1.0774500e+02	   2.3722705e-01	   3.0736393e-01	
   1.0780000e+02	   2.4629042e-01	   3.1125010e-01	
   1.0785500e+02	   2.5477864e-01	   3.1507516e-01	
   1.0791000e+02	   2.6267294e-01	   3.1881502e-01	
   1.0796500e+02	   2.6997593e-01	   3.2243617e-01	
   1.0802000e+02	   2.7671418e-01	   3.2590020e-01	
   1.0807500e+02	   2.8293790e-01	   3.2916925e-01	
   1.0813000e+02	   2.8871762e-01	   3.3221086e-01	
   1.0818500e+02	   2.9413915e-01	   3.3500132e-01	
   1.0824000e+02	   2.9929769e-01	   3.3752710e-01	
   1.0829500e+02	   3.0429165e-01	   3.3978471e-01	
   1.0835000e+02	   3.0921613e-01	   3.4177942e-01	
   1.0840500e+02	   3.1415600e-01	   3.4352250e-01	
   1.0846000e+02	   3.1917918e-01	   3.4502706e-01	
   1.0851500e+02	   3.2433162e-01	   3.4630327e-01	
   1.0857000e+02	   3.2963479e-01	   3.4735443e-01	
   1.0862500e+02	   3.3508457e-01	   3.4817378e-01	
   1.0868000e+02	   3.4065106e-01	   3.4874248e-01	
   1.0873500e+02	   3.4628057e-01	   3.4902996e-01	
   1.0879000e+02	   3.5190166e-01	   3.4899827e-01	
   1.0884500e+02	   3.5743529e-01	   3.4861037e-01	
   1.0890000e+02	   3.6280610e-01	   3.4784013e-01	
   1.0895500e+02	   3.6795214e-01	   3.4668130e-01	
   1.0901000e+02	   3.7283142e-01	   3.4515369e-01	
   1.0906500e+02	   3.7742490e-01	   3.4330570e-01	
   1.0912000e+02	   3.8173565e-01	   3.4121376e-01	
   1.0917500e+02	   3.8578453e-01	   3.3897902e-01	
   1.0923000e+02	   3.8960396e-01	   3.3672217e-01	
   1.0928500e+02	   3.9323101e-01	   3.3457577e-01	
   1.0934000e+02	   3.9670059e-01	   3.3267385e-01	
   1.0939500e+02	   4.0003905e-01	   3.3113963e-01	
   1.0945000e+02	   4.0325911e-01	   3.3007305e-01	
   1.0950500e+02	   4.0635632e-01	   3.2953948e-01	
   1.0956000e+02	   4.0930643e-01	   3.2956006e-01	
   1.0961500e+02	   4.1206413e-01	   3.3010562e-01	
   1.0967000e+02	   4.1456544e-01	   3.3109665e-01	
   1.0972500e+02	   4.1673499e-01	   3.3241004e-01	
   1.0978000e+02	   4.1849650e-01	   3.3389082e-01	
   1.0983500e+02	   4.1978328e-01	   3.3536633e-01	
   1.0989000e+02	   4.2054723e-01	   3.3666107e-01	
   1.0994500e+02	   4.2076586e-01	   3.3761034e-01	
   1.1000000e+02	   4.2044633e-01	   3.3807125e-01	
   1.1005500e+02	   4.1962546e-01	   3.3793070e-01	
   1.1011000e+02	   4.1836514e-01	   3.3710952e-01	
   1.1016500e+02	   4.1674415e-01	   3.3556237e-01	
   1.1022000e+02	   4.1484803e-01	   3.3327334e-01	
   1.1027500e+02	   4.1275902e-01	   3.3024885e-01	
   1.1033000e+02	   4.1054795e-01	   3.2651008e-01	
   1.1038500e+02	   4.0826898e-01	   3.2208654e-01	
   1.1044000e+02	   4.0595752e-01	   3.1701170e-01	
   1.1049500e+02	   4.0363077e-01	   3.1132207e-01	
   1.1055000e+02	   4.0128950e-01	   3.0505925e-01	
   1.1060500e+02	   3.9891866e-01	   2.9827270e-01	
   1.1066000e+02	   3.9648614e-01	   2.9102071e-01	
   1.1071500e+02	   3.9394111e-01	   2.8336868e-01	
   1.1077000e+02	   3.9121457e-01	   2.7538561e-01	
   1.1082500e+02	   3.8822246e-01	   2.6713959e-01	
   1.1088000e+02	   3.8487017e-01	   2.5869286e-01	
   1.1093500e+02	   3.8105752e-01	   2.5009722e-01	
   1.1099000e+02	   3.7668480e-01	   2.4139056e-01	
   1.1104500e+02	   3.7165948e-01	   2.3259470e-01	
   1.1110000e+02	   3.6590176e-01	   2.2371436e-01	
   1.1115500e+02	   3.5934824e-01	   2.1473783e-01	
   1.1121000e+02	   3.5195532e-01	   2.0564073e-01	
   1.1126500e+02	   3.4370338e-01	   1.9639344e-01	
   1.1132000e+02	   3.3460142e-01	   1.8697082e-01	
   1.1137500e+02	   3.2469096e-01	   1.7736215e-01	
   1.1143000e+02	   3.1404781e-01	   1.6757950e-01	
   1.1148500e+02	   3.0277968e-01	   1.5766205e-01	
   1.1154000e+02	   2.9101875e-01	   1.4767542e-01	
   1.1159500e+02	   2.7891071e-01	   1.3770629e-01	
   1.1165000e+02	   2.6660274e-01	   1.2785420e-01	
   1.1170500e+02	   2.5423194e-01	   1.1822179e-01	
   1.1176000e+02	   2.4191478e-01	   1.0890448e-01	
   1.1181500e+02	   2.2973833e-01	   9.9980713e-02	
   1.1187000e+02	   2.1775497e-01	   9.1503867e-02	
   1.1192500e+02	   2.0598187e-01	   8.3496408e-02	
   1.1198000e+02	   1.9440474e-01	   7.5947278e-02	
   1.1203500e+02	   1.8298480e-01	   6.8813428e-02	
   1.1209000e+02	   1.7166839e-01	   6.2026076e-02	
   1.1214500e+02	   1.6039870e-01	   5.5500725e-02	
   1.1220000e+02	   1.4912784e-01	   4.9148767e-02	
   1.1225500e+02	   1.3782706e-01	   4.2888670e-02	
   1.1231000e+02	   1.2649353e-01	   3.6655617e-02	
   1.1236500e+02	   1.1515293e-01	   3.0408690e-02	
   1.1242000e+02	   1.0385771e-01	   2.4134503e-02	
   1.1247500e+02	   9.2681758e-02	   1.7846625e-02	
   1.1253000e+02	   8.1712444e-02	   1.1581139e-02	
   1.1258500e+02	   7.1041115e-02	   5.3891457e-03	
   1.1264000e+02	   6.0753005e-02	  -6.7306765e-04	
   1.1269500e+02	   5.0917953e-02	  -6.5549444e-03	
   1.1275000e+02	   4.1583970e-02	  -1.2221374e-02	
   1.1280500e+02	   3.2775151e-02	  -1.7659139e-02	
   1.1286000e+02	   2.4493582e-02	  -2.2879299e-02	
   1.1291500e+02	   1.6723734e-02	  -2.7915491e-02	
   1.1297000e+02	   9.4386632e-03	  -3.2818315e-02	
   1.1302500e+02	   2.6076037e-03	  -3.7646822e-02	
   1.1308000e+02	  -3.7968217e-03	  -4.2459050e-02	
   1.1313500e+02	  -9.7934609e-03	  -4.7303332e-02	
   1.1319000e+02	  -1.5389253e-02	  -5.2211299e-02	
   1.1324500e+02	  -2.0576772e-02	  -5.7193425e-02	
   1.1330000e+02	  -2.5333491e-02	  -6.2238233e-02	
   1.1335500e+02	  -2.9624256e-02	  -6.7315746e-02	
   1.1341000e+02	  -3.3407353e-02	  -7.2384536e-02	
   1.1346500e+02	  -3.6643217e-02	  -7.7400918e-02	
   1.1352000e+02	  -3.9304092e-02	  -8.2328402e-02	
   1.1357500e+02	  -4.1382465e-02	  -8.7145036e-02	
   1.1363000e+02	  -4.2896504e-02	  -9.1846709e-02	
   1.1368500e+02	  -4.3891821e-02	  -9.6446097e-02	
   1.1374000e+02	  -4.4439466e-02	  -1.0096793e-01	
   1.1379500e+02	  -4.4630261e-02	  -1.0544134e-01	
   1.1385000e+02	  -4.4566430e-02	  -1.0989076e-01	
   1.1390500e+02	  -4.4352785e-02	  -1.1432775e-01	
   1.1396000e+02	  -4.4090184e-02	  -1.1874628e-01	
   1.1401500e+02	  -4.3872420e-02	  -1.2312238e-01	
   1.1407000e+02	  -4.3785285e-02	  -1.2741814e-01	
   1.1412500e+02	  -4.3906144e-02	  -1.3158895e-01	
   1.1418000e+02	  -4.4303946e-02	  -1.3559238e-01	
   1.1423500e+02	  -4.5040314e-02	  -1.3939660e-01	
   1.1429000e+02	  -4.6171088e-02	  -1.4298643e-01	
   1.1434500e+02	  -4.7746797e-02	  -1.4636625e-01	
   1.1440000e+02	  -4.9810999e-02	  -1.4955908e-01	
   1.1445500e+02	  -5.2396083e-02	  -1.5260169e-01	
   1.1451000e+02	  -5.5517368e-02	  -1.5553641e-01	
   1.1456500e+02	  -5.9167865e-02	  -1.5840185e-01	
   1.1462000e+02	  -6.3316082e-02	  -1.6122480e-01	
   1.1467500e+02	  -6.7906942e-02	  -1.6401472e-01	
   1.1473000e+02	  -7.2864556e-02	  -1.6676099e-01	
   1.1478500e+02	  -7.8096345e-02	  -1.6943314e-01	
   1.1484000e+02	  -8.3498674e-02	  -1.7198389e-01	
   1.1489500e+02	  -8.8963526e-02	  -1.7435500e-01	
   1.1495000e+02	  -9.4385068e-02	  -1.7648480e-01	
   1.1500500e+02	  -9.9665184e-02	  -1.7831619e-01	
   1.1506000e+02	  -1.0471798e-01	  -1.7980365e-01	
   1.1511500e+02	  -1.0947349e-01	  -1.8091762e-01	
   1.1517000e+02	  -1.1388017e-01	  -1.8164495e-01	
   1.1522500e+02	  -1.1790572e-01	  -1.8198549e-01	
   1.1528000e+02	  -1.2153694e-01	  -1.8194698e-01	
   1.1533500e+02	  -1.2477850e-01	  -1.8153945e-01	
   1.1539000e+02	  -1.2764966e-01	  -1.8076990e-01	
   1.1544500e+02	  -1.3017914e-01	  -1.7963782e-01	
   1.1550000e+02	  -1.3239990e-01	  -1.7813320e-01	
   1.1555500e+02	  -1.3434549e-01	  -1.7623801e-01	
   1.1561000e+02	  -1.3604706e-01	  -1.7393097e-01	
   1.1566500e+02	  -1.3753066e-01	  -1.7119431e-01	
   1.1572000e+02	  -1.3881563e-01	  -1.6802129e-01	
   1.1577500e+02	  -1.3991433e-01	  -1.6442302e-01	
   1.1583000e+02	  -1.4083252e-01	  -1.6043289e-01	
   1.1588500e+02	  -1.4157032e-01	  -1.5610788e-01	
   1.1594000e+02	  -1.4212430e-01	  -1.5152675e-01	
   1.1599500e+02	  -1.4248992e-01	  -1.4678527e-01	
   1.1605000e+02	  -1.4266340e-01	  -1.4198849e-01	
   1.1610500e+02	  -1.4264318e-01	  -1.3724157e-01	
   1.1616000e+02	  -1.4243117e-01	  -1.3264122e-01	
   1.1621500e+02	  -1.4203374e-01	  -1.2826940e-01	
   1.1627000e+02	  -1.4146253e-01	  -1.2418905e-01	
   1.1632500e+02	  -1.4073496e-01	  -1.2044213e-01	
   1.1638000e+02	  -1.3987510e-01	  -1.1705048e-01	
   1.1643500e+02	  -1.3891511e-01	  -1.1401990e-01	
   1.1649000e+02	  -1.3789671e-01	  -1.1134637e-01	
   1.1654500e+02	  -1.3687047e-01	  -1.0902284e-01	
   1.1660000e+02	  -1.3589227e-01	  -1.0704560e-01	
   1.1665500e+02	  -1.3501778e-01	  -1.0541912e-01	
   1.1671000e+02	  -1.3429643e-01	  -1.0415848e-01	
   1.1676500e+02	  -1.3376626e-01	  -1.0328847e-01	
   1.1682000e+02	  -1.3345099e-01	  -1.0283995e-01	
   1.1687500e+02	  -1.3335927e-01	  -1.0284452e-01	
   1.1693000e+02	  -1.3348440e-01	  -1.0332796e-01	
   1.1698500e+02	  -1.3380395e-01	  -1.0430347e-01	
   1.1704000e+02	  -1.3428060e-01	  -1.0576634e-01	
   1.1709500e+02	  -1.3486562e-01	  -1.0769152e-01	
   1.1715000e+02	  -1.3550488e-01	  -1.1003426e-01	
   1.1720500e+02	  -1.3614588e-01	  -1.1273367e-01	
   1.1726000e+02	  -1.3674429e-01	  -1.1571847e-01	
   1.1731500e+02	  -1.3726875e-01	  -1.1891349e-01	
   1.1737000e+02	  -1.3770267e-01	  -1.2224530e-01	
   1.1742500e+02	  -1.3804206e-01	  -1.2564588e-01	
   1.1748000e+02	  -1.3828986e-01	  -1.2905387e-01	
   1.1753500e+02	  -1.3844898e-01	  -1.3241330e-01	
   1.1759000e+02	  -1.3851723e-01	  -1.3567067e-01	
   1.1764500e+02	  -1.3848611e-01	  -1.3877193e-01	
   1.1770000e+02	  -1.3834299e-01	  -1.4166057e-01	
   1.1775500e+02	  -1.3807470e-01	  -1.4427654e-01	
   1.1781000e+02	  -1.3767027e-01	  -1.4655584e-01	
   1.1786500e+02	  -1.3712218e-01	  -1.4843126e-01	
   1.1792000e+02	  -1.3642694e-01	  -1.4983575e-01	
   1.1797500e+02	  -1.3558662e-01	  -1.5070819e-01	
   1.1803000e+02	  -1.3461161e-01	  -1.5100036e-01	
   1.1808500e+02	  -1.3352372e-01	  -1.5068314e-01	
   1.1814000e+02	  -1.3235835e-01	  -1.4975093e-01	
   1.1819500e+02	  -1.3116442e-01	  -1.4822276e-01	
   1.1825000e+02	  -1.3000139e-01	  -1.4613953e-01	
   1.1830500e+02	  -1.2893389e-01	  -1.4355809e-01	
   1.1836000e+02	  -1.2802513e-01	  -1.4054383e-01	
   1.1841500e+02	  -1.2733104e-01	  -1.3716374e-01	
   1.1847000e+02	  -1.2689627e-01	  -1.3348081e-01	
   1.1852500e+02	  -1.2675261e-01	  -1.2955086e-01	
   1.1858000e+02	  -1.2692018e-01	  -1.2542220e-01	
   1.1863500e+02	  -1.2741019e-01	  -1.2113764e-01	
   1.1869000e+02	  -1.2822712e-01	  -1.1673779e-01	
   1.1874500e+02	  -1.2936937e-01	  -1.1226467e-01	
   1.1880000e+02	  -1.3082890e-01	  -1.0776485e-01	
   1.1885500e+02	  -1.3259061e-01	  -1.0329149e-01	
   1.1891000e+02	  -1.3463110e-01	  -9.8903654e-02	
   1.1896500e+02	  -1.3691665e-01	  -9.4662578e-02	
   1.1902000e+02	  -1.3940142e-01	  -9.0625979e-02	
   1.1907500e+02	  -1.4202769e-01	  -8.6842579e-02	
   1.1913000e+02	  -1.4472887e-01	  -8.3348315e-02	
   1.1918500e+02	  -1.4743444e-01	  -8.0164621e-02	
   1.1924000e+02	  -1.5007522e-01	  -7.7298728e-02	
   1.1929500e+02	  -1.5258796e-01	  -7.4745806e-02	
   1.1935000e+02	  -1.5491888e-01	  -7.2492644e-02	
   1.1940500e+02	  -1.5702580e-01	  -7.0522486e-02	
   1.1946000e+02	  -1.5887896e-01	  -6.8820534e-02	
   1.1951500e+02	  -1.6046005e-01	  -6.7379382e-02	
   1.1957000e+02	  -1.6175859e-01	  -6.6203185e-02	
   1.1962500e+02	  -1.6276662e-01	  -6.5309399e-02	
   1.1968000e+02	  -1.6347454e-01	  -6.4727459e-02	
   1.1973500e+02	  -1.6386995e-01	  -6.4494133e-02	
   1.1979000e+02	  -1.6393957e-01	  -6.4645802e-02	
   1.1984500e+02	  -1.6367269e-01	  -6.5209127e-02	
   1.1990000e+02	  -1.6306456e-01	  -6.6192378e-02	
   1.1995500e+02	  -1.6211812e-01	  -6.7579136e-02	
   1.2001000e+02	  -1.6084342e-01	  -6.9325167e-02	
   1.2006500e+02	  -1.5925585e-01	  -7.1358762e-02	
   1.2012000e+02	  -1.5737554e-01	  -7.3584471e-02	
   1.2017500e+02	  -1.5522918e-01	  -7.5889768e-02	
   1.2023000e+02	  -1.5285307e-01	  -7.8153912e-02	
   1.2028500e+02	  -1.5029485e-01	  -8.0257950e-02	
   1.2034000e+02	  -1.4761209e-01	  -8.2094718e-02	
   1.2039500e+02	  -1.4486875e-01	  -8.3577989e-02	
   1.2045000e+02	  -1.4213155e-01	  -8.4650172e-02	
   1.2050500e+02	  -1.3946720e-01	  -8.5287792e-02	
   1.2056000e+02	  -1.3694057e-01	  -8.5503809e-02	
   1.2061500e+02	  -1.3461292e-01	  -8.5345797e-02	
   1.2067000e+02	  -1.3253933e-01	  -8.4889381e-02	
   1.2072500e+02	  -1.3076546e-01	  -8.4227706e-02	
   1.2078000e+02	  -1.2932527e-01	  -8.3459307e-02	
   1.2083500e+02	  -1.2824068e-01	  -8.2677042e-02	
   1.2089000e+02	  -1.2752283e-01	  -8.1959481e-02	
   1.2094500e+02	  -1.2717395e-01	  -8.1365349e-02	
   1.2100000e+02	  -1.2718906e-01	  -8.0931780e-02	
   1.2105500e+02	  -1.2755731e-01	  -8.0676627e-02	
   1.2111000e+02	  -1.2826224e-01	  -8.0603646e-02	
   1.2116500e+02	  -1.2928128e-01	  -8.0708784e-02	
   1.2122000e+02	  -1.3058590e-01	  -8.0986524e-02	
   1.2127500e+02	  -1.3214390e-01	  -8.1435837e-02	
   1.2133000e+02	  -1.3392293e-01	  -8.2064634e-02	
   1.2138500e+02	  -1.3589351e-01	  -8.2891150e-02	
   1.2144000e+02	  -1.3803035e-01	  -8.3941402e-02	
   1.2149500e+02	  -1.4031162e-01	  -8.5243248e-02	
   1.2155000e+02	  -1.4271645e-01	  -8.6818581e-02	
   1.2160500e+02	  -1.4522106e-01	  -8.8675733e-02	
   1.2166000e+02	  -1.4779527e-01	  -9.0804058e-02	
   1.2171500e+02	  -1.5040085e-01	  -9.3171728e-02	
   1.2177000e+02	  -1.5299247e-01	  -9.5726633e-02	
   1.2182500e+02	  -1.5552027e-01	  -9.8399671e-02	
   1.2188000e+02	  -1.5793237e-01	  -1.0110970e-01	
   1.2193500e+02	  -1.6017638e-01	  -1.0376944e-01	
   1.2199000e+02	  -1.6220112e-01	  -1.0629127e-01	
   1.2204500e+02	  -1.6395928e-01	  -1.0859163e-01	
   1.2210000e+02	  -1.6541066e-01	  -1.1059306e-01	
   1.2215500e+02	  -1.6652538e-01	  -1.1222382e-01	
   1.2221000e+02	  -1.6728633e-01	  -1.1341606e-01	
   1.2226500e+02	  -1.6769043e-01	  -1.1410372e-01	
   1.2232000e+02	  -1.6774802e-01	  -1.1422167e-01	
   1.2237500e+02	  -1.6748051e-01	  -1.1370616e-01	
   1.2243000e+02	  -1.6691724e-01	  -1.1249581e-01	
   1.2248500e+02	  -1.6609230e-01	  -1.1053255e-01	
   1.2254000e+02	  -1.6504169e-01	  -1.0776295e-01	
   1.2259500e+02	  -1.6380146e-01	  -1.0414149e-01	
   1.2265000e+02	  -1.6240707e-01	  -9.9636130e-02	
   1.2270500e+02	  -1.6089423e-01	  -9.4235031e-02	
   1.2276000e+02	  -1.5930085e-01	  -8.7952405e-02	
   1.2281500e+02	  -1.5766826e-01	  -8.0831326e-02	
   1.2287000e+02	  -1.5604035e-01	  -7.2942394e-02	
   1.2292500e+02	  -1.5446030e-01	  -6.4378468e-02	
   1.2298000e+02	  -1.5296657e-01	  -5.5247192e-02	
   1.2303500e+02	  -1.5158906e-01	  -4.5663253e-02	
   1.2309000e+02	  -1.5034535e-01	  -3.5741426e-02	
   1.2314500e+02	  -1.4923681e-01	  -2.5591172e-02	
   1.2320000e+02	  -1.4824578e-01	  -1.5313577e-02	
   1.2325500e+02	  -1.4733559e-01	  -5.0009157e-03	
   1.2331000e+02	  -1.4645409e-01	   5.2617341e-03	
   1.2336500e+02	  -1.4554037e-01	   1.5393598e-02	
   1.2342000e+02	  -1.4453310e-01	   2.5314663e-02	
   1.2347500e+02	  -1.4337873e-01	   3.4942377e-02	
   1.2353000e+02	  -1.4203728e-01	   4.4190024e-02	
   1.2358500e+02	  -1.4048406e-01	   5.2968317e-02	
   1.2364000e+02	  -1.3870797e-01	   6.1190801e-02	
   1.2369500e+02	  -1.3670844e-01	   6.8781977e-02	
   1.2375000e+02	  -1.3449267e-01	   7.5685995e-02	
   1.2380500e+02	  -1.3207336e-01	   8.1873766e-02	
   1.2386000e+02	  -1.2946617e-01	   8.7347206e-02	
   1.2391500e+02	  -1.2668584e-01	   9.2140562e-02	
   1.2397000e+02	  -1.2374078e-01	   9.6319332e-02	
   1.2402500e+02	  -1.2062831e-01	   9.9976546e-02	
   1.2408000e+02	  -1.1733305e-01	   1.0322583e-01	
   1.2413500e+02	  -1.1382955e-01	   1.0619160e-01	
   1.2419000e+02	  -1.1008702e-01	   1.0899787e-01	
   1.2424500e+02	  -1.0607395e-01	   1.1175755e-01	
   1.2430000e+02	  -1.0176162e-01	   1.1456358e-01	
   1.2435500e+02	  -9.7126418e-02	   1.1748331e-01	
   1.2441000e+02	  -9.2150964e-02	   1.2055724e-01	
   1.2446500e+02	  -8.6823720e-02	   1.2380234e-01	
   1.2452000e+02	  -8.1137711e-02	   1.2721874e-01	
   1.2457500e+02	  -7.5090084e-02	   1.3079742e-01	
   1.2463000e+02	  -6.8683166e-02	   1.3452740e-01	
   1.2468500e+02	  -6.1925913e-02	   1.3840169e-01	
   1.2474000e+02	  -5.4835012e-02	   1.4242084e-01	
   1.2479500e+02	  -4.7436386e-02	   1.4659244e-01	
   1.2485000e+02	  -3.9767203e-02	   1.5092717e-01	
   1.2490500e+02	  -3.1877351e-02	   1.5543348e-01	
   1.2496000e+02	  -2.3830145e-02	   1.6011316e-01	
   1.2501500e+02	  -1.5702756e-02	   1.6495865e-01	
   1.2507000e+02	  -7.5854074e-03	   1.6995297e-01	
   1.2512500e+02	   4.2207002e-04	   1.7507286e-01	
   1.2518000e+02	   8.2161702e-03	   1.8029403e-01	
   1.2523500e+02	   1.5696830e-02	   1.8559676e-01	
   1.2529000e+02	   2.2774874e-02	   1.9097061e-01	
   1.2534500e+02	   2.9379244e-02	   1.9641772e-01	
   1.2540000e+02	   3.5462955e-02	   2.0195370e-01	
   1.2545500e+02	   4.1006320e-02	   2.0760531e-01	
   1.2551000e+02	   4.6016696e-02	   2.1340494e-01	
   1.2556500e+02	   5.0525571e-02	   2.1938306e-01	
   1.2562000e+02	   5.4584464e-02	   2.2556022e-01	
   1.2567500e+02	   5.8260558e-02	   2.3194091e-01	
   1.2573000e+02	   6.1632836e-02	   2.3851073e-01	
   1.2578500e+02	   6.4789588e-02	   2.4523800e-01	
   1.2584000e+02	   6.7826860e-02	   2.5207825e-01	
   1.2589500e+02	   7.0846381e-02	   2.5898014e-01	
   1.2595000e+02	   7.3952405e-02	   2.6589110e-01	
   1.2600500e+02	   7.7248401e-02	   2.7276225e-01	
   1.2606000e+02	   8.0834439e-02	   2.7955162e-01	
   1.2611500e+02	   8.4805158e-02	   2.8622549e-01	
   1.2617000e+02	   8.9247776e-02	   2.9275746e-01	
   1.2622500e+02	   9.4240008e-02	   2.9912608e-01	
   1.2628000e+02	   9.9847904e-02	   3.0531126e-01	
   1.2633500e+02	   1.0612324e-01	   3.1129010e-01	
   1.2639000e+02	   1.1310056e-01	   3.1703382e-01	
   1.2644500e+02	   1.2079492e-01	   3.2250866e-01	
   1.2650000e+02	   1.2920155e-01	   3.2768097e-01	
   1.2655500e+02	   1.3829775e-01	   3.3252440e-01	
   1.2661000e+02	   1.4804656e-01	   3.3702613e-01	
   1.2666500e+02	   1.5840159e-01	   3.4119082e-01	
   1.2672000e+02	   1.6931170e-01	   3.4504147e-01	
   1.2677500e+02	   1.8072387e-01	   3.4861762e-01	
   1.2683000e+02	   1.9258436e-01	   3.5197152e-01	
