0 5 7	
   0.0000000e+00	   5.3720057e+00	   3.6427110e-01	
   5.5000000e-02	   5.3418250e+00	   2.4220713e-01	
   1.1000000e-01	   5.2936996e+00	   3.5883774e-01	
   1.6500000e-01	   5.3631788e+00	   3.2337603e-01	
   2.2000000e-01	   4.9481104e+00	   2.1556067e-01	
   2.7500000e-01	   5.0275653e+00	   2.3323009e-01	
   3.3000000e-01	   5.1274699e+00	   3.1757382e-01	
   3.8500000e-01	   4.9119667e+00	   7.4595161e-02	
   4.4000000e-01	   4.4090489e+00	  -2.6677277e-02	
   4.9500000e-01	   4.9498580e+00	   2.0569023e-01	
   5.5000000e-01	   5.6495156e+00	   4.1758277e-01	
   6.0500000e-01	   5.3568813e+00	   3.4485127e-01	
   6.6000000e-01	   5.1056149e+00	   6.6853140e-02	
   7.1500000e-01	   5.4906084e+00	   4.1748719e-01	
   7.7000000e-01	   5.4007685e+00	   4.0691241e-01	
   8.2500000e-01	   4.8185669e+00	   1.3451652e-01	
   8.8000000e-01	   5.0679770e+00	   1.9352360e-01	
   9.3500000e-01	   4.8880432e+00	   7.6026074e-02	
   9.9000000e-01	   5.1576008e+00	   3.2197470e-01	
   1.0450000e+00	   4.5502975e+00	  -1.9820500e-01	
   1.1000000e+00	   4.6940383e+00	   5.9086780e-02	
   1.1550000e+00	   5.4368082e+00	   3.7798695e-01	
   1.2100000e+00	   5.5111655e+00	   3.9734912e-01	
   1.2650000e+00	   5.2554948e+00	   3.0651298e-01	
   1.3200000e+00	   5.1476673e+00	   2.5395973e-01	
   1.3750000e+00	   5.1770428e+00	   2.8642099e-01	
   1.4300000e+00	   5.3763948e+00	   3.1123942e-01	
   1.4850000e+00	   4.8836662e+00	   2.4839453e-01	
   1.5400000e+00	   5.1908101e+00	   1.0471879e-01	
   1.5950000e+00	   5.2624331e+00	   2.3566851e-01	
   1.6500000e+00	   5.3467494e+00	   8.2045472e-02	
   1.7050000e+00	   4.8227555e+00	  -1.2624492e-02	
   1.7600000e+00	   4.9569487e+00	  -4.9501220e-02	
   1.8150000e+00	   5.6402568e+00	   3.7150741e-01	
   1.8700000e+00	   5.7825903e+00	   6.7215404e-01	
   1.9250000e+00	   5.7459003e+00	   3.6355598e-01	
   1.9800000e+00	   5.5293223e+00	   3.1228926e-01	
   2.0350000e+00	   5.4859728e+00	   4.9535386e-01	
   2.0900000e+00	   5.4717472e+00	   5.4128259e-01	
   2.1450000e+00	   5.6504753e+00	   4.9320397e-01	
   2.2000000e+00	   5.2671521e+00	   2.7546741e-01	
   2.2550000e+00	   5.1817592e+00	   2.8821166e-01	
   2.3100000e+00	   5.3933917e+00	   3.3259965e-01	
   2.3650000e+00	   4.9958424e+00	   1.8787713e-02	
   2.4200000e+00	   5.2907417e+00	   8.1022268e-02	
   2.4750000e+00	   5.4546388e+00	   4.6137373e-01	
   2.5300000e+00	   5.5772897e+00	   5.8201670e-01	
   2.5850000e+00	   5.5662113e+00	   4.2673494e-01	
   2.6400000e+00	   5.7171253e+00	   4.6375488e-01	
   2.6950000e+00	   5.6353407e+00	   4.9720310e-01	
   2.7500000e+00	   5.5700550e+00	   5.5131121e-01	
   2.8050000e+00	   5.6982049e+00	   3.8252199e-01	
   2.8600000e+00	   5.3121312e+00	   2.8559884e-01	
   2.9150000e+00	   5.5066136e+00	   3.7702428e-01	
   2.9700000e+00	   5.2461202e+00	   3.8352041e-01	
   3.0250000e+00	   5.3837231e+00	   3.1023993e-01	
   3.0800000e+00	   4.9690203e+00	   2.0587299e-01	
   3.1350000e+00	   5.2084383e+00	   2.2298092e-01	
   3.1900000e+00	   5.6178402e+00	   3.8710646e-01	
   3.2450000e+00	   5.5121024e+00	   3.5359127e-01	
   3.3000000e+00	   5.4309754e+00	   3.5896458e-01	
   3.3550000e+00	   5.8415026e+00	   5.7273969e-01	
   3.4100000e+00	   5.6915805e+00	   5.4585074e-01	
   3.4650000e+00	   5.6606587e+00	   5.4199465e-01	
   3.5200000e+00	   5.4841598e+00	   4.5383403e-01	
   3.5750000e+00	   5.7640493e+00	   5.1382558e-01	
   3.6300000e+00	   5.4555133e+00	   3.2619109e-01	
   3.6850000e+00	   5.3625191e+00	   3.6503817e-01	
   3.7400000e+00	   5.1373858e+00	   2.9163999e-01	
   3.7950000e+00	   5.4515589e+00	   3.9968927e-01	
   3.8500000e+00	   5.4595579e+00	   4.3201634e-01	
   3.9050000e+00	   5.6623655e+00	   4.1096088e-01	
   3.9600000e+00	   5.8187749e+00	   5.2901732e-01	
   4.0150000e+00	   6.0111053e+00	   6.0799902e-01	
   4.0700000e+00	   5.9333429e+00	   4.7099663e-01	
   4.1250000e+00	   6.1365297e+00	   4.2966250e-01	
   4.1800000e+00	   5.6016032e+00	   5.1546264e-01	
   4.2350000e+00	   5.8793803e+00	   5.8359064e-01	
   4.2900000e+00	   5.9572327e+00	   4.9131729e-01	
   4.3450000e+00	   5.6740638e+00	   3.3894890e-01	
   4.4000000e+00	   5.1920441e+00	   2.8768776e-01	
   4.4550000e+00	   5.3522441e+00	   2.6178249e-01	
   4.5100000e+00	   5.3435010e+00	   3.0492733e-01	
   4.5650000e+00	   5.2944925e+00	   2.7953376e-01	
   4.6200000e+00	   5.7522260e+00	   5.2971800e-01	
   4.6750000e+00	   6.1038158e+00	   5.9208790e-01	
   4.7300000e+00	   6.0397637e+00	   9.4710039e-01	
   4.7850000e+00	   6.0342446e+00	   5.9029650e-01	
   4.8400000e+00	   5.9867839e+00	   4.0600310e-01	
   4.8950000e+00	   6.0510318e+00	   7.1823022e-01	
   4.9500000e+00	   5.5629634e+00	   4.9442051e-01	
   5.0050000e+00	   5.8187930e+00	   5.2809693e-01	
   5.0600000e+00	   5.7456561e+00	   4.1587970e-01	
   5.1150000e+00	   5.8812939e+00	   4.7487752e-01	
   5.1700000e+00	   5.4923373e+00	   3.9526727e-01	
   5.2250000e+00	   5.3420568e+00	   1.3042019e-01	
   5.2800000e+00	   5.5247855e+00	   4.2487543e-01	
   5.3350000e+00	   5.8008955e+00	   7.7032331e-01	
   5.3900000e+00	   6.2919373e+00	   7.2280176e-01	
   5.4450000e+00	   6.3553647e+00	   7.6722380e-01	
   5.5000000e+00	   5.9802363e+00	   5.2579612e-01	
   5.5550000e+00	   6.2636435e+00	   7.1765217e-01	
   5.6100000e+00	   5.9599934e+00	   5.8704025e-01	
   5.6650000e+00	   5.9873053e+00	   6.6147427e-01	
   5.7200000e+00	   5.8332800e+00	   3.1194709e-01	
   5.7750000e+00	   5.9405321e+00	   5.9807731e-01	
   5.8300000e+00	   5.7187197e+00	   6.3391765e-01	
   5.8850000e+00	   5.8346235e+00	   5.2791158e-01	
   5.9400000e+00	   5.3335457e+00	   2.2694921e-01	
   5.9950000e+00	   5.1539612e+00	   2.8144082e-01	
   6.0500000e+00	   5.9362162e+00	   4.9790268e-01	
   6.1050000e+00	   5.9201515e+00	   5.7426112e-01	
   6.1600000e+00	   5.7336255e+00	   5.5655465e-01	
   6.2150000e+00	   6.2177131e+00	   8.1073519e-01	
   6.2700000e+00	   5.9961540e+00	   7.2529811e-01	
   6.3250000e+00	   5.9460775e+00	   5.5895032e-01	
   6.3800000e+00	   5.6925467e+00	   5.1252232e-01	
   6.4350000e+00	   5.8261022e+00	   6.0338757e-01	
   6.4900000e+00	   5.5808302e+00	   4.6913894e-01	
   6.5450000e+00	   5.6532128e+00	   3.0895072e-01	
   6.6000000e+00	   5.5509226e+00	   4.1251542e-01	
   6.6550000e+00	   5.6595712e+00	   3.6432851e-01	
   6.7100000e+00	   5.2058345e+00	   3.5123561e-01	
   6.7650000e+00	   5.7116204e+00	   2.6129812e-01	
   6.8200000e+00	   5.6143190e+00	   2.5373904e-01	
   6.8750000e+00	   6.3429850e+00	   4.4440199e-01	
   6.9300000e+00	   5.7674107e+00	   5.1779947e-01	
   6.9850000e+00	   5.8933321e+00	   4.2495511e-01	
   7.0400000e+00	   5.6770631e+00	   2.7268776e-01	
   7.0950000e+00	   5.8688242e+00	   3.5159871e-01	
   7.1500000e+00	   2.2166843e+00	   4.2468774e-01	
   7.2050000e+00	   5.3204023e+00	   1.7896363e-01	
   7.2600000e+00	   5.3799724e+00	   2.6129110e-01	
   7.3150000e+00	   5.3425339e+00	   2.4068582e-01	
   7.3700000e+00	   5.3712865e+00	   2.6076909e-01	
   7.4250000e+00	   5.5495212e+00	   2.6785498e-01	
   7.4800000e+00	   5.7471759e+00	   3.8177920e-01	
   7.5350000e+00	   5.9018271e+00	   4.4772311e-01	
   7.5900000e+00	   5.9519909e+00	   5.6259511e-01	
   7.6450000e+00	   5.7217547e+00	   2.1643964e-01	
   7.7000000e+00	   5.8241365e+00	   3.9425175e-01	
   7.7550000e+00	   5.8644121e+00	   5.3561014e-01	
   7.8100000e+00	   5.6970048e+00	   3.6459304e-01	
   7.8650000e+00	   5.4600636e+00	   2.2009012e-01	
   7.9200000e+00	   5.2295908e+00	   2.5943039e-04	
   7.9750000e+00	   5.6373311e+00	   1.8359890e-01	
   8.0300000e+00	   5.1933426e+00	   1.4886140e-01	
   8.0850000e+00	   5.9136566e+00	   2.5079235e-01	
   8.1400000e+00	   5.6448256e+00	   2.7284963e-01	
   8.1950000e+00	   5.7221047e+00	   3.8336752e-01	
   8.2500000e+00	   5.6681262e+00	   3.1119082e-01	
   8.3050000e+00	   5.7236148e+00	   3.5820639e-01	
   8.3600000e+00	   5.5881216e+00	   2.3524302e-01	
   8.4150000e+00	   5.5816462e+00	   4.0606521e-01	
   8.4700000e+00	   1.9602258e+00	   2.1222600e-01	
   8.5250000e+00	   1.1136622e+00	   2.9600945e-01	
   8.5800000e+00	   1.3859826e+00	   3.5895836e-02	
   8.6350000e+00	   1.2548882e+00	  -4.6150221e-02	
   8.6900000e+00	   1.3339196e+00	   1.4909558e-01	
   8.7450000e+00	   1.7347459e+00	   2.7995501e-01	
   8.8000000e+00	   1.4194957e+00	   1.9587974e-01	
   8.8550000e+00	   2.1109746e+00	   4.8445355e-01	
   8.9100000e+00	   1.6819384e+00	   3.6150096e-01	
   8.9650000e+00	   1.8959165e+00	   3.1667764e-01	
   9.0200000e+00	   1.3094700e+00	   1.5932475e-01	
   9.0750000e+00	   1.4998520e+00	   2.6759047e-01	
   9.1300000e+00	   1.4340145e+00	   1.8749594e-01	
   9.1850000e+00	   5.6099524e+00	   2.7380477e-01	
   9.2400000e+00	   4.9955730e+00	   3.1399070e-02	
   9.2950000e+00	   5.3452889e+00	   3.4968751e-01	
   9.3500000e+00	   5.2605270e+00	   2.7439706e-01	
   9.4050000e+00	   5.6409146e+00	   3.2731430e-01	
   9.4600000e+00	   5.6299732e+00	   4.1675387e-01	
   9.5150000e+00	   5.6788683e+00	   4.6873303e-01	
   9.5700000e+00	   6.0914717e+00	   5.3077885e-01	
   9.6250000e+00	   5.7576038e+00	   5.3383051e-01	
   9.6800000e+00	   5.6207643e+00	   2.2727831e-01	
   9.7350000e+00	   5.4375662e+00	   3.4315518e-01	
   9.7900000e+00	   5.2789181e+00	   2.0406863e-01	
   9.8450000e+00	   5.2810839e+00	   2.0512808e-01	
   9.9000000e+00	   5.3060398e+00	   1.1063780e-01	
   9.9550000e+00	   5.1186588e+00	   1.5317065e-01	
   1.0010000e+01	   5.4590080e+00	   3.1878635e-01	
   1.0065000e+01	   5.6378055e+00	   4.8775234e-01	
   1.0120000e+01	   5.6806349e+00	   5.8377082e-01	
   1.0175000e+01	   5.9658735e+00	   5.0151317e-01	
   1.0230000e+01	   5.8638177e+00	   6.4146590e-01	
   1.0285000e+01	   5.6625257e+00	   4.2514081e-01	
   1.0340000e+01	   1.8915052e+00	   3.7278972e-01	
   1.0395000e+01	   1.6464856e+00	   4.0745317e-01	
   1.0450000e+01	   5.9184262e+00	   6.2379349e-01	
   1.0505000e+01	   5.7347452e+00	   3.6787454e-01	
   1.0560000e+01	   4.9621583e+00	   4.0840815e-02	
   1.0615000e+01	   5.1988912e+00	   4.4561694e-01	
   1.0670000e+01	   6.0299459e+00	   6.5352473e-01	
   1.0725000e+01	   5.7025555e+00	   6.0469229e-01	
   1.0780000e+01	   5.8839583e+00	   4.3648995e-01	
   1.0835000e+01	   2.1622755e+00	   5.9072167e-01	
   1.0890000e+01	   1.8526456e+00	   6.7272679e-01	
   1.0945000e+01	   1.8514468e+00	   4.6289456e-01	
   1.1000000e+01	   6.0016949e+00	   4.8509231e-01	
   1.1055000e+01	   5.6080262e+00	   3.8065913e-01	
   1.1110000e+01	   5.3138737e+00	   4.2277582e-01	
   1.1165000e+01	   5.4675805e+00	   4.0574290e-01	
   1.1220000e+01	   5.5063787e+00	   3.5093119e-01	
   1.1275000e+01	   5.7467421e+00	   5.8067519e-01	
   1.1330000e+01	   5.9585654e+00	   5.6823898e-01	
   1.1385000e+01	   5.9348505e+00	   5.2579029e-01	
   1.1440000e+01	   5.9565504e+00	   5.1052484e-01	
   1.1495000e+01	   5.9792585e+00	   6.3033256e-01	
   1.1550000e+01	   1.7048922e+00	   6.3685323e-01	
   1.1605000e+01	   1.3860874e+00	   4.9753168e-01	
   1.1660000e+01	   6.5346909e+00	   4.1137954e-01	
   1.1715000e+01	   5.4454661e+00	   4.7538652e-01	
   1.1770000e+01	   5.1517075e+00	   4.4420513e-01	
   1.1825000e+01	   5.3336970e+00	   3.1732861e-01	
   1.1880000e+01	   5.7181068e+00	   5.0242821e-01	
   1.1935000e+01	   5.6642039e+00	   5.8930605e-01	
   1.1990000e+01	   5.8685194e+00	   6.9810923e-01	
   1.2045000e+01	   5.7929448e+00	   7.2293840e-01	
   1.2100000e+01	   1.6681867e+00	   4.1757769e-01	
   1.2155000e+01	   1.4608593e+00	   6.2457618e-01	
   1.2210000e+01	   1.8919989e+00	   4.9649544e-01	
   1.2265000e+01	   1.6260873e+00	   4.9756785e-01	
   1.2320000e+01	   1.2642545e+00	   3.7129875e-01	
   1.2375000e+01	   1.1023661e+00	   2.5571470e-01	
   1.2430000e+01	   1.4222804e+00	   4.3971280e-01	
   1.2485000e+01	   1.2058276e+00	   2.9375427e-01	
   1.2540000e+01	   1.6015043e+00	   5.3032614e-01	
   1.2595000e+01	   1.7877210e+00	   5.4885128e-01	
   1.2650000e+01	   1.8832700e+00	   6.9974793e-01	
   1.2705000e+01	   1.6704519e+00	   6.5977629e-01	
   1.2760000e+01	   1.4603489e+00	   5.4604778e-01	
   1.2815000e+01	   1.3373389e+00	   6.4236028e-01	
   1.2870000e+01	   1.5897859e+00	   5.8197427e-01	
   1.2925000e+01	   1.5653060e+00	   4.6411893e-01	
   1.2980000e+01	   1.4383625e+00	   3.8360104e-01	
   1.3035000e+01	   1.2638915e+00	   4.2344486e-01	
   1.3090000e+01	   1.4998155e+00	   3.7035138e-01	
   1.3145000e+01	   1.4315370e+00	   5.2386214e-01	
   1.3200000e+01	   1.5495181e+00	   3.5866224e-01	
   1.3255000e+01	   1.9161011e+00	   6.5775949e-01	
   1.3310000e+01	   1.6543269e+00	   5.2410906e-01	
   1.3365000e+01	   1.2526725e+00	   4.5905685e-01	
   1.3420000e+01	   1.4372238e+00	   5.2691335e-01	
   1.3475000e+01	   1.5636536e+00	   5.3691097e-01	
   1.3530000e+01	   1.7695065e+00	   5.9509934e-01	
   1.3585000e+01	   1.5136520e+00	   4.8234272e-01	
   1.3640000e+01	   1.1932946e+00	   2.2449319e-01	
   1.3695000e+01	   1.3495970e+00	   3.1151095e-01	
   1.3750000e+01	   1.1787429e+00	   3.3801032e-01	
   1.3805000e+01	   1.2611852e+00	   2.7705175e-01	
   1.3860000e+01	   1.0212394e+00	   1.5870428e-01	
   1.3915000e+01	   1.3571922e+00	   5.0907557e-01	
   1.3970000e+01	   1.7082196e+00	   5.3372183e-01	
   1.4025000e+01	   1.7991672e+00	   5.6087069e-01	
   1.4080000e+01	   1.8730920e+00	   5.6720937e-01	
   1.4135000e+01	   1.5435818e+00	   6.3433148e-01	
   1.4190000e+01	   1.5281246e+00	   6.4094540e-01	
   1.4245000e+01	   1.5566406e+00	   6.9547508e-01	
   1.4300000e+01	   1.4152519e+00	   4.2360470e-01	
   1.4355000e+01	   1.2811780e+00	   3.5169673e-01	
   1.4410000e+01	   1.3417797e+00	   3.9099959e-01	
   1.4465000e+01	   1.5768981e+00	   4.3781165e-01	
   1.4520000e+01	   1.0663319e+00	   1.7916401e-01	
   1.4575000e+01	   1.1475864e+00	   2.5584454e-01	
   1.4630000e+01	   1.5182762e+00	   4.8122976e-01	
   1.4685000e+01	   1.7207821e+00	   4.6946550e-01	
   1.4740000e+01	   1.5230040e+00	   4.1375334e-01	
   1.4795000e+01	   1.8510313e+00	   5.4123575e-01	
   1.4850000e+01	   1.5391717e+00	   5.5451326e-01	
   1.4905000e+01	   1.6575067e+00	   5.0757590e-01	
   1.4960000e+01	   1.7529249e+00	   4.9279811e-01	
   1.5015000e+01	   1.8353860e+00	   3.5770987e-01	
   1.5070000e+01	   1.6675299e+00	   4.1107254e-01	
   1.5125000e+01	   1.6036302e+00	   4.2796552e-01	
   1.5180000e+01	   1.3132284e+00	   5.5731731e-01	
   1.5235000e+01	   1.4718858e+00	   3.3617139e-01	
   1.5290000e+01	   1.2641616e+00	   4.4486619e-01	
   1.5345000e+01	   1.2180796e+00	   3.3043610e-01	
   1.5400000e+01	   1.1031350e+00	   2.2423773e-01	
   1.5455000e+01	   1.3745355e+00	   4.0440077e-01	
   1.5510000e+01	   1.7935575e+00	   4.8331058e-01	
   1.5565000e+01	   1.6921227e+00	   6.0696128e-01	
   1.5620000e+01	   1.8598734e+00	   4.9464355e-01	
   1.5675000e+01	   1.9040947e+00	   4.2072802e-01	
   1.5730000e+01	   1.7982070e+00	   4.8172912e-01	
   1.5785000e+01	   1.6322772e+00	   4.9279811e-01	
   1.5840000e+01	   1.5535087e+00	   3.6804115e-01	
   1.5895000e+01	   1.4795714e+00	   4.1360793e-01	
   1.5950000e+01	   1.5706158e+00	   4.9604716e-01	
   1.6005000e+01	   1.3728012e+00	   4.4164246e-01	
   1.6060000e+01	   1.0308546e+00	  -2.6459009e-02	
   1.6115000e+01	   8.8929157e-01	   1.5476545e-01	
   1.6170000e+01	   1.1408605e+00	   1.5737653e-01	
   1.6225000e+01	   1.1649042e+00	   1.7153156e-01	
   1.6280000e+01	   1.4184976e+00	   2.3879457e-01	
   1.6335000e+01	   1.5953141e+00	   3.6140603e-01	
   1.6390000e+01	   1.6877078e+00	   4.3790719e-01	
   1.6445000e+01	   1.6425737e+00	   4.8637204e-01	
   1.6500000e+01	   1.6471428e+00	   4.0883999e-01	
   1.6555000e+01	   1.1655233e+00	   3.3553905e-01	
   1.6610000e+01	   1.5463652e+00	   5.2660932e-01	
   1.6665000e+01	   1.2481210e+00	   3.5756589e-01	
   1.6720000e+01	   1.0640048e+00	   1.6852185e-01	
   1.6775000e+01	   1.2076920e+00	   1.5753989e-01	
   1.6830000e+01	   1.0182204e+00	   1.8953310e-01	
   1.6885000e+01	   9.5911574e-01	   7.2101035e-02	
   1.6940000e+01	   1.0930513e+00	  -2.0900735e-03	
   1.6995000e+01	   1.1276589e+00	   2.0746799e-01	
   1.7050000e+01	   1.5278056e+00	   4.5418024e-01	
   1.7105000e+01	   1.4565096e+00	   3.7636572e-01	
   1.7160000e+01	   1.1979007e+00	   2.8504946e-01	
   1.7215000e+01	   1.2541287e+00	   3.1436066e-01	
   1.7270000e+01	   1.2477247e+00	   4.0287653e-01	
   1.7325000e+01	   9.7309854e-01	   1.6421339e-01	
   1.7380000e+01	   1.0034759e+00	   6.6966934e-02	
   1.7435000e+01	   8.9873240e-01	   5.5666610e-02	
   1.7490000e+01	   6.6777160e-01	  -1.1459038e-02	
   1.7545000e+01	   1.1860423e+00	  -1.9556829e-03	
   1.7600000e+01	   6.0650982e-01	  -2.3255776e-01	
   1.7655000e+01	   4.6281465e-01	  -1.3477523e-01	
   1.7710000e+01	   1.0892292e+00	   4.9141380e-02	
   1.7765000e+01	   1.4673552e+00	   1.8775921e-01	
   1.7820000e+01	   1.2470529e+00	   2.1371287e-01	
   1.7875000e+01	   1.4070924e+00	   2.3759355e-01	
   1.7930000e+01	   1.1698583e+00	   2.7912024e-01	
   1.7985000e+01	   1.3731767e+00	   2.7821915e-01	
   1.8040000e+01	   1.2818748e+00	   3.0232081e-01	
   1.8095000e+01	   1.0221805e+00	   1.8439149e-01	
   1.8150000e+01	   1.0833433e+00	   2.3407205e-01	
   1.8205000e+01	   7.9618879e-01	   9.3492179e-02	
   1.8260000e+01	   6.8643695e-01	  -2.0379709e-02	
   1.8315000e+01	   6.4416743e-01	   1.6136639e-02	
   1.8370000e+01	   7.0904446e-01	  -6.6175191e-02	
   1.8425000e+01	   9.7289668e-01	   1.1965255e-02	
   1.8480000e+01	   1.3768800e-01	  -4.0925824e-01	
   1.8535000e+01	   5.5637572e-01	  -1.0775939e-01	
   1.8590000e+01	   9.9335569e-01	   9.1141705e-02	
   1.8645000e+01	   1.1682525e+00	   2.8844909e-01	
   1.8700000e+01	   1.2400566e+00	   1.1861045e-01	
   1.8755000e+01	   9.4377872e-01	   1.3013358e-01	
   1.8810000e+01	   1.1615471e+00	   3.6388824e-01	
   1.8865000e+01	   8.8900093e-01	   9.5540401e-02	
   1.8920000e+01	   9.0104247e-01	  -1.3210424e-02	
   1.8975000e+01	   7.9963920e-01	   6.6633517e-02	
   1.9030000e+01	   8.0168816e-01	   2.0996238e-01	
   1.9085000e+01	   1.0460472e+00	   1.5036550e-01	
   1.9140000e+01	   6.0595037e-01	  -9.6441828e-02	
   1.9195000e+01	   6.2113439e-01	  -9.9391189e-02	
   1.9250000e+01	   5.1993825e-01	  -3.6271941e-01	
   1.9305000e+01	   5.1600859e-01	  -2.8063999e-01	
   1.9360000e+01	   9.6815377e-01	  -9.0622503e-02	
   1.9415000e+01	   1.0514163e+00	  -7.1105970e-03	
   1.9470000e+01	   1.3682418e+00	   3.8686060e-01	
   1.9525000e+01	   1.4998884e+00	   7.1328957e-02	
   1.9580000e+01	   1.0570768e+00	   1.1916481e-01	
   1.9635000e+01	   8.8900093e-01	   1.2723836e-01	
   1.9690000e+01	   8.2372696e-01	   9.3172184e-02	
   1.9745000e+01	   5.3251923e-01	   5.7267608e-02	
   1.9800000e+01	   6.9606477e-01	  -2.0037201e-01	
   1.9855000e+01	   7.1262310e-01	  -1.2704609e-01	
   1.9910000e+01	   8.6711152e-01	   4.9631582e-02	
   1.9965000e+01	   8.5814715e-01	  -7.1867411e-02	
   2.0020000e+01	   5.4007263e-01	  -2.8065629e-01	
   2.0075000e+01	   4.7492574e-01	  -3.8392329e-01	
   2.0130000e+01	   8.7867782e-01	  -1.6381034e-01	
   2.0185000e+01	   9.8708009e-01	   1.7365555e-01	
   2.0240000e+01	   1.0323879e+00	  -7.4877359e-02	
   2.0295000e+01	   9.3546183e-01	   1.4240854e-01	
   2.0350000e+01	   1.0838524e+00	   5.1238124e-02	
   2.0405000e+01	   9.3324404e-01	   4.2803563e-02	
   2.0460000e+01	   8.3360204e-01	  -2.1351987e-01	
   2.0515000e+01	   7.8131686e-01	   3.2872900e-02	
   2.0570000e+01	   9.0656210e-01	  -4.5251131e-02	
   2.0625000e+01	   9.3233814e-01	   9.1277470e-02	
   2.0680000e+01	   6.4328404e-01	  -2.0345028e-01	
   2.0735000e+01	   4.1562812e-01	  -1.5565448e-01	
   2.0790000e+01	   7.6539764e-01	  -1.8918042e-01	
   2.0845000e+01	   1.1779101e+00	  -6.7847115e-02	
   2.0900000e+01	   9.0849885e-01	  -1.6306571e-01	
   2.0955000e+01	   1.0885060e+00	   9.0097348e-02	
   2.1010000e+01	   1.1768112e+00	   1.2230779e-01	
   2.1065000e+01	   1.2053695e+00	   8.4701349e-02	
   2.1120000e+01	   1.1225702e+00	   4.4693844e-02	
   2.1175000e+01	   9.6139069e-01	   8.5764859e-03	
   2.1230000e+01	   7.2238458e-01	  -1.1530129e-01	
   2.1285000e+01	   9.5319845e-01	  -1.3381809e-01	
   2.1340000e+01	   4.3169063e-01	  -2.5352923e-01	
   2.1395000e+01	   6.9848472e-01	  -3.7538170e-01	
   2.1450000e+01	   5.5476355e-01	  -1.7440608e-01	
   2.1505000e+01	   7.5272437e-01	  -1.8670758e-01	
   2.1560000e+01	   9.6873636e-01	  -1.4915573e-02	
   2.1615000e+01	   9.8626876e-01	  -1.8086641e-02	
   2.1670000e+01	   1.2786581e+00	   7.6554671e-02	
   2.1725000e+01	   1.0333361e+00	   7.2764458e-02	
   2.1780000e+01	   1.2160940e+00	  -1.4221722e-02	
   2.1835000e+01	   1.0094780e+00	  -4.0111538e-02	
   2.1890000e+01	   9.3542059e-01	  -8.2654011e-02	
   2.1945000e+01	   1.0155791e+00	  -4.8512446e-02	
   2.2000000e+01	   9.5968056e-01	  -1.7483733e-02	
   2.2055000e+01	   6.7423926e-01	  -2.1359655e-01	
   2.2110000e+01	   5.2439827e-01	  -3.6338550e-01	
   2.2165000e+01	   7.5224559e-01	  -2.2401729e-01	
   2.2220000e+01	   5.9744438e-01	  -3.1813423e-01	
   2.2275000e+01	   1.0427315e+00	  -4.3856875e-02	
   2.2330000e+01	   1.1673293e+00	  -9.1340312e-03	
   2.2385000e+01	   1.4802617e+00	   2.4317767e-01	
   2.2440000e+01	   1.1241740e+00	  -1.5396144e-01	
   2.2495000e+01	   8.5194814e-01	  -2.2825618e-01	
   2.2550000e+01	   1.0030249e+00	   5.0629873e-02	
   2.2605000e+01	   1.2857404e+00	   1.7934206e-01	
   2.2660000e+01	   8.8473447e-01	  -8.7757756e-02	
   2.2715000e+01	   7.7725587e-01	  -1.8723849e-01	
   2.2770000e+01	   1.0820858e+00	  -5.8358330e-02	
   2.2825000e+01	   7.8613458e-01	  -8.4661826e-02	
   2.2880000e+01	   5.2307294e-01	  -2.2246211e-01	
   2.2935000e+01	   5.3693985e-01	  -2.5773604e-01	
   2.2990000e+01	   5.8324056e-01	  -2.6486285e-01	
   2.3045000e+01	   8.6595620e-01	  -1.7942210e-01	
   2.3100000e+01	   1.0214818e+00	  -1.4773667e-01	
   2.3155000e+01	   1.1461576e+00	   2.2442863e-02	
   2.3210000e+01	   1.3389199e+00	   1.4484570e-01	
   2.3265000e+01	   1.0840094e+00	   1.5423554e-01	
   2.3320000e+01	   1.0005594e+00	  -7.6227642e-02	
   2.3375000e+01	   1.1344994e+00	   1.4864940e-01	
   2.3430000e+01	   1.0486995e+00	   1.2071157e-02	
   2.3485000e+01	   1.0360148e+00	  -1.0930743e-01	
   2.3540000e+01	   8.4544191e-01	  -1.4138741e-01	
   2.3595000e+01	   6.6344870e-01	  -2.0290659e-01	
   2.3650000e+01	   6.5167733e-01	  -1.2333053e-01	
   2.3705000e+01	   4.5622632e-01	  -1.8942780e-01	
   2.3760000e+01	   4.7818198e-01	  -2.5452857e-01	
   2.3815000e+01	   2.1432427e-01	  -4.6051976e-01	
   2.3870000e+01	   9.1862062e-01	  -6.3957812e-02	
   2.3925000e+01	   1.0614150e+00	   4.7571995e-02	
   2.3980000e+01	   1.4614579e+00	  -3.8322615e-02	
   2.4035000e+01	   1.0056196e+00	   4.4862905e-02	
   2.4090000e+01	   1.0030562e+00	   1.1514139e-01	
   2.4145000e+01	   1.2249044e+00	   2.2191582e-01	
   2.4200000e+01	   1.2355513e+00	   1.4031865e-02	
   2.4255000e+01	   9.1529355e-01	  -1.6431167e-01	
   2.4310000e+01	   7.3651499e-01	   2.3735844e-02	
   2.4365000e+01	   7.4986170e-01	   2.4982023e-02	
   2.4420000e+01	   8.3946236e-01	  -1.4812693e-01	
   2.4475000e+01	   7.9052395e-01	  -2.0846122e-01	
   2.4530000e+01	   7.0250362e-01	   3.0942801e-02	
   2.4585000e+01	   2.9048012e-01	  -3.0962550e-01	
   2.4640000e+01	   5.1621994e-01	  -3.9989677e-01	
   2.4695000e+01	   9.3932741e-01	  -2.3251128e-01	
   2.4750000e+01	   1.0265206e+00	   8.5723425e-03	
   2.4805000e+01	   1.5063611e+00	   6.4749182e-02	
   2.4860000e+01	   9.6356108e-01	  -3.6570281e-02	
   2.4915000e+01	   1.3036789e+00	   9.4205390e-02	
   2.4970000e+01	   9.9857389e-01	   2.1262541e-01	
   2.5025000e+01	   8.8633089e-01	  -4.6489994e-02	
   2.5080000e+01	   5.0729262e-01	  -2.1285492e-01	
   2.5135000e+01	   4.8808094e-01	  -2.2477281e-01	
   2.5190000e+01	   7.1151777e-01	   1.6204438e-02	
   2.5245000e+01	   6.5639945e-01	  -1.2869530e-01	
   2.5300000e+01	   5.2331923e-01	  -7.0267887e-02	
   2.5355000e+01	   5.5042035e-01	  -1.5268102e-01	
   2.5410000e+01	   5.2138962e-01	  -1.1971826e-01	
   2.5465000e+01	   8.4072083e-01	   8.3954024e-03	
   2.5520000e+01	   8.9323879e-01	  -2.2510451e-02	
   2.5575000e+01	   8.4423506e-01	  -1.9100898e-02	
   2.5630000e+01	   1.0634333e+00	   1.1138906e-01	
   2.5685000e+01	   1.0122157e+00	   2.7882234e-01	
   2.5740000e+01	   1.2277669e+00	   1.5697417e-01	
   2.5795000e+01	   7.1859330e-01	   2.3973457e-02	
   2.5850000e+01	   5.4664900e-01	  -9.2590218e-02	
   2.5905000e+01	   4.3357875e-01	  -2.6066244e-02	
   2.5960000e+01	   5.3372195e-01	  -2.4582627e-01	
   2.6015000e+01	   2.3431241e-01	  -2.7862403e-01	
   2.6070000e+01	   5.2639993e-01	  -6.3561608e-02	
   2.6125000e+01	   8.3885114e-01	   5.7746070e-02	
   2.6180000e+01	   9.0633629e-01	   1.4036308e-02	
   2.6235000e+01	   1.0795959e+00	   8.5658249e-02	
   2.6290000e+01	   9.6423765e-01	   1.8942606e-01	
   2.6345000e+01	   1.0325334e+00	   2.7446945e-01	
   2.6400000e+01	   1.0848980e+00	   1.1573145e-01	
   2.6455000e+01	   6.5187972e-01	  -7.3473126e-02	
   2.6510000e+01	   7.8055119e-01	   9.1571097e-02	
   2.6565000e+01	   6.7086146e-01	  -5.6853881e-03	
   2.6620000e+01	   9.7470913e-01	   1.3845651e-01	
   2.6675000e+01	   5.0386514e-01	   2.8967377e-03	
   2.6730000e+01	   6.4148760e-01	   1.1504565e-02	
   2.6785000e+01	   5.9694843e-01	  -7.7299650e-02	
   2.6840000e+01	   3.8561887e-01	  -1.2645182e-01	
   2.6895000e+01	   5.5732388e-02	  -3.1836893e-01	
   2.6950000e+01	   8.3545208e-01	   1.8091973e-03	
   2.7005000e+01	   1.2279380e+00	   2.3840362e-01	
   2.7060000e+01	   1.0173642e+00	   1.5934607e-01	
   2.7115000e+01	   9.5782331e-01	   2.5596207e-01	
   2.7170000e+01	   9.8378039e-01	   2.9662057e-01	
   2.7225000e+01	   1.0699663e+00	   3.8222118e-01	
   2.7280000e+01	   1.2490598e+00	   3.3594621e-01	
   2.7335000e+01	   7.2256829e-01	   1.0490978e-01	
   2.7390000e+01	   6.8160053e-01	   5.9162380e-02	
   2.7445000e+01	   8.4537948e-01	   1.8625208e-01	
   2.7500000e+01	   7.5787477e-01	   4.0268101e-02	
   2.7555000e+01	   5.6289593e-01	   9.5212938e-02	
   2.7610000e+01	   2.4903939e-01	  -1.0147052e-01	
   2.7665000e+01	   4.3696995e-01	  -9.7880366e-02	
   2.7720000e+01	   2.3111011e-01	  -1.3984895e-01	
   2.7775000e+01	   1.4254852e-01	  -1.4097156e-01	
   2.7830000e+01	   5.7691379e-01	   1.2194722e-01	
   2.7885000e+01	   8.6985926e-01	   9.0010420e-02	
   2.7940000e+01	   9.0766017e-01	   1.9829165e-01	
   2.7995000e+01	   7.8676762e-01	   2.2619122e-03	
   2.8050000e+01	   9.4734306e-01	   2.3365569e-01	
   2.8105000e+01	   9.3754023e-01	   2.1404549e-01	
   2.8160000e+01	   9.4054617e-01	   2.5792754e-01	
   2.8215000e+01	   7.2156280e-01	   1.5034680e-01	
   2.8270000e+01	   7.0316408e-01	   1.3396911e-01	
   2.8325000e+01	   8.4238322e-01	   2.2727471e-01	
   2.8380000e+01	   7.6135897e-01	   1.0181724e-02	
   2.8435000e+01	   1.0136556e-01	  -1.4870308e-01	
   2.8490000e+01	   1.2855676e-01	  -1.1729964e-01	
   2.8545000e+01	   3.6187331e-01	  -1.3311510e-01	
   2.8600000e+01	   4.0188954e-01	  -2.2635160e-01	
   2.8655000e+01	  -9.6188515e-02	  -4.1332831e-01	
   2.8710000e+01	   7.2587949e-01	   1.1428907e-01	
   2.8765000e+01	   5.3851240e-01	   1.4294162e-01	
   2.8820000e+01	   7.3058934e-01	   3.5395497e-03	
   2.8875000e+01	   5.9544632e-01	  -1.6009229e-02	
   2.8930000e+01	   1.2075192e+00	   3.3218744e-01	
   2.8985000e+01	   9.4806046e-01	   1.1648455e-01	
   2.9040000e+01	   9.3966239e-01	   7.5767044e-02	
   2.9095000e+01	   7.4710390e-01	   5.6848218e-02	
   2.9150000e+01	   8.6872121e-01	   1.0567498e-01	
   2.9205000e+01	   4.9446142e-01	   6.3355678e-02	
   2.9260000e+01	   4.1916690e-01	  -1.4627318e-01	
   2.9315000e+01	   4.4751197e-01	  -9.4304999e-02	
   2.9370000e+01	   1.4338846e-01	  -7.2097662e-02	
   2.9425000e+01	   2.3790550e-01	  -1.0568052e-01	
   2.9480000e+01	   5.1714834e-01	  -1.5942240e-01	
   2.9535000e+01	   4.4585481e-01	  -1.4706190e-01	
   2.9590000e+01	   8.1964749e-01	   1.2827456e-01	
   2.9645000e+01	   9.2974876e-01	   1.9328335e-01	
   2.9700000e+01	   5.2187768e-01	  -5.3017350e-02	
   2.9755000e+01	   7.1220147e-01	   1.1432350e-01	
   2.9810000e+01	   6.7933852e-01	   1.7690977e-01	
   2.9865000e+01	   8.0251962e-01	   5.4660331e-02	
   2.9920000e+01	   4.7462923e-01	  -1.4321197e-01	
   2.9975000e+01	   3.7795309e-01	  -3.0844976e-01	
   3.0030000e+01	   2.0270761e-01	  -2.5660148e-01	
   3.0085000e+01	   1.5455816e-01	  -1.7454515e-01	
   3.0140000e+01	   3.6653209e-01	  -2.3274989e-01	
   3.0195000e+01	   2.9553822e-01	  -3.3119083e-01	
   3.0250000e+01	   6.0966844e-01	  -6.7698558e-02	
   3.0305000e+01	   6.9422792e-01	   2.1874267e-02	
   3.0360000e+01	   5.9290519e-01	  -1.2423257e-01	
   3.0415000e+01	   7.1847457e-01	  -1.6501240e-01	
   3.0470000e+01	   9.1657857e-01	  -8.5785814e-02	
   3.0525000e+01	   7.4523037e-01	   8.4642698e-02	
   3.0580000e+01	   5.6274641e-01	   2.3419878e-02	
   3.0635000e+01	   4.2430685e-01	  -1.3596291e-01	
   3.0690000e+01	   5.2104851e-01	  -7.6735324e-02	
   3.0745000e+01	   6.6075921e-01	  -1.2294567e-01	
   3.0800000e+01	   3.2910878e-01	  -2.7478376e-01	
   3.0855000e+01	   2.6186231e-01	  -3.8487214e-01	
   3.0910000e+01	   2.4440715e-01	  -2.5907299e-01	
   3.0965000e+01	   3.2491192e-01	  -4.1687689e-01	
   3.1020000e+01	   5.4107590e-01	  -2.3908270e-01	
   3.1075000e+01	   7.3335556e-01	  -1.8885953e-01	
   3.1130000e+01	   8.4774019e-01	   7.2888358e-02	
   3.1185000e+01	   1.0768574e+00	   3.8448426e-02	
   3.1240000e+01	   1.1418486e+00	   2.3190098e-01	
   3.1295000e+01	   8.1958887e-01	  -6.8106594e-02	
   3.1350000e+01	   8.6034362e-01	   1.7350680e-02	
   3.1405000e+01	   6.4696320e-01	  -5.9984795e-02	
   3.1460000e+01	   4.7079614e-01	   4.2013863e-02	
   3.1515000e+01	   7.5145240e-01	  -2.2055637e-01	
   3.1570000e+01	   6.8886112e-01	  -3.4731514e-02	
   3.1625000e+01	   3.2454884e-01	  -2.1952976e-01	
   3.1680000e+01	   6.7614506e-01	  -1.4336146e-01	
   3.1735000e+01	   2.0205286e-01	  -4.2706333e-01	
   3.1790000e+01	   2.1751552e-01	  -4.2056935e-01	
   3.1845000e+01	   3.7891516e-01	  -3.3090459e-01	
   3.1900000e+01	   3.8337843e-01	  -2.3941009e-01	
   3.1955000e+01	   7.0917768e-01	  -2.5921587e-01	
   3.2010000e+01	   8.2812942e-01	  -1.3010514e-01	
   3.2065000e+01	   7.4327032e-01	   1.4946897e-01	
   3.2120000e+01	   1.0071065e+00	   7.6474978e-02	
   3.2175000e+01	   6.9776527e-01	   7.0061315e-02	
   3.2230000e+01	   1.1469590e+00	   1.7640666e-01	
   3.2285000e+01	   8.1671485e-01	   1.7665180e-01	
   3.2340000e+01	   8.9245801e-01	   6.3193781e-02	
   3.2395000e+01	   8.4810280e-01	  -1.7075536e-04	
   3.2450000e+01	   5.9159174e-01	  -1.0673486e-02	
   3.2505000e+01	   7.3431988e-01	   1.6223561e-01	
   3.2560000e+01	   6.3874774e-01	  -1.9849847e-01	
   3.2615000e+01	   2.8795625e-01	  -1.7375789e-01	
   3.2670000e+01	   3.8394602e-01	  -1.6529360e-01	
   3.2725000e+01	   3.1805885e-01	  -1.7791354e-01	
   3.2780000e+01	   4.4875182e-01	  -1.8027481e-01	
   3.2835000e+01	   1.3291462e-01	  -3.6116702e-01	
   3.2890000e+01	   6.4340055e-01	  -1.5089970e-01	
   3.2945000e+01	   8.3456578e-01	  -7.7925367e-03	
   3.3000000e+01	   1.0753336e+00	   8.8550232e-02	
   3.3055000e+01	   9.1103085e-01	   2.3729979e-01	
   3.3110000e+01	   1.1146651e+00	   1.5238900e-01	
   3.3165000e+01	   1.1572606e+00	   6.1385571e-02	
   3.3220000e+01	   1.1497844e+00	   1.5676236e-01	
   3.3275000e+01	   1.1053259e+00	   7.3157697e-02	
   3.3330000e+01	   6.4993136e-01	  -1.3144443e-01	
   3.3385000e+01	   7.7828767e-01	   3.7703658e-02	
   3.3440000e+01	   7.1250427e-01	  -7.9592833e-02	
   3.3495000e+01	   7.0699855e-01	  -1.4846048e-01	
   3.3550000e+01	   3.7762234e-01	  -2.4103011e-01	
   3.3605000e+01	   3.8960413e-01	  -2.2795904e-01	
   3.3660000e+01	   1.5297677e-01	  -2.7020794e-01	
   3.3715000e+01	  -1.2799964e-01	  -5.4263300e-01	
   3.3770000e+01	   2.6853465e-01	  -3.3105863e-01	
   3.3825000e+01	   7.7764025e-01	   8.5881672e-03	
   3.3880000e+01	   9.3118672e-01	   1.9498310e-01	
   3.3935000e+01	   1.1502856e+00	   5.6373023e-04	
   3.3990000e+01	   5.1634538e-01	  -1.9246643e-02	
   3.4045000e+01	   1.2538242e+00	   2.9193731e-01	
   3.4100000e+01	   7.8131686e-01	   3.9368699e-02	
   3.4155000e+01	   6.6983439e-01	  -4.0492494e-02	
   3.4210000e+01	   7.9909909e-01	   4.3590899e-02	
   3.4265000e+01	   6.7619650e-01	  -6.7669008e-02	
   3.4320000e+01	   6.9703330e-01	   7.8864542e-02	
   3.4375000e+01	   8.4804975e-01	  -1.1907618e-01	
   3.4430000e+01	   4.5415559e-01	  -1.6701062e-01	
   3.4485000e+01	   3.6452099e-01	  -2.0172263e-01	
   3.4540000e+01	   6.3017805e-02	  -3.8652461e-01	
   3.4595000e+01	   1.0656412e-01	  -4.4234082e-01	
   3.4650000e+01	   1.8805278e-01	  -4.1765250e-01	
   3.4705000e+01	   6.8973476e-01	  -7.0330201e-02	
   3.4760000e+01	   9.9416438e-01	  -1.0680058e-03	
   3.4815000e+01	   7.4942992e-01	  -2.9712609e-02	
   3.4870000e+01	   6.9629250e-01	  -1.2998246e-01	
   3.4925000e+01	   1.1144136e+00	   4.1228621e-02	
   3.4980000e+01	   7.4729665e-01	   6.4938039e-02	
   3.5035000e+01	   7.9859182e-01	   5.1926669e-02	
   3.5090000e+01	   3.5404211e-01	  -1.3003333e-01	
   3.5145000e+01	   7.7177374e-01	  -1.4626411e-01	
   3.5200000e+01	   4.1974470e-01	  -1.5103614e-01	
   3.5255000e+01	   6.2799537e-01	  -1.8816528e-01	
   3.5310000e+01	  -2.0440540e-01	  -4.8994484e-01	
   3.5365000e+01	  -2.4273300e-02	  -3.3587095e-01	
   3.5420000e+01	  -2.8906001e-02	  -4.1429066e-01	
   3.5475000e+01	   4.1029099e-01	  -2.0343743e-01	
   3.5530000e+01	   5.1617392e-01	  -1.9912018e-01	
   3.5585000e+01	   8.2118801e-01	   1.3318232e-01	
   3.5640000e+01	   1.0357701e+00	   1.8337558e-01	
   3.5695000e+01	   8.0678201e-01	  -1.8336831e-02	
   3.5750000e+01	   8.0252916e-01	  -7.3267564e-02	
   3.5805000e+01	   1.1495502e+00	   1.7071008e-01	
   3.5860000e+01	   5.2875378e-01	  -2.0462019e-02	
   3.5915000e+01	   4.6144165e-01	  -1.4463679e-01	
   3.5970000e+01	   3.1925331e-01	  -1.8726974e-01	
   3.6025000e+01	   2.7796308e-01	  -2.5900330e-01	
   3.6080000e+01	   4.4991078e-01	  -1.4741878e-01	
   3.6135000e+01	   1.3291462e-01	  -2.2374949e-01	
   3.6190000e+01	   4.4949664e-02	  -4.0772897e-01	
   3.6245000e+01	   9.4212420e-02	  -2.7195190e-01	
   3.6300000e+01	   7.4068898e-01	  -1.4495709e-01	
   3.6355000e+01	   5.8717788e-01	  -2.1440818e-01	
   3.6410000e+01	   7.7278890e-01	  -3.5845783e-02	
   3.6465000e+01	   5.6348713e-01	   5.6681685e-02	
   3.6520000e+01	   1.0262410e+00	   1.8483243e-01	
   3.6575000e+01	   8.7093060e-01	   4.0108917e-02	
   3.6630000e+01	   6.5146343e-01	  -5.1443644e-02	
   3.6685000e+01	   8.2821086e-01	  -1.0113343e-03	
   3.6740000e+01	   8.8063332e-01	   3.1762800e-02	
   3.6795000e+01	   5.5251689e-01	  -4.7947658e-02	
   3.6850000e+01	   6.1491710e-01	  -2.6426559e-01	
   3.6905000e+01	   3.0636818e-01	  -2.1044141e-01	
   3.6960000e+01	   5.7591118e-01	  -7.5129114e-02	
   3.7015000e+01	   3.6428447e-01	  -2.2669638e-01	
   3.7070000e+01	   3.8050296e-01	  -3.3126660e-01	
   3.7125000e+01	   5.0704372e-01	  -1.1793982e-01	
   3.7180000e+01	   8.5825599e-01	  -2.0862154e-02	
   3.7235000e+01	   9.9016745e-01	   2.7301663e-01	
   3.7290000e+01	   7.4764661e-01	   1.2455109e-02	
   3.7345000e+01	   9.5566492e-01	   2.1816484e-01	
   3.7400000e+01	   8.9736162e-01	   2.1672185e-01	
   3.7455000e+01	   1.1806224e+00	   2.1386617e-01	
   3.7510000e+01	   7.9307316e-01	   6.0544049e-04	
   3.7565000e+01	   7.9313140e-01	  -6.4033990e-03	
   3.7620000e+01	   9.9791033e-01	   1.4484462e-01	
   3.7675000e+01	   9.2309163e-01	   1.4530388e-02	
   3.7730000e+01	   5.2330893e-01	  -7.7719412e-02	
   3.7785000e+01	   4.9504395e-01	  -1.1697368e-01	
   3.7840000e+01	   5.2745193e-01	  -5.9721684e-02	
   3.7895000e+01	   6.4091371e-01	  -1.6586367e-01	
   3.7950000e+01	   9.4202752e-01	   1.0755164e-01	
   3.8005000e+01	   9.2122148e-01	   2.6382798e-01	
   3.8060000e+01	   1.4572323e+00	   3.9966011e-01	
   3.8115000e+01	   1.1467420e+00	   2.7351946e-01	
   3.8170000e+01	   9.3094438e-01	   1.2187713e-01	
   3.8225000e+01	   1.0323828e+00	   2.4935111e-01	
   3.8280000e+01	   1.1937905e+00	   2.5046712e-01	
   3.8335000e+01	   8.6796185e-01	   7.0540029e-02	
   3.8390000e+01	   7.9943586e-01	   7.1947912e-02	
   3.8445000e+01	   7.2220229e-01	   1.1978083e-01	
   3.8500000e+01	   3.8057906e-01	   3.6776052e-02	
   3.8555000e+01	   7.4164672e-01	   8.5511588e-02	
   3.8610000e+01	   4.6247631e-01	  -9.7355153e-02	
   3.8665000e+01	   5.9921913e-01	  -1.9970556e-01	
   3.8720000e+01	   6.0012363e-01	   6.1920888e-02	
   3.8775000e+01	   1.0285381e+00	   2.2010473e-01	
   3.8830000e+01	   1.0463115e+00	   2.2444780e-01	
   3.8885000e+01	   8.9015080e-01	   1.4992572e-01	
   3.8940000e+01	   1.0672274e+00	   3.1208427e-01	
   3.8995000e+01	   1.2867154e+00	   3.4403811e-01	
   3.9050000e+01	   9.7470913e-01	   2.3311571e-01	
   3.9105000e+01	   8.7330708e-01	  -1.3240397e-01	
   3.9160000e+01	   7.8799473e-01	   2.6723932e-01	
   3.9215000e+01	   1.0029099e+00	   1.7156559e-01	
   3.9270000e+01	   5.5910410e-01	   6.8585734e-02	
   3.9325000e+01	   5.7292515e-01	  -3.8769446e-02	
   3.9380000e+01	   8.3182740e-01	   5.7648441e-02	
   3.9435000e+01	   4.3330202e-01	  -7.7807133e-02	
   3.9490000e+01	   5.0084713e-01	  -1.9714335e-02	
   3.9545000e+01	   9.5052095e-01	   1.5065740e-01	
   3.9600000e+01	   1.1515241e+00	   2.7530598e-01	
   3.9655000e+01	   1.3436500e+00	   2.8932382e-01	
   3.9710000e+01	   1.3099973e+00	   2.9793828e-01	
   3.9765000e+01	   9.2530069e-01	   2.0101652e-01	
   3.9820000e+01	   1.0040450e+00	   7.8530762e-02	
   3.9875000e+01	   1.0050716e+00	   9.9385598e-02	
   3.9930000e+01	   7.9048476e-01	   1.2833888e-01	
   3.9985000e+01	   9.1596605e-01	   2.9070062e-02	
   4.0040000e+01	   9.3197054e-01	   7.1248999e-02	
   4.0095000e+01	   8.3304415e-01	  -3.1664553e-02	
   4.0150000e+01	   5.9986141e-01	  -3.7214069e-02	
   4.0205000e+01	   6.0255382e-01	  -7.0870320e-02	
   4.0260000e+01	   9.2877764e-01	   9.8327445e-02	
   4.0315000e+01	   1.3510671e+00	   4.3335675e-01	
   4.0370000e+01	   1.0283199e+00	   1.3529004e-01	
   4.0425000e+01	   1.1641520e+00	   1.6423967e-01	
   4.0480000e+01	   1.5944627e+00	   4.5538186e-01	
   4.0535000e+01	   1.5175761e+00	   4.0777743e-01	
   4.0590000e+01	   1.2410760e+00	   2.7517653e-01	
   4.0645000e+01	   9.8402905e-01	   1.0868462e-01	
   4.0700000e+01	   1.5170607e+00	   4.1887498e-01	
   4.0755000e+01	   1.2405067e+00	   1.7579631e-01	
   4.0810000e+01	   8.2025412e-01	   8.7710227e-03	
   4.0865000e+01	   5.4194141e-01	   4.7922941e-03	
   4.0920000e+01	   9.9186271e-01	   2.2088214e-01	
   4.0975000e+01	   1.0690020e+00	  -5.0417737e-02	
   4.1030000e+01	   8.8708064e-01	  -1.3952049e-01	
   4.1085000e+01	   1.4617784e+00	   2.5068046e-01	
   4.1140000e+01	   1.5513302e+00	   4.2294795e-01	
   4.1195000e+01	   1.9953107e+00	   4.9502315e-01	
   4.1250000e+01	   1.4934247e+00	   3.0742490e-01	
   4.1305000e+01	   1.5739360e+00	   2.4113149e-01	
   4.1360000e+01	   1.7459317e+00	   4.5672941e-01	
   4.1415000e+01	   1.3590699e+00	   2.5722542e-01	
   4.1470000e+01	   1.3459258e+00	   2.3553362e-01	
   4.1525000e+01	   1.2773520e+00	   1.9664988e-02	
   4.1580000e+01	   1.5947954e+00	   2.0106431e-01	
   4.1635000e+01	   1.5557186e+00	   2.6459715e-01	
   4.1690000e+01	   1.1899653e+00	  -5.3364938e-02	
   4.1745000e+01	   1.4252532e+00	   1.1829960e-03	
   4.1800000e+01	   1.2549622e+00	   1.3260447e-01	
   4.1855000e+01	   1.2260485e+00	  -1.1000664e-02	
   4.1910000e+01	   1.2998628e+00	  -9.9575531e-02	
   4.1965000e+01	   1.8237141e+00	   1.7170679e-01	
   4.2020000e+01	   1.8306487e+00	   3.4393420e-01	
   4.2075000e+01	   1.9053275e+00	   3.5115254e-01	
   4.2130000e+01	   1.5065049e+00	   2.3923542e-01	
   4.2185000e+01	   2.0643457e+00	   4.2370348e-01	
   4.2240000e+01	   1.8898296e+00	   4.8500311e-01	
   4.2295000e+01	   1.9609713e+00	   3.8987554e-01	
   4.2350000e+01	   1.4752855e+00	   2.4348749e-01	
   4.2405000e+01	   1.2877042e+00	   5.6128302e-02	
   4.2460000e+01	   1.6434369e+00	   1.3858894e-01	
   4.2515000e+01	   1.6347920e+00	   1.4601012e-01	
   4.2570000e+01	   1.1564594e+00	  -1.8206808e-01	
   4.2625000e+01	   1.2064510e+00	   3.2236118e-02	
   4.2680000e+01	   9.5832214e-01	  -1.3209249e-01	
   4.2735000e+01	   1.3236558e+00	   3.3769140e-02	
   4.2790000e+01	   1.6247967e+00	   2.9507427e-01	
   4.2845000e+01	   1.3300751e+00	  -1.6854189e-02	
   4.2900000e+01	   1.7509199e+00	   2.6993110e-01	
   4.2955000e+01	   1.6329895e+00	   1.4675187e-01	
   4.3010000e+01	   1.8452409e+00	   1.3450316e-01	
   4.3065000e+01	   1.4698450e+00	   1.3301435e-01	
   4.3120000e+01	   1.4875576e+00	   2.6770014e-01	
   4.3175000e+01	   1.4478148e+00	   9.9654510e-02	
   4.3230000e+01	   1.2552244e+00	  -1.1633062e-02	
   4.3285000e+01	   1.1972941e+00	  -8.0652700e-02	
   4.3340000e+01	   1.0044072e+00	  -6.0260361e-02	
   4.3395000e+01	   1.2607855e+00	  -8.9662742e-03	
   4.3450000e+01	   8.1028429e-01	  -2.1717478e-01	
   4.3505000e+01	   8.4951004e-01	  -1.1873084e-01	
   4.3560000e+01	   1.3336386e+00	   1.5251023e-01	
   4.3615000e+01	   1.4928054e+00	   1.0975486e-01	
   4.3670000e+01	   1.4644254e+00	  -1.5288957e-02	
   4.3725000e+01	   1.1745870e+00	  -6.5450961e-02	
   4.3780000e+01	   1.3771624e+00	   1.9666504e-01	
   4.3835000e+01	   1.3161498e+00	   4.2251654e-02	
   4.3890000e+01	   1.5860011e+00	   7.7310186e-02	
   4.3945000e+01	   1.2104342e+00	   1.3017861e-01	
   4.4000000e+01	   1.1686459e+00	  -1.6046673e-01	
   4.4055000e+01	   1.0815338e+00	  -1.0133070e-01	
   4.4110000e+01	   1.0654787e+00	  -1.5135673e-01	
   4.4165000e+01	   9.1780179e-01	  -2.5673656e-01	
   4.4220000e+01	   1.0732320e+00	  -2.9993438e-01	
   4.4275000e+01	   7.6075774e-01	  -3.8991701e-01	
   4.4330000e+01	   1.3407713e+00	  -1.1139104e-01	
   4.4385000e+01	   1.4649172e+00	   1.5508614e-02	
   4.4440000e+01	   1.2144918e+00	   4.8695393e-02	
   4.4495000e+01	   1.5286616e+00	   2.2092646e-01	
   4.4550000e+01	   1.6795040e+00	   2.2277575e-01	
   4.4605000e+01	   1.5462012e+00	   3.2598867e-02	
   4.4660000e+01	   1.3949405e+00	   1.9430592e-01	
   4.4715000e+01	   1.6013974e+00	   2.0385913e-01	
   4.4770000e+01	   1.4625376e+00	   1.1119850e-01	
   4.4825000e+01	   8.8130406e-01	  -2.1560856e-01	
   4.4880000e+01	   7.6531169e-01	  -6.7735371e-02	
   4.4935000e+01	   8.7947914e-01	  -1.1742419e-01	
   4.4990000e+01	   1.0873527e+00	  -1.9365714e-01	
   4.5045000e+01	   4.5947796e-01	  -3.9530836e-01	
   4.5100000e+01	   6.2482988e-01	  -2.7466845e-01	
   4.5155000e+01	   1.1664392e+00	  -3.7956067e-02	
   4.5210000e+01	   1.5863692e+00	   1.7006396e-01	
   4.5265000e+01	   1.1747501e+00	   1.8658293e-02	
   4.5320000e+01	   1.4972101e+00	   8.8273276e-02	
   4.5375000e+01	   1.4947371e+00	   1.3656280e-01	
   4.5430000e+01	   1.6567502e+00	   1.5024292e-01	
   4.5485000e+01	   1.1278734e+00	   2.0901725e-01	
   4.5540000e+01	   1.1246817e+00	  -2.7273991e-02	
   4.5595000e+01	   8.2297226e-01	  -1.1726628e-01	
   4.5650000e+01	   8.5638454e-01	   1.1447904e-02	
   4.5705000e+01	   1.0093159e+00	  -1.2022625e-01	
   4.5760000e+01	   6.6738750e-01	  -1.6381418e-01	
   4.5815000e+01	   9.8516909e-01	  -1.2166239e-01	
   4.5870000e+01	   9.2696882e-01	  -2.1700512e-01	
   4.5925000e+01	   6.9265768e-01	  -2.8525353e-01	
   4.5980000e+01	   9.9960094e-01	  -2.4734696e-01	
   4.6035000e+01	   1.3543324e+00	   1.0408843e-01	
   4.6090000e+01	   1.4951167e+00	   2.2562864e-01	
   4.6145000e+01	   1.4065802e+00	   8.4887514e-02	
   4.6200000e+01	   1.2799169e+00	   3.2854271e-02	
   4.6255000e+01	   1.4862260e+00	   1.9621671e-01	
   4.6310000e+01	   1.3457079e+00	   1.7366339e-01	
   4.6365000e+01	   1.1837515e+00	  -1.3218652e-01	
   4.6420000e+01	   1.0529152e+00	  -4.9901866e-02	
   4.6475000e+01	   1.0055854e+00	  -7.8955710e-02	
   4.6530000e+01	   1.0931762e+00	  -4.5113183e-02	
   4.6585000e+01	   1.0003181e+00	  -2.1606181e-01	
   4.6640000e+01	   5.2856956e-01	  -2.2311670e-01	
   4.6695000e+01	   7.1983458e-01	  -1.6953377e-01	
   4.6750000e+01	   7.7309929e-01	  -3.4768723e-01	
   4.6805000e+01	   1.2501484e+00	  -4.8934726e-02	
   4.6860000e+01	   1.0190865e+00	  -6.1999213e-02	
   4.6915000e+01	   1.3439904e+00	   1.8863949e-01	
   4.6970000e+01	   1.2880943e+00	   8.4123561e-02	
   4.7025000e+01	   1.3579566e+00	   8.0962670e-02	
   4.7080000e+01	   1.2485575e+00	   3.9704143e-03	
   4.7135000e+01	   9.5494341e-01	   7.1512162e-02	
   4.7190000e+01	   1.0483978e+00	  -4.1445873e-02	
   4.7245000e+01	   8.3246020e-01	  -2.6870218e-01	
   4.7300000e+01	   9.1092504e-01	  -2.4057142e-01	
   4.7355000e+01	   7.0853029e-01	  -1.9902127e-01	
   4.7410000e+01	   5.0568851e-01	  -1.5296424e-01	
   4.7465000e+01	   7.6903998e-01	  -2.9832783e-01	
   4.7520000e+01	   4.1453962e-01	  -4.8978662e-01	
   4.7575000e+01	   5.5072739e-01	  -2.6320162e-01	
   4.7630000e+01	   7.6067229e-01	  -9.6983062e-02	
   4.7685000e+01	   1.0536177e+00	  -1.6962531e-01	
   4.7740000e+01	   1.1302393e+00	   5.0640912e-02	
   4.7795000e+01	   1.2593980e+00	   5.3156204e-02	
   4.7850000e+01	   1.3583968e+00	  -5.9255063e-04	
   4.7905000e+01	   9.4553101e-01	  -1.2573822e-01	
   4.7960000e+01	   1.1019387e+00	  -1.4045563e-01	
   4.8015000e+01	   5.9913056e-01	  -4.7228098e-02	
   4.8070000e+01	   8.9336318e-01	  -1.1383902e-01	
   4.8125000e+01	   6.6656225e-01	  -1.8135741e-01	
   4.8180000e+01	   4.3330202e-01	  -2.0339208e-01	
   4.8235000e+01	   3.3733887e-01	  -4.5240039e-01	
   4.8290000e+01	   3.5868400e-01	  -2.8327164e-01	
   4.8345000e+01	   4.7315749e-01	  -2.8265254e-01	
   4.8400000e+01	   5.9460652e-01	  -2.5532613e-01	
   4.8455000e+01	   1.0027302e+00	  -1.2918063e-01	
   4.8510000e+01	   1.1282499e+00	   2.0531222e-02	
   4.8565000e+01	   7.6779255e-01	  -1.1377836e-01	
   4.8620000e+01	   9.5435178e-01	  -8.7506558e-02	
   4.8675000e+01	   1.0951242e+00	  -6.8974585e-02	
   4.8730000e+01	   1.0170796e+00	   1.1470791e-01	
   4.8785000e+01	   8.9241020e-01	  -4.1590096e-02	
   4.8840000e+01	   6.2026687e-01	  -2.0243728e-01	
   4.8895000e+01	   8.2436463e-01	  -2.2123211e-01	
   4.8950000e+01	   6.5011001e-01	  -1.3984202e-01	
   4.9005000e+01	   7.3510736e-01	  -3.2106050e-01	
   4.9060000e+01	   4.4357686e-01	  -4.5403075e-01	
   4.9115000e+01	   2.3946830e-01	  -4.5884858e-01	
   4.9170000e+01	   9.1690512e-01	  -2.6127341e-01	
   4.9225000e+01	   1.0812089e+00	   6.1996169e-02	
   4.9280000e+01	   1.4530718e+00	  -2.2144634e-02	
   4.9335000e+01	   1.4495919e+00	   2.2559717e-01	
   4.9390000e+01	   1.0391009e+00	   1.7186334e-01	
   4.9445000e+01	   1.4579631e+00	   1.5372769e-01	
   4.9500000e+01	   1.2627662e+00	   9.5991165e-02	
   4.9555000e+01	   1.2026054e+00	   2.2046935e-01	
   4.9610000e+01	   1.1424135e+00	   8.0420816e-02	
   4.9665000e+01	   1.0117331e+00	  -2.7132672e-02	
   4.9720000e+01	   4.3039433e-01	  -2.5011297e-01	
   4.9775000e+01	   8.3624279e-01	  -1.7370364e-01	
   4.9830000e+01	   6.6520987e-01	  -4.4996369e-02	
   4.9885000e+01	   5.5119226e-01	  -2.1453072e-01	
   4.9940000e+01	   6.5433019e-01	  -3.5157551e-01	
   4.9995000e+01	   1.2068354e+00	  -1.1250579e-01	
   5.0050000e+01	   1.5004823e+00	   2.3138639e-01	
   5.0105000e+01	   1.5077953e+00	   3.7064670e-01	
   5.0160000e+01	   1.2898926e+00	   1.0156793e-01	
   5.0215000e+01	   1.1534472e+00	   2.2493705e-01	
   5.0270000e+01	   1.5612259e+00	   3.6341294e-01	
   5.0325000e+01	   1.2241358e+00	   1.6925640e-01	
   5.0380000e+01	   1.1328252e+00	   1.6021225e-01	
   5.0435000e+01	   1.5708448e+00	   2.8672926e-01	
   5.0490000e+01	   1.5341082e+00	   2.7547985e-01	
   5.0545000e+01	   1.0535514e+00	   1.7580382e-01	
   5.0600000e+01	   8.3901113e-01	   4.1720536e-02	
   5.0655000e+01	   1.0748677e+00	  -5.5273046e-02	
   5.0710000e+01	   1.0801735e+00	   2.8974651e-02	
   5.0765000e+01	   1.3686044e+00	   2.8982316e-02	
   5.0820000e+01	   1.4885490e+00	   2.3562866e-01	
   5.0875000e+01	   1.4524136e+00	   2.1424709e-01	
   5.0930000e+01	   1.6550819e+00	   4.2408104e-01	
   5.0985000e+01	   1.5070977e+00	   5.8562401e-01	
   5.1040000e+01	   1.5218046e+00	   2.2852894e-01	
   5.1095000e+01	   1.5512193e+00	   3.4260948e-01	
   5.1150000e+01	   1.5518700e+00	   4.1401738e-01	
   5.1205000e+01	   1.1087478e+00	   1.8278696e-01	
   5.1260000e+01	   1.3342690e+00	   2.3743143e-01	
   5.1315000e+01	   1.2597959e+00	   1.5040525e-01	
   5.1370000e+01	   1.2930823e+00	   2.4694602e-01	
   5.1425000e+01	   1.3136308e+00	   1.7800933e-01	
   5.1480000e+01	   8.6735883e-01	  -2.4395640e-02	
   5.1535000e+01	   9.6440728e-01	  -5.7114399e-02	
   5.1590000e+01	   1.6921524e+00	   4.2492632e-01	
   5.1645000e+01	   1.9575629e+00	   4.3411006e-01	
   5.1700000e+01	   1.4498446e+00	   2.2491845e-01	
   5.1755000e+01	   1.4526561e+00	   2.2173215e-01	
   5.1810000e+01	   1.4451814e+00	   4.2982944e-01	
   5.1865000e+01	   1.7272941e+00	   4.6554378e-01	
   5.1920000e+01	   1.3554332e+00	   2.6852100e-01	
   5.1975000e+01	   1.6025677e+00	   2.5230113e-01	
   5.2030000e+01	   1.4768686e+00	   3.9592101e-01	
   5.2085000e+01	   1.6659216e+00	   3.8437090e-01	
   5.2140000e+01	   1.2891411e+00	   1.7318561e-01	
   5.2195000e+01	   8.4833390e-01	   3.3136769e-02	
   5.2250000e+01	   1.1418059e+00	   1.3692048e-01	
   5.2305000e+01	   1.2619593e+00	   2.0959246e-01	
   5.2360000e+01	   1.4671677e+00	   8.8190746e-02	
   5.2415000e+01	   1.3333072e+00	   3.3903972e-01	
   5.2470000e+01	   1.6270596e+00	   4.9467094e-01	
   5.2525000e+01	   1.7247122e+00	   5.4811286e-01	
   5.2580000e+01	   1.8587170e+00	   2.8174439e-01	
   5.2635000e+01	   1.4442505e+00	   3.5014033e-01	
   5.2690000e+01	   1.6966462e+00	   4.9259538e-01	
   5.2745000e+01	   1.6093517e+00	   3.9539180e-01	
   5.2800000e+01	   8.4212119e-01	   1.4052264e-01	
   5.2855000e+01	   1.1640472e+00	   3.5355721e-02	
   5.2910000e+01	   1.2878323e+00	   2.5191205e-01	
   5.2965000e+01	   1.5687930e+00	   1.8797641e-01	
   5.3020000e+01	   1.0380188e+00	   1.3086685e-01	
   5.3075000e+01	   1.0916719e+00	   6.6431931e-02	
   5.3130000e+01	   1.0125261e+00	  -7.1417104e-02	
   5.3185000e+01	   1.6245235e+00	   2.2957265e-01	
   5.3240000e+01	   1.5747200e+00	   2.8028807e-01	
   5.3295000e+01	   1.8906289e+00	   5.4726811e-01	
   5.3350000e+01	   1.5909074e+00	   5.0011286e-01	
   5.3405000e+01	   1.7564534e+00	   4.3185085e-01	
   5.3460000e+01	   1.6895243e+00	   4.1440429e-01	
   5.3515000e+01	   1.7244398e+00	   1.4954085e-01	
   5.3570000e+01	   1.1645379e+00	   1.7426463e-01	
   5.3625000e+01	   1.4603382e+00	   3.8283034e-01	
   5.3680000e+01	   1.4395698e+00	   3.4906006e-01	
   5.3735000e+01	   1.3460603e+00	   1.5198270e-01	
   5.3790000e+01	   1.0274265e+00	   2.2365263e-01	
   5.3845000e+01	   1.0970252e+00	   3.8397668e-01	
   5.3900000e+01	   8.1682372e-01	   1.6950710e-01	
   5.3955000e+01	   9.4838413e-01	  -5.9272887e-02	
   5.4010000e+01	   6.4816048e-01	  -1.0502947e-02	
   5.4065000e+01	   1.1983314e+00	   1.9125911e-01	
   5.4120000e+01	   1.5320030e+00	   3.4728750e-01	
   5.4175000e+01	   1.6497522e+00	   2.7481294e-01	
   5.4230000e+01	   1.6410898e+00	   5.0813440e-01	
   5.4285000e+01	   1.7966159e+00	   4.3933136e-01	
   5.4340000e+01	   1.8969520e+00	   5.7318218e-01	
   5.4395000e+01	   1.4469198e+00	   3.1150611e-01	
   5.4450000e+01	   1.5576284e+00	   2.5860248e-01	
   5.4505000e+01	   1.3360540e+00	   3.7919160e-01	
   5.4560000e+01	   1.4780247e+00	   2.5970376e-01	
   5.4615000e+01	   1.3688215e+00	   1.7884753e-01	
   5.4670000e+01	   1.0605138e+00	   1.3819272e-01	
   5.4725000e+01	   1.0907081e+00	   1.2612562e-01	
   5.4780000e+01	   1.2298347e+00	   1.9606491e-02	
   5.4835000e+01	   1.0603060e+00	  -6.8114873e-02	
   5.4890000e+01	   5.7197467e-01	  -1.0908493e-01	
   5.4945000e+01	   9.9619581e-01	   6.6006837e-02	
   5.5000000e+01	   1.5186416e+00	   3.7202307e-01	
   5.5055000e+01	   1.3448745e+00	   1.9512012e-01	
   5.5110000e+01	   1.2798898e+00	   2.2835132e-01	
   5.5165000e+01	   1.5729949e+00	   3.3597783e-01	
   5.5220000e+01	   1.7630882e+00	   4.6700203e-01	
   5.5275000e+01	   1.0955597e+00	   9.7147165e-02	
   5.5330000e+01	   1.2159529e+00	   1.8081709e-01	
   5.5385000e+01	   1.3408173e+00	   3.4490781e-01	
   5.5440000e+01	   1.2675300e+00	   3.1493331e-01	
   5.5495000e+01	   1.0486043e+00	   9.7262466e-02	
   5.5550000e+01	   8.0296757e-01	  -1.3306592e-02	
   5.5605000e+01	   1.2037307e+00	   1.3336175e-01	
   5.5660000e+01	   8.8207886e-01	   3.3924017e-03	
   5.5715000e+01	   7.8055402e-01	  -1.7388999e-01	
   5.5770000e+01	   4.5514630e-01	  -2.2364657e-01	
   5.5825000e+01	   6.5564340e-01	  -8.1194459e-02	
   5.5880000e+01	   1.0620566e+00	  -3.8715929e-02	
   5.5935000e+01	   1.4141574e+00	   1.8271284e-01	
   5.5990000e+01	   1.5351051e+00	   2.2123113e-01	
   5.6045000e+01	   1.3022004e+00	   1.4061824e-01	
   5.6100000e+01	   1.4410813e+00	   1.3940972e-01	
   5.6155000e+01	   1.0961890e+00	   8.4530791e-02	
   5.6210000e+01	   1.2934645e+00	   5.8296188e-02	
   5.6265000e+01	   1.2027596e+00	   1.6853191e-01	
   5.6320000e+01	   1.1656372e+00	   8.8572090e-02	
   5.6375000e+01	   9.2816826e-01	  -3.3522353e-02	
   5.6430000e+01	   9.5914421e-01	  -6.5010779e-02	
   5.6485000e+01	   7.6722999e-01	  -9.1583380e-02	
   5.6540000e+01	   4.9254279e-01	  -1.7407268e-01	
   5.6595000e+01	   6.3517212e-01	  -1.9076636e-01	
   5.6650000e+01	   6.2308919e-02	  -5.4626132e-01	
   5.6705000e+01	   5.7141650e-01	  -1.0881543e-01	
   5.6760000e+01	   1.1884434e+00	   9.4494707e-02	
   5.6815000e+01	   1.2983295e+00	  -7.5989187e-02	
   5.6870000e+01	   1.0413614e+00	   2.3761086e-02	
   5.6925000e+01	   7.3568709e-01	  -1.2189937e-02	
   5.6980000e+01	   1.2060139e+00	   8.8877786e-02	
   5.7035000e+01	   1.1603199e+00	   9.1593803e-02	
   5.7090000e+01	   7.5468637e-01	  -1.5959485e-01	
   5.7145000e+01	   6.0119582e-01	  -2.1164091e-01	
   5.7200000e+01	   1.0578228e+00	  -2.0808367e-02	
   5.7255000e+01	   8.1836127e-01	  -4.9055905e-03	
   5.7310000e+01	   1.5141385e-01	  -4.1712386e-01	
   5.7365000e+01	   5.9886468e-01	  -1.4469123e-01	
   5.7420000e+01	   4.5126311e-01	  -2.0467682e-01	
   5.7475000e+01	   4.7284009e-01	  -2.5858614e-01	
   5.7530000e+01	   6.8696238e-01	  -2.5060991e-01	
   5.7585000e+01	   8.7760546e-01	  -7.3111830e-02	
   5.7640000e+01	   1.2925100e+00	   2.3963430e-01	
   5.7695000e+01	   7.1760224e-01	  -9.6145421e-02	
   5.7750000e+01	   8.3446114e-01	  -1.2455919e-01	
   5.7805000e+01	   8.5417818e-01	  -3.9562719e-02	
   5.7860000e+01	   9.7792697e-01	   8.7055750e-02	
   5.7915000e+01	   1.1130806e+00	   8.0237853e-02	
   5.7970000e+01	   8.0695804e-01	  -1.1609041e-01	
   5.8025000e+01	   6.6253681e-01	  -5.4810481e-02	
   5.8080000e+01	   5.5900024e-01	  -2.2596618e-01	
   5.8135000e+01	   5.8280315e-01	  -1.3286901e-01	
   5.8190000e+01	   1.9295681e-01	  -2.8263550e-01	
   5.8245000e+01	   1.3147019e-01	  -3.1383212e-01	
   5.8300000e+01	   3.2736829e-01	  -3.1912208e-01	
   5.8355000e+01	   3.7299719e-01	  -1.5815321e-01	
   5.8410000e+01	   1.1309000e+00	  -1.8504841e-03	
   5.8465000e+01	   6.6303401e-01	  -2.0242817e-02	
   5.8520000e+01	   9.0304310e-01	  -1.5688194e-02	
   5.8575000e+01	   1.0896722e+00	   1.7419327e-01	
   5.8630000e+01	   1.2410399e+00	   1.0603797e-01	
   5.8685000e+01	   7.6217685e-01	  -1.0112854e-03	
   5.8740000e+01	   8.7776575e-01	   5.9032686e-02	
   5.8795000e+01	   1.1795652e+00	   1.8852951e-01	
   5.8850000e+01	   8.1708158e-01	  -1.2921289e-01	
   5.8905000e+01	   5.4761288e-01	  -1.4707144e-01	
   5.8960000e+01	   7.8076824e-01	   1.3039933e-02	
   5.9015000e+01	   7.1505813e-01	  -3.1051691e-02	
   5.9070000e+01	   6.1114184e-01	  -2.6700483e-01	
   5.9125000e+01	   4.2605391e-01	  -3.0913393e-01	
   5.9180000e+01	   3.9273146e-01	  -1.1363281e-01	
   5.9235000e+01	   1.1787064e+00	  -8.2838558e-03	
   5.9290000e+01	   1.0797473e+00	   1.1168001e-01	
   5.9345000e+01	   1.1130476e+00	   1.3047266e-01	
   5.9400000e+01	   1.4868078e+00	   2.5174914e-01	
   5.9455000e+01	   1.4018247e+00	   3.5403757e-01	
   5.9510000e+01	   9.5395136e-01	   2.7674043e-02	
   5.9565000e+01	   1.2365313e+00	   1.9601553e-01	
   5.9620000e+01	   1.1125683e+00	   1.0786867e-01	
   5.9675000e+01	   9.2972957e-01	   3.0081277e-02	
   5.9730000e+01	   9.3039571e-01	   1.6162834e-02	
   5.9785000e+01	   1.0672978e+00	   1.4966344e-02	
   5.9840000e+01	   9.6075224e-01	   1.5548573e-01	
   5.9895000e+01	   6.7360034e-01	  -1.2518829e-01	
   5.9950000e+01	   7.0970046e-01	  -1.1264034e-01	
   6.0005000e+01	   6.9886536e-01	  -1.4597158e-01	
   6.0060000e+01	   5.6029889e-01	  -2.7499898e-01	
   6.0115000e+01	   8.8513117e-01	   1.8165497e-01	
   6.0170000e+01	   1.2791719e+00	   1.4769103e-01	
   6.0225000e+01	   9.7321447e-01	   1.1871011e-01	
   6.0280000e+01	   1.2140739e+00	   2.7615056e-01	
   6.0335000e+01	   1.3677280e+00	   4.0196215e-01	
   6.0390000e+01	   1.6690353e+00	   3.0375432e-01	
   6.0445000e+01	   9.2690573e-01	  -5.1046494e-02	
   6.0500000e+01	   1.2194922e+00	   1.1527827e-02	
   6.0555000e+01	   1.4270692e+00	   2.5028460e-01	
   6.0610000e+01	   1.1208232e+00	   1.6630667e-01	
   6.0665000e+01	   9.1441784e-01	  -3.1478777e-02	
   6.0720000e+01	   9.0570922e-01	   1.7120038e-02	
   6.0775000e+01	   9.9263187e-01	   1.6837935e-01	
   6.0830000e+01	   1.0278129e+00	   1.4086202e-01	
   6.0885000e+01	   6.5499445e-01	  -1.1181590e-01	
   6.0940000e+01	   7.8643696e-01	  -2.1156063e-01	
   6.0995000e+01	   1.2700498e+00	   1.2155675e-01	
   6.1050000e+01	   1.2475316e+00	   2.0929278e-01	
   6.1105000e+01	   1.5302290e+00	   1.7631464e-01	
   6.1160000e+01	   1.2285498e+00	   3.2243573e-01	
   6.1215000e+01	   1.3868011e+00	   3.6215760e-01	
   6.1270000e+01	   1.2737062e+00	   3.0800826e-01	
   6.1325000e+01	   1.3024521e+00	   1.2599106e-01	
   6.1380000e+01	   9.4740302e-01	   1.8418759e-01	
   6.1435000e+01	   1.3453845e+00	   2.5105400e-01	
   6.1490000e+01	   1.1620167e+00	   2.6349647e-01	
   6.1545000e+01	   1.2953774e+00	   1.0862511e-01	
   6.1600000e+01	   9.3741555e-01	  -7.0354972e-02	
   6.1655000e+01	   7.0909667e-01	  -9.8883230e-02	
   6.1710000e+01	   8.4233296e-01	  -1.9355816e-02	
   6.1765000e+01	   9.4898267e-01	  -1.0903634e-01	
   6.1820000e+01	   1.1205420e+00	   7.0025525e-02	
   6.1875000e+01	   1.3238418e+00	   1.5695250e-01	
   6.1930000e+01	   1.5803839e+00	   2.3078762e-01	
   6.1985000e+01	   1.5282159e+00	   1.4772770e-01	
   6.2040000e+01	   1.5147323e+00	   8.9960309e-02	
   6.2095000e+01	   1.4675641e+00	   1.8564149e-01	
   6.2150000e+01	   1.4196465e+00	   2.7925371e-01	
   6.2205000e+01	   1.1705531e+00	   1.8061886e-01	
   6.2260000e+01	   1.1762884e+00	   2.0891373e-02	
   6.2315000e+01	   1.1882888e+00	   1.0972022e-02	
   6.2370000e+01	   1.1556819e+00	   1.1697775e-01	
   6.2425000e+01	   1.0365253e+00	   7.3713773e-02	
   6.2480000e+01	   7.2390169e-01	  -1.1652172e-01	
   6.2535000e+01	   5.4249383e-01	  -2.1324519e-01	
   6.2590000e+01	   1.3911212e+00	   1.4133371e-01	
   6.2645000e+01	   1.2813381e+00	   2.4873902e-01	
   6.2700000e+01	   1.5220845e+00	   3.7555667e-01	
   6.2755000e+01	   1.7704613e+00	   2.7669029e-01	
   6.2810000e+01	   1.8806857e+00	   4.1064922e-01	
   6.2865000e+01	   1.6692276e+00	   1.8236238e-01	
   6.2920000e+01	   1.8142876e+00	   2.7987264e-01	
   6.2975000e+01	   1.8208474e+00	   4.3470027e-01	
   6.3030000e+01	   1.9216736e+00	   4.1730758e-01	
   6.3085000e+01	   1.5887085e+00	   2.5580804e-01	
   6.3140000e+01	   1.4709159e+00	   2.0731278e-01	
   6.3195000e+01	   1.5412510e+00	   1.1833963e-01	
   6.3250000e+01	   1.7079145e+00	   3.0195948e-01	
   6.3305000e+01	   1.2118783e+00	   1.6910067e-01	
   6.3360000e+01	   1.1526160e+00	  -1.8443003e-02	
   6.3415000e+01	   1.3588513e+00	  -1.5749046e-01	
   6.3470000e+01	   1.5762668e+00	   3.6559168e-01	
   6.3525000e+01	   1.7918705e+00	   3.2581958e-01	
   6.3580000e+01	   2.0407366e+00	   4.2494374e-01	
   6.3635000e+01	   2.0075356e+00	   5.3047290e-01	
   6.3690000e+01	   2.0618243e+00	   6.1108957e-01	
   6.3745000e+01	   2.1805854e+00	   5.3525465e-01	
   6.3800000e+01	   1.8540171e+00	   3.6905094e-01	
   6.3855000e+01	   1.8668708e+00	   4.0166056e-01	
   6.3910000e+01	   1.7659643e+00	   5.1988495e-01	
   6.3965000e+01	   2.0639606e+00	   5.1990463e-01	
   6.4020000e+01	   2.0071826e+00	   4.2129783e-01	
   6.4075000e+01	   1.7245169e+00	   3.0597354e-01	
   6.4130000e+01	   1.9383098e+00	   4.3617577e-01	
   6.4185000e+01	   1.5139246e+00	   2.6077600e-01	
   6.4240000e+01	   1.4058209e+00	   1.8183012e-01	
   6.4295000e+01	   1.4826907e+00	   9.8295891e-02	
   6.4350000e+01	   2.1237231e+00	   5.1238213e-01	
   6.4405000e+01	   2.1507559e+00	   5.4850733e-01	
   6.4460000e+01	   2.1524455e+00	   4.3908930e-01	
   6.4515000e+01	   2.1273890e+00	   4.4375520e-01	
   6.4570000e+01	   2.2871552e+00	   6.0354417e-01	
   6.4625000e+01	   2.2292580e+00	   4.6158184e-01	
   6.4680000e+01	   2.2483080e+00	   4.6435354e-01	
   6.4735000e+01	   2.0924431e+00	   4.4925386e-01	
   6.4790000e+01	   1.8624952e+00	   6.1613450e-01	
   6.4845000e+01	   2.0799363e+00	   4.2169313e-01	
   6.4900000e+01	   2.1188346e+00	   5.1105676e-01	
   6.4955000e+01	   1.7460526e+00	   2.1223074e-01	
   6.5010000e+01	   1.5978997e+00	   6.6772568e-02	
   6.5065000e+01	   1.7188286e+00	   3.4928426e-01	
   6.5120000e+01	   2.1300773e+00	   5.1179934e-01	
   6.5175000e+01	   2.2248644e+00	   4.0750484e-01	
   6.5230000e+01	   2.1769129e+00	   6.5584700e-01	
   6.5285000e+01	   2.5345577e+00	   7.2762414e-01	
   6.5340000e+01	   2.1633394e+00	   4.8942469e-01	
   6.5395000e+01	   2.0342692e+00	   3.6465111e-01	
   6.5450000e+01	   1.7170862e+00	   4.0874406e-01	
   6.5505000e+01	   2.1970192e+00	   4.8758200e-01	
   6.5560000e+01	   1.9247855e+00	   4.0895792e-01	
   6.5615000e+01	   1.7990975e+00	   3.1328319e-01	
   6.5670000e+01	   1.8765110e+00	   3.0940094e-01	
   6.5725000e+01	   1.8896644e+00	   3.7211770e-01	
   6.5780000e+01	   1.6566815e+00	   1.9211988e-02	
   6.5835000e+01	   1.8182086e+00	   1.3457409e-01	
   6.5890000e+01	   1.3293054e+00	   1.3789112e-01	
   6.5945000e+01	   1.9367774e+00	   2.7347838e-01	
   6.6000000e+01	   1.9770975e+00	   4.7200925e-01	
   6.6055000e+01	   1.6734183e+00	   3.3387775e-01	
   6.6110000e+01	   1.7768139e+00	   3.9980406e-01	
   6.6165000e+01	   2.4712789e+00	   5.9331040e-01	
   6.6220000e+01	   2.3445978e+00	   6.6162666e-01	
   6.6275000e+01	   2.1295314e+00	   4.2679547e-01	
   6.6330000e+01	   1.9637223e+00	   3.8758875e-01	
   6.6385000e+01	   1.9824676e+00	   5.0691307e-01	
   6.6440000e+01	   1.9535310e+00	   2.6369400e-01	
   6.6495000e+01	   1.9333574e+00	   3.2952811e-01	
   6.6550000e+01	   1.3681568e+00	   1.7739700e-01	
   6.6605000e+01	   1.3905877e+00	   2.4830873e-01	
   6.6660000e+01	   1.4818136e+00	   3.5716563e-01	
   6.6715000e+01	   1.7437174e+00	   1.6047015e-01	
   6.6770000e+01	   8.8165207e-01	  -4.7723119e-02	
   6.6825000e+01	   1.1450068e+00	   1.9428848e-02	
   6.6880000e+01	   1.8732324e+00	   1.9826678e-01	
   6.6935000e+01	   1.6763234e+00	   2.3901220e-01	
   6.6990000e+01	   2.0505296e+00	   2.3148281e-01	
   6.7045000e+01	   2.1154065e+00	   3.4612104e-01	
   6.7100000e+01	   2.1746406e+00	   5.1479789e-01	
   6.7155000e+01	   2.0904668e+00	   3.9460348e-01	
   6.7210000e+01	   1.4641204e+00	   1.9215477e-01	
   6.7265000e+01	   1.5570702e+00	   2.4566102e-01	
   6.7320000e+01	   1.8468570e+00	   4.0860951e-01	
   6.7375000e+01	   1.9234900e+00	   2.1937291e-01	
   6.7430000e+01	   1.3294957e+00	   2.1868085e-01	
   6.7485000e+01	   1.3896815e+00	   1.1475016e-01	
   6.7540000e+01	   1.7180863e+00	   1.7986258e-01	
   6.7595000e+01	   1.2868561e+00	  -1.2282884e-02	
   6.7650000e+01	   1.5405065e+00	   2.1883269e-02	
   6.7705000e+01	   1.1312900e+00	  -1.3482612e-01	
   6.7760000e+01	   1.1254629e+00	  -4.8503776e-02	
   6.7815000e+01	   1.2321778e+00	  -9.2913474e-03	
   6.7870000e+01	   1.3778955e+00	   1.1444043e-01	
   6.7925000e+01	   1.3360540e+00	   1.1495409e-01	
   6.7980000e+01	   1.6532086e+00	   1.6428021e-01	
   6.8035000e+01	   1.2908028e+00	   1.7511007e-01	
   6.8090000e+01	   1.6848499e+00	   1.6856436e-01	
   6.8145000e+01	   1.3605995e+00	  -1.2440976e-02	
   6.8200000e+01	   1.4344339e+00	   5.1093071e-02	
   6.8255000e+01	   1.4362627e+00	   1.1838462e-01	
   6.8310000e+01	   1.2004509e+00	   7.2535925e-02	
   6.8365000e+01	   1.1169751e+00	  -8.7972850e-02	
   6.8420000e+01	   1.0153419e+00	  -1.6660435e-01	
   6.8475000e+01	   8.8968647e-01	  -2.3107786e-01	
   6.8530000e+01	   7.7880982e-01	  -1.7290047e-01	
   6.8585000e+01	   9.7019967e-01	  -3.0326849e-01	
   6.8640000e+01	   1.3155866e+00	   4.1694969e-02	
   6.8695000e+01	   1.4574561e+00	   1.4707556e-01	
   6.8750000e+01	   9.3289686e-01	  -1.3000897e-01	
   6.8805000e+01	   1.2162157e+00	   1.1054894e-01	
   6.8860000e+01	   1.3308409e+00	   7.8505660e-02	
   6.8915000e+01	   1.3394012e+00	   1.6398119e-01	
   6.8970000e+01	   1.2964496e+00	  -6.5465023e-02	
   6.9025000e+01	   1.0414883e+00	  -3.0475140e-01	
   6.9080000e+01	   1.1912476e+00	  -4.4222151e-02	
   6.9135000e+01	   1.0680250e+00	  -1.2921189e-01	
   6.9190000e+01	   7.4874131e-01	  -3.2607252e-01	
   6.9245000e+01	   6.7848321e-01	  -3.8609431e-01	
   6.9300000e+01	   5.0173382e-01	  -4.6995899e-01	
   6.9355000e+01	   6.4920951e-01	  -3.9096531e-01	
   6.9410000e+01	   5.6590565e-01	  -5.2146595e-01	
   6.9465000e+01	   1.0049185e+00	  -1.5678386e-01	
   6.9520000e+01	   9.3673240e-01	  -2.5463546e-01	
   6.9575000e+01	   1.3121233e+00	  -2.2536458e-01	
   6.9630000e+01	   1.2760043e+00	  -9.7279376e-02	
   6.9685000e+01	   8.4393391e-01	  -2.2045226e-01	
   6.9740000e+01	   9.9962596e-01	  -3.8886961e-02	
   6.9795000e+01	   1.0738180e+00	  -8.1627346e-02	
   6.9850000e+01	   8.2689498e-01	  -2.7036260e-01	
   6.9905000e+01	   6.7167106e-01	  -3.2717832e-01	
   6.9960000e+01	   8.2168669e-01	  -2.0732990e-01	
   7.0015000e+01	   5.8071783e-01	  -2.1502077e-01	
   7.0070000e+01	   7.1315113e-01	  -3.1889042e-01	
   7.0125000e+01	   4.8503658e-01	  -5.0728823e-01	
   7.0180000e+01	   4.1080315e-01	  -4.3361703e-01	
   7.0235000e+01	   6.4986585e-01	  -4.2853951e-01	
   7.0290000e+01	   4.6830066e-01	  -5.9934220e-01	
   7.0345000e+01	   6.6541936e-01	  -5.6983079e-01	
   7.0400000e+01	   7.2549076e-01	  -4.2822597e-01	
   7.0455000e+01	   1.0251547e+00	  -1.3102267e-01	
   7.0510000e+01	   9.3438964e-01	  -1.0853668e-02	
   7.0565000e+01	   8.5447664e-01	  -2.6249677e-01	
   7.0620000e+01	   7.0275723e-01	  -2.5056657e-01	
   7.0675000e+01	   1.1449074e+00	  -1.2158982e-02	
   7.0730000e+01	   1.0105704e+00	  -1.8274626e-01	
   7.0785000e+01	   9.6918895e-01	  -3.2382289e-01	
   7.0840000e+01	   5.9542636e-01	  -3.6592408e-01	
   7.0895000e+01	   6.8517540e-01	  -3.1912208e-01	
   7.0950000e+01	   7.1610004e-01	  -2.8329413e-01	
   7.1005000e+01	   6.7872543e-01	  -4.1124857e-01	
   7.1060000e+01	   3.0249763e-01	  -5.4260503e-01	
   7.1115000e+01	   1.7843023e-02	  -6.7518361e-01	
   7.1170000e+01	   1.9256391e-01	  -6.4350275e-01	
   7.1225000e+01	   1.5547637e-01	  -5.8952179e-01	
   7.1280000e+01	   4.2506416e-01	  -4.8261820e-01	
   7.1335000e+01	   7.6469239e-01	  -3.1500043e-01	
   7.1390000e+01	   1.1784163e+00	  -1.0461373e-01	
   7.1445000e+01	   7.9300347e-01	  -2.9069111e-01	
   7.1500000e+01	   3.6769585e-01	  -4.8708703e-01	
   7.1555000e+01	   7.3930329e-01	  -2.8367088e-01	
   7.1610000e+01	   9.2277733e-01	  -2.5551404e-01	
   7.1665000e+01	   4.9613416e-01	  -3.4396568e-01	
   7.1720000e+01	   4.7495880e-01	  -4.9534775e-01	
   7.1775000e+01	   3.0407256e-01	  -6.1246131e-01	
   7.1830000e+01	   3.3744201e-01	  -4.1068392e-01	
   7.1885000e+01	   1.9989967e-01	  -6.6136415e-01	
   7.1940000e+01	   9.0621101e-02	  -7.9915020e-01	
   7.1995000e+01	  -1.5615988e-01	  -6.2502926e-01	
   7.2050000e+01	   2.7115474e-01	  -5.4215950e-01	
   7.2105000e+01	   5.5881729e-01	  -5.1962693e-01	
   7.2160000e+01	   3.2987579e-01	  -4.2185770e-01	
   7.2215000e+01	   7.2160095e-01	  -3.3586352e-01	
   7.2270000e+01	   5.5684378e-01	  -3.4686929e-01	
   7.2325000e+01	   4.9819742e-01	  -4.6130939e-01	
   7.2380000e+01	   3.4297220e-01	  -5.7707844e-01	
   7.2435000e+01	   2.0839398e-01	  -4.3387593e-01	
   7.2490000e+01	   5.9451991e-01	  -3.1961263e-01	
   7.2545000e+01	   5.6580412e-01	  -3.6087143e-01	
   7.2600000e+01	   7.6607963e-02	  -7.2658042e-01	
   7.2655000e+01	  -4.0165021e-02	  -7.1138190e-01	
   7.2710000e+01	   4.5741919e-01	  -5.4002244e-01	
   7.2765000e+01	  -1.4105877e-01	  -7.0179403e-01	
   7.2820000e+01	  -1.1465339e-02	  -8.7488676e-01	
   7.2875000e+01	   2.4525958e-01	  -6.1249552e-01	
   7.2930000e+01	   1.8573449e-01	  -3.8485879e-01	
   7.2985000e+01	   5.7563132e-01	  -4.2537804e-01	
   7.3040000e+01	   4.7838721e-01	  -4.7836030e-01	
   7.3095000e+01	   3.3601147e-01	  -5.1890868e-01	
   7.3150000e+01	   5.1005271e-01	  -3.1833094e-01	
   7.3205000e+01	   4.8017031e-01	  -3.9929554e-01	
   7.3260000e+01	   3.4688532e-01	  -4.8893456e-01	
   7.3315000e+01	   4.9849340e-01	  -6.8704603e-01	
   7.3370000e+01	   3.3426721e-01	  -4.9708982e-01	
   7.3425000e+01	   2.0205756e-01	  -5.1530992e-01	
   7.3480000e+01	   1.3925868e-01	  -6.7822541e-01	
   7.3535000e+01	  -6.8916819e-02	  -7.6540261e-01	
   7.3590000e+01	  -1.5947901e-01	  -7.3906778e-01	
   7.3645000e+01	   1.7771147e-01	  -7.4566382e-01	
   7.3700000e+01	   2.6074942e-01	  -6.8760378e-01	
   7.3755000e+01	   2.4752687e-01	  -4.8678072e-01	
   7.3810000e+01	   6.1838882e-01	  -3.7550186e-01	
   7.3865000e+01	   7.1132135e-01	  -3.1383212e-01	
   7.3920000e+01	   5.6236077e-01	  -3.9767922e-01	
   7.3975000e+01	   6.3026360e-01	  -4.1823857e-01	
   7.4030000e+01	   8.2763108e-01	  -1.5574605e-01	
   7.4085000e+01	   6.4819148e-01	  -3.1224044e-01	
   7.4140000e+01	   6.8406988e-01	  -3.8399889e-01	
   7.4195000e+01	   5.2895176e-01	  -4.1256235e-01	
   7.4250000e+01	   6.2205291e-01	  -3.9910061e-01	
   7.4305000e+01	   5.7127034e-01	  -5.7156196e-01	
   7.4360000e+01	   1.5333133e-01	  -5.6773199e-01	
   7.4415000e+01	   1.6142833e-01	  -4.9256943e-01	
   7.4470000e+01	   2.1420707e-01	  -6.6095924e-01	
   7.4525000e+01	   2.6400193e-03	  -6.2378599e-01	
   7.4580000e+01	   7.4008641e-01	  -3.8769879e-01	
   7.4635000e+01	   7.4580038e-01	  -3.7777118e-01	
   7.4690000e+01	   7.0236007e-01	  -2.1353249e-01	
   7.4745000e+01	   1.0036731e+00	  -1.7225660e-01	
   7.4800000e+01	   9.4411910e-01	  -1.8644094e-01	
   7.4855000e+01	   9.0293397e-01	  -2.8448421e-01	
   7.4910000e+01	   7.8500345e-01	  -3.1036278e-01	
   7.4965000e+01	   9.3177793e-01	  -1.0873715e-01	
   7.5020000e+01	   9.2011012e-01	  -9.5019625e-02	
   7.5075000e+01	   7.4382586e-01	  -3.4142196e-01	
   7.5130000e+01	   5.3214932e-01	  -2.5123529e-01	
   7.5185000e+01	   5.5615604e-01	  -1.7484560e-01	
   7.5240000e+01	   3.7272363e-01	  -4.5060185e-01	
   7.5295000e+01	   1.2129246e-01	  -5.4617357e-01	
   7.5350000e+01	   3.4946624e-01	  -5.0761076e-01	
   7.5405000e+01	   8.2620761e-02	  -3.6293869e-01	
   7.5460000e+01	   7.0220176e-01	  -2.6082391e-01	
   7.5515000e+01	   7.5332370e-01	  -3.8113940e-01	
   7.5570000e+01	   8.0101195e-01	  -5.7655541e-02	
   7.5625000e+01	   9.4350316e-01	  -9.9413605e-02	
   7.5680000e+01	   8.7648843e-01	  -2.5848512e-03	
   7.5735000e+01	   1.0802194e+00	  -2.2167756e-01	
   7.5790000e+01	   1.0948550e+00	  -7.1690533e-02	
   7.5845000e+01	   1.1214948e+00	  -1.0351240e-01	
   7.5900000e+01	   9.1451452e-01	  -8.4061850e-02	
   7.5955000e+01	   5.0209896e-01	  -2.8133641e-01	
   7.6010000e+01	   6.6085933e-01	  -1.5717848e-01	
   7.6065000e+01	   6.3562919e-01	  -2.8713005e-01	
   7.6120000e+01	   8.6131485e-01	  -1.5205305e-01	
   7.6175000e+01	   6.4863003e-01	  -4.7566889e-01	
   7.6230000e+01	   3.4231694e-01	  -3.7989960e-01	
   7.6285000e+01	   6.7220453e-01	  -1.2493493e-01	
   7.6340000e+01	   1.0214813e+00	  -1.5221957e-01	
   7.6395000e+01	   9.9679681e-01	  -1.3354929e-01	
   7.6450000e+01	   1.0787443e+00	  -2.2732316e-01	
   7.6505000e+01	   1.1616425e+00	   4.7631030e-03	
   7.6560000e+01	   1.0066493e+00	   1.5602007e-01	
   7.6615000e+01	   1.1996947e+00	  -7.7018048e-02	
   7.6670000e+01	   9.0102518e-01	  -1.5921541e-01	
   7.6725000e+01	   1.1525357e+00	  -6.0185036e-02	
   7.6780000e+01	   7.6523131e-01	  -2.1427936e-01	
   7.6835000e+01	   6.6662157e-01	  -2.9765132e-01	
   7.6890000e+01	   5.8497194e-01	  -2.3505186e-01	
   7.6945000e+01	   6.1243407e-01	  -2.9633240e-01	
   7.7000000e+01	   4.1364983e-01	  -4.3245367e-01	
   7.7055000e+01	   6.2102911e-01	  -2.8444021e-01	
   7.7110000e+01	   8.1599426e-01	  -2.1781798e-01	
   7.7165000e+01	   8.9839585e-01	  -3.9652770e-02	
   7.7220000e+01	   1.0925155e+00	   3.4012321e-02	
   7.7275000e+01	   1.2185644e+00	   7.7890193e-02	
   7.7330000e+01	   1.0717727e+00	   6.6785755e-03	
   7.7385000e+01	   1.0048732e+00	  -3.0597542e-03	
   7.7440000e+01	   9.1817198e-01	   4.8800202e-03	
   7.7495000e+01	   1.1879545e+00	  -1.0314969e-01	
   7.7550000e+01	   6.3379550e-01	  -3.0342171e-01	
   7.7605000e+01	   9.7286177e-01	  -1.5846190e-01	
   7.7660000e+01	   8.6470490e-01	  -2.0373019e-02	
   7.7715000e+01	   4.0185854e-01	  -3.0492402e-01	
   7.7770000e+01	   4.2256302e-01	  -3.5475173e-01	
   7.7825000e+01	   5.1328877e-01	  -2.1642773e-01	
   7.7880000e+01	   3.4514967e-01	  -4.3687299e-01	
   7.7935000e+01	   9.2245326e-01	  -2.2194760e-01	
   7.7990000e+01	   7.6993424e-01	  -2.4856562e-01	
   7.8045000e+01	   9.1799602e-01	  -1.0980762e-02	
   7.8100000e+01	   1.3826660e+00	   1.9451351e-01	
   7.8155000e+01	   8.9206727e-01	   6.6805788e-03	
   7.8210000e+01	   1.0857439e+00	   9.2113580e-02	
   7.8265000e+01	   8.9773854e-01	  -9.8989111e-02	
   7.8320000e+01	   1.0806846e+00	   7.0674097e-02	
   7.8375000e+01	   9.7989217e-01	  -5.0597205e-02	
   7.8430000e+01	   1.0503191e+00	  -5.5867845e-02	
   7.8485000e+01	   7.5170408e-01	  -2.4741098e-01	
   7.8540000e+01	   6.6899892e-01	  -4.8858930e-03	
   7.8595000e+01	   8.2774460e-01	  -1.6075254e-01	
   7.8650000e+01	   4.3995561e-01	  -4.9743772e-01	
   7.8705000e+01	   4.5630494e-01	  -3.9952656e-01	
   7.8760000e+01	   3.8962634e-01	  -3.0241585e-01	
   7.8815000e+01	   6.4651764e-01	  -2.0920724e-01	
   7.8870000e+01	   8.9779201e-01	  -1.9885727e-01	
   7.8925000e+01	   1.0036731e+00	  -8.8906212e-02	
   7.8980000e+01	   1.3528073e+00	   1.1945357e-01	
   7.9035000e+01	   1.0468822e+00	   2.4931775e-02	
   7.9090000e+01	   1.1282263e+00	   1.2765477e-01	
   7.9145000e+01	   7.4180668e-01	  -1.2907305e-01	
   7.9200000e+01	   9.5685792e-01	   6.6956336e-03	
   7.9255000e+01	   8.5388941e-01	  -2.0731248e-01	
   7.9310000e+01	   7.4899242e-01	  -8.0610419e-02	
   7.9365000e+01	   6.5369218e-01	  -2.1029038e-02	
   7.9420000e+01	   5.3254604e-01	  -1.5892967e-01	
   7.9475000e+01	   5.7571692e-01	  -1.8521491e-01	
   7.9530000e+01	   3.4154875e-01	  -3.4385612e-01	
   7.9585000e+01	   2.1882299e-01	  -4.1216400e-01	
   7.9640000e+01	   3.7333386e-01	  -1.8099213e-01	
   7.9695000e+01	   7.2874162e-01	  -6.1918939e-02	
   7.9750000e+01	   8.9209029e-01	  -4.9060800e-02	
   7.9805000e+01	   1.0490626e+00	  -5.3125888e-03	
   7.9860000e+01	   1.0231380e+00	  -2.1420822e-01	
   7.9915000e+01	   1.1103511e+00	   6.3980721e-02	
   7.9970000e+01	   6.7417066e-01	  -1.4090644e-01	
   8.0025000e+01	   4.9286579e-01	  -2.0928786e-01	
   8.0080000e+01	   6.9816062e-01	   3.9521890e-02	
   8.0135000e+01	   5.6645990e-01	  -6.2431837e-02	
   8.0190000e+01	   5.9810692e-01	  -2.1477352e-01	
   8.0245000e+01	   1.3871553e-01	  -3.7203020e-01	
   8.0300000e+01	   1.6451520e-01	  -2.9759953e-01	
   8.0355000e+01	   2.0911725e-01	  -4.1755258e-01	
   8.0410000e+01	   4.5617038e-02	  -4.4237176e-01	
   8.0465000e+01	   4.8575023e-01	  -1.9112981e-01	
   8.0520000e+01	   6.7968117e-01	   8.5198847e-02	
   8.0575000e+01	   9.2877764e-01	   1.7634006e-01	
   8.0630000e+01	   9.0976414e-01	  -1.0625515e-01	
   8.0685000e+01	   7.1935542e-01	   1.9440411e-02	
   8.0740000e+01	   1.0467838e+00	  -1.7015450e-02	
   8.0795000e+01	   8.6300386e-01	   2.4592032e-02	
   8.0850000e+01	   7.0043084e-01	   3.4322299e-02	
   8.0905000e+01	   5.6520447e-01	  -2.6141590e-02	
   8.0960000e+01	   6.4393716e-01	   2.1594833e-02	
   8.1015000e+01	   5.8182195e-01	  -2.9665932e-01	
   8.1070000e+01	   5.3393765e-01	  -1.3525621e-01	
   8.1125000e+01	   2.8590182e-01	  -3.4872703e-01	
   8.1180000e+01	   9.5733013e-02	  -3.8967958e-01	
   8.1235000e+01	   4.2715038e-01	  -2.0784030e-01	
   8.1290000e+01	   7.5769259e-01	   5.5444331e-02	
   8.1345000e+01	   7.8600061e-01	  -1.0958430e-02	
   8.1400000e+01	   6.6565943e-01	  -1.5975185e-01	
   8.1455000e+01	   1.0286582e+00	   1.3923119e-01	
   8.1510000e+01	   1.2381969e+00	   9.3179431e-02	
   8.1565000e+01	   7.1437167e-01	   1.2599737e-02	
   8.1620000e+01	   6.6608534e-01	   6.8554212e-02	
   8.1675000e+01	   6.4482018e-01	   3.1808314e-03	
   8.1730000e+01	   7.6482769e-01	   9.2629233e-02	
   8.1785000e+01	   2.6340304e-01	  -2.9560100e-01	
   8.1840000e+01	   4.8994279e-01	  -9.4265390e-02	
   8.1895000e+01	   8.7879539e-01	   1.2621177e-01	
   8.1950000e+01	   5.4670065e-01	  -1.5188900e-02	
   8.2005000e+01	   2.2668037e-01	  -2.4606924e-01	
   8.2060000e+01	   1.4476695e-01	  -3.5368064e-01	
   8.2115000e+01	   7.0955393e-01	  -1.1120523e-02	
   8.2170000e+01	   8.9696614e-01	   7.8902433e-02	
   8.2225000e+01	   9.4106831e-01	   9.7090829e-02	
   8.2280000e+01	   9.5052202e-01	   1.4495263e-01	
   8.2335000e+01	   1.0950128e+00	   2.0332710e-01	
   8.2390000e+01	   9.9612262e-01	   2.3034112e-01	
   8.2445000e+01	   1.1939437e+00	   1.5144336e-01	
   8.2500000e+01	   7.6676548e-01	  -9.6369766e-02	
   8.2555000e+01	   7.5233699e-01	   1.8609034e-01	
   8.2610000e+01	   9.4916582e-01	   1.3736865e-01	
   8.2665000e+01	   3.8357727e-01	  -1.1241337e-01	
   8.2720000e+01	   5.4347033e-01	  -2.8301043e-02	
   8.2775000e+01	   6.0294623e-01	   4.4331283e-02	
   8.2830000e+01	   4.0605957e-01	  -8.2601745e-02	
   8.2885000e+01	   2.8750551e-01	  -9.6413660e-02	
   8.2940000e+01	   2.6984055e-01	  -1.4228679e-01	
   8.2995000e+01	   7.7077253e-01	   1.6998888e-01	
   8.3050000e+01	   8.0901599e-01	   3.0508404e-02	
   8.3105000e+01	   1.1485939e+00	   1.2773199e-01	
   8.3160000e+01	   8.7537904e-01	   6.7361102e-02	
   8.3215000e+01	   1.0486952e+00	   1.4888085e-01	
   8.3270000e+01	   1.2872707e+00	   2.4508581e-01	
   8.3325000e+01	   8.5558398e-01	  -7.5596246e-04	
   8.3380000e+01	   8.3898285e-01	  -7.6081736e-03	
   8.3435000e+01	   5.5920419e-01	   1.1705977e-02	
   8.3490000e+01	   7.1284125e-01	   1.1487992e-01	
   8.3545000e+01	   5.9831715e-01	  -1.0168645e-01	
   8.3600000e+01	   2.7164581e-01	  -2.2644988e-01	
   8.3655000e+01	   2.3288309e-01	  -1.6874922e-01	
   8.3710000e+01	   3.9212384e-01	  -8.0904225e-02	
   8.3765000e+01	   1.1154709e+00	   1.0811727e-01	
   8.3820000e+01	   8.2673835e-01	   1.2978331e-02	
   8.3875000e+01	   1.1562253e+00	   2.1253814e-01	
   8.3930000e+01	   8.3242847e-01	   2.9407832e-01	
   8.3985000e+01	   6.0832495e-01	   4.6083043e-02	
   8.4040000e+01	   7.3999051e-01	  -2.1277625e-02	
   8.4095000e+01	   7.7306825e-01	   1.7514330e-01	
   8.4150000e+01	   8.3514504e-01	   2.8570927e-01	
   8.4205000e+01	   6.9374380e-01	   8.7496536e-02	
   8.4260000e+01	   3.2856039e-01	  -6.3835316e-02	
   8.4315000e+01	   3.8846036e-01	  -4.4551398e-02	
   8.4370000e+01	   4.4717383e-01	  -2.0310586e-01	
   8.4425000e+01	   6.0312123e-02	  -3.1008437e-01	
   8.4480000e+01	   3.4768854e-03	  -3.2273445e-01	
   8.4535000e+01	   1.9791983e-01	  -3.0374077e-01	
   8.4590000e+01	   7.5396754e-01	  -5.9175030e-02	
   8.4645000e+01	   9.0781480e-01	   2.0791486e-01	
   8.4700000e+01	   8.3800884e-01	   2.0214761e-01	
   8.4755000e+01	   1.1363933e+00	   3.0551328e-01	
   8.4810000e+01	   1.0822270e+00	   1.5819572e-01	
   8.4865000e+01	   8.9830227e-01	   1.4840157e-01	
   8.4920000e+01	   9.9795272e-01	   1.8092113e-01	
   8.4975000e+01	   8.0739246e-01	   7.3201429e-02	
   8.5030000e+01	   8.0033452e-01	   1.3886300e-01	
   8.5085000e+01	   6.8244284e-01	  -3.2914705e-03	
   8.5140000e+01	   6.9408235e-01	  -1.0543799e-01	
   8.5195000e+01	   4.6482658e-01	  -2.0491895e-01	
   8.5250000e+01	   5.1005271e-01	  -6.7942097e-02	
   8.5305000e+01	   5.2652336e-01	  -9.8487440e-02	
   8.5360000e+01	   1.7398555e-01	  -3.2484264e-01	
   8.5415000e+01	   1.3278067e-01	  -3.3010475e-01	
   8.5470000e+01	   2.3794856e-01	  -1.5751496e-01	
   8.5525000e+01	   8.1824242e-01	  -1.0251364e-01	
   8.5580000e+01	   6.1062246e-01	  -8.8113322e-02	
   8.5635000e+01	   9.4824430e-01	   1.7058942e-02	
   8.5690000e+01	   1.0493661e+00	   1.2006429e-01	
   8.5745000e+01	   8.4773349e-01	   9.9076049e-02	
   8.5800000e+01	   8.1735109e-01	   5.1865050e-02	
   8.5855000e+01	   7.8525103e-01	   8.1973960e-02	
   8.5910000e+01	   6.9953059e-01	   1.1443249e-01	
   8.5965000e+01	   9.0188862e-01	   6.7796212e-02	
   8.6020000e+01	   5.9703202e-01	  -1.9106646e-01	
   8.6075000e+01	   4.6086726e-01	  -1.3028187e-01	
   8.6130000e+01	   4.3066959e-01	  -8.3314609e-02	
   8.6185000e+01	   3.2376391e-01	  -2.0581018e-01	
   8.6240000e+01	   1.9866942e-01	  -1.7397046e-01	
   8.6295000e+01	   1.0353000e-01	  -4.3678599e-01	
   8.6350000e+01	  -2.6890070e-02	  -4.6009850e-01	
   8.6405000e+01	   4.7865565e-01	  -7.8631289e-03	
   8.6460000e+01	   4.6061194e-01	  -1.9043920e-01	
   8.6515000e+01	   5.0911002e-01	  -9.4945197e-02	
   8.6570000e+01	   9.5705179e-01	   8.9876526e-02	
   8.6625000e+01	   6.9108256e-01	   8.3786076e-03	
   8.6680000e+01	   1.0059590e+00	   2.1553865e-02	
   8.6735000e+01	   4.7192389e-01	  -2.0715482e-01	
   8.6790000e+01	   5.2482231e-01	   1.1485969e-02	
   8.6845000e+01	   6.4536531e-01	  -5.9354205e-02	
   8.6900000e+01	   5.6236077e-01	  -1.9000273e-01	
   8.6955000e+01	   2.9628876e-01	  -3.1535880e-01	
   8.7010000e+01	   4.1553798e-01	  -2.8175981e-01	
   8.7065000e+01	   2.3378512e-01	  -3.4906641e-01	
   8.7120000e+01	  -2.5155500e-01	  -4.9141263e-01	
   8.7175000e+01	  -2.4723465e-01	  -5.2437724e-01	
   8.7230000e+01	   2.6604610e-01	  -2.2681449e-01	
   8.7285000e+01	   8.5924381e-01	   2.4579064e-02	
   8.7340000e+01	   8.2517898e-01	  -1.5480733e-01	
   8.7395000e+01	   4.1599142e-01	  -1.1928908e-01	
   8.7450000e+01	   7.8885195e-01	  -6.4253858e-02	
   8.7505000e+01	   5.4618047e-01	  -5.5479318e-03	
   8.7560000e+01	   4.3461099e-01	  -2.5342452e-01	
   8.7615000e+01	   3.1731198e-01	  -2.0672203e-01	
   8.7670000e+01	   4.5312906e-01	  -1.1344441e-01	
   8.7725000e+01	   4.5635080e-01	  -2.3047267e-01	
   8.7780000e+01	   1.0208005e-01	  -4.2519488e-01	
   8.7835000e+01	   4.2385604e-01	  -3.1076664e-01	
   8.7890000e+01	   1.9602158e-01	  -3.0407885e-01	
   8.7945000e+01	   1.4916745e-01	  -3.2727855e-01	
   8.8000000e+01	  -3.1527054e-01	  -5.3710000e-01	
   8.8055000e+01	  -3.4638990e-01	  -7.8262806e-01	
   8.8110000e+01	   2.7518365e-01	  -3.8262500e-01	
   8.8165000e+01	   4.3624811e-01	  -1.0059942e-01	
   8.8220000e+01	   7.2519133e-01	  -2.6208358e-01	
   8.8275000e+01	   4.4279599e-01	  -2.4593317e-01	
   8.8330000e+01	   7.5376579e-01	  -6.7627235e-02	
   8.8385000e+01	   5.5194247e-01	  -7.4327570e-02	
   8.8440000e+01	   5.3243706e-01	  -1.8469010e-01	
   8.8495000e+01	   4.8207240e-01	  -5.5624703e-02	
   8.8550000e+01	   5.7505466e-01	  -1.2853462e-01	
   8.8605000e+01	   5.4425393e-01	  -2.4442736e-01	
   8.8660000e+01	   2.9944327e-01	  -4.4800825e-01	
   8.8715000e+01	   3.2807730e-01	  -4.0053476e-01	
   8.8770000e+01	   2.0982869e-01	  -4.0682539e-01	
   8.8825000e+01	   4.1351081e-01	  -2.9310875e-01	
   8.8880000e+01	  -2.2400288e-01	  -4.3551571e-01	
   8.8935000e+01	  -2.1617458e-01	  -6.7108772e-01	
   8.8990000e+01	  -4.2725081e-01	  -7.3291603e-01	
   8.9045000e+01	   3.8612181e-02	  -4.9268921e-01	
   8.9100000e+01	   5.9635347e-01	  -3.0530219e-01	
   8.9155000e+01	   3.4652980e-01	  -2.8231205e-01	
   8.9210000e+01	   6.1929697e-01	  -3.2167428e-01	
   8.9265000e+01	   3.1536429e-01	  -1.7670273e-01	
   8.9320000e+01	   3.1727744e-01	  -3.1249944e-01	
   8.9375000e+01	   2.7661310e-01	  -5.2491512e-01	
   8.9430000e+01	   6.3951763e-01	  -3.0077517e-01	
   8.9485000e+01	   4.6226226e-01	  -1.6842242e-01	
   8.9540000e+01	   4.7941251e-01	  -3.5833221e-01	
   8.9595000e+01	   1.2132805e-01	  -4.1663593e-01	
   8.9650000e+01	   8.5904583e-02	  -4.1147716e-01	
   8.9705000e+01	   8.9219052e-02	  -5.4383982e-01	
   8.9760000e+01	   7.0550217e-02	  -5.3257607e-01	
   8.9815000e+01	   8.5910081e-03	  -6.6032693e-01	
   8.9870000e+01	  -1.9791176e-01	  -7.8403461e-01	
   8.9925000e+01	  -1.7554034e-01	  -5.3793749e-01	
   8.9980000e+01	   1.2153168e-01	  -4.6039921e-01	
   9.0035000e+01	   4.8138031e-01	  -3.4899219e-01	
   9.0090000e+01	   3.8156797e-01	  -3.3614158e-01	
   9.0145000e+01	   3.1820186e-01	  -4.5250702e-01	
   9.0200000e+01	   3.0804680e-01	  -4.4049467e-01	
   9.0255000e+01	   3.5671249e-01	  -4.3601422e-01	
   9.0310000e+01	   4.3986755e-01	  -4.7055046e-01	
   9.0365000e+01	   3.5900545e-01	  -5.4591398e-01	
   9.0420000e+01	   3.3314926e-01	  -3.1521216e-01	
   9.0475000e+01	   3.6000091e-02	  -6.5593045e-01	
   9.0530000e+01	  -2.5155500e-01	  -7.9615653e-01	
   9.0585000e+01	   1.3698166e-01	  -6.2252878e-01	
   9.0640000e+01	   1.1254666e-01	  -4.9028473e-01	
   9.0695000e+01	  -1.1674461e-01	  -7.5537568e-01	
   9.0750000e+01	  -2.6709527e-01	  -8.9934005e-01	
   9.0805000e+01	   3.2716156e-01	  -5.5698859e-01	
   9.0860000e+01	   2.8906131e-01	  -3.7621160e-01	
   9.0915000e+01	   1.9532764e-01	  -5.7673989e-01	
   9.0970000e+01	   2.6828828e-01	  -4.6049570e-01	
   9.1025000e+01	   3.9474066e-01	  -3.7829646e-01	
   9.1080000e+01	   3.2704258e-01	  -4.8090035e-01	
   9.1135000e+01	   1.8527850e-01	  -5.8513482e-01	
   9.1190000e+01	   1.9723017e-01	  -5.2756862e-01	
   9.1245000e+01	  -3.2887943e-02	  -6.0221395e-01	
   9.1300000e+01	  -2.9344180e-01	  -7.7568223e-01	
   9.1355000e+01	  -8.3035605e-02	  -7.4900026e-01	
   9.1410000e+01	  -4.7200711e-01	  -9.8678240e-01	
   9.1465000e+01	  -1.7290968e-01	  -7.4446821e-01	
   9.1520000e+01	  -1.2823039e-01	  -7.1383265e-01	
   9.1575000e+01	  -8.0047482e-01	  -1.1691060e+00	
   9.1630000e+01	  -4.3402599e-01	  -1.0019719e+00	
   9.1685000e+01	  -1.0538850e-01	  -8.0432162e-01	
   9.1740000e+01	   4.6492864e-01	  -5.6569367e-01	
   9.1795000e+01	   8.7912941e-04	  -6.5215844e-01	
   9.1850000e+01	   1.8271572e-01	  -6.2210772e-01	
   9.1905000e+01	   3.0019396e-01	  -5.3219854e-01	
   9.1960000e+01	   5.7270367e-01	  -5.5368741e-01	
   9.2015000e+01	   4.6049689e-01	  -5.4192421e-01	
   9.2070000e+01	  -1.8708091e-02	  -8.0337846e-01	
   9.2125000e+01	   1.7667657e-01	  -6.0010223e-01	
   9.2180000e+01	   3.3780603e-01	  -5.3917466e-01	
   9.2235000e+01	  -1.7892003e-01	  -7.4572558e-01	
   9.2290000e+01	  -2.3152200e-01	  -8.2100208e-01	
   9.2345000e+01	  -1.0317929e-01	  -8.4106063e-01	
   9.2400000e+01	   1.6106964e-01	  -8.4233873e-01	
   9.2455000e+01	  -1.4187509e-01	  -8.6402423e-01	
   9.2510000e+01	  -3.5009188e-01	  -1.0548324e+00	
   9.2565000e+01	   2.0289090e-01	  -6.1944592e-01	
   9.2620000e+01	   3.3930818e-01	  -4.3487580e-01	
   9.2675000e+01	   5.7245197e-01	  -5.0759295e-01	
   9.2730000e+01	   3.1938954e-01	  -6.4345295e-01	
   9.2785000e+01	   3.6434177e-01	  -4.4490873e-01	
   9.2840000e+01	   2.2973127e-01	  -5.1593140e-01	
   9.2895000e+01	   4.1652579e-01	  -5.2290565e-01	
   9.2950000e+01	   1.4961046e-01	  -6.6669347e-01	
   9.3005000e+01	   1.5716252e-01	  -6.7290503e-01	
   9.3060000e+01	   5.3540524e-01	  -6.3768389e-01	
   9.3115000e+01	  -7.5533964e-02	  -7.4154448e-01	
   9.3170000e+01	  -7.8721127e-02	  -8.2674304e-01	
   9.3225000e+01	  -2.3043041e-01	  -7.8402670e-01	
   9.3280000e+01	  -3.4601040e-01	  -7.2608524e-01	
   9.3335000e+01	  -2.3594494e-01	  -7.7590258e-01	
   9.3390000e+01	  -3.9624250e-01	  -1.0495717e+00	
   9.3445000e+01	  -1.0167828e-01	  -7.3993561e-01	
   9.3500000e+01	   1.4872857e-01	  -6.2823032e-01	
   9.3555000e+01	   6.9003640e-02	  -7.3316303e-01	
   9.3610000e+01	   1.2238340e-01	  -5.3841697e-01	
   9.3665000e+01	   1.2459873e-01	  -4.9127786e-01	
   9.3720000e+01	   4.6492864e-01	  -4.2119344e-01	
   9.3775000e+01	   1.7336693e-01	  -4.7722353e-01	
   9.3830000e+01	   1.7845656e-01	  -5.8058622e-01	
   9.3885000e+01	   1.9110072e-01	  -6.3167260e-01	
   9.3940000e+01	   9.2696213e-02	  -6.0151435e-01	
   9.3995000e+01	   2.1460572e-02	  -6.5201091e-01	
   9.4050000e+01	  -1.1269209e-01	  -7.6074579e-01	
   9.4105000e+01	  -2.4698617e-01	  -6.8550836e-01	
   9.4160000e+01	  -2.3639995e-02	  -7.1957520e-01	
   9.4215000e+01	  -2.3424815e-01	  -7.0788572e-01	
   9.4270000e+01	  -2.2995668e-01	  -1.0224644e+00	
   9.4325000e+01	   1.3259063e-01	  -5.1627986e-01	
   9.4380000e+01	   2.7392154e-01	  -5.0772837e-01	
   9.4435000e+01	   4.7633561e-01	  -3.4067734e-01	
   9.4490000e+01	   2.2122001e-01	  -6.3816617e-01	
   9.4545000e+01	   5.9353825e-01	  -4.4612400e-01	
   9.4600000e+01	   4.2506416e-01	  -4.5938074e-01	
   9.4655000e+01	   2.2471282e-01	  -4.8096759e-01	
   9.4710000e+01	  -1.3346607e-03	  -7.5895767e-01	
   9.4765000e+01	   2.0468361e-01	  -4.8051736e-01	
   9.4820000e+01	   2.8697074e-01	  -5.1219867e-01	
   9.4875000e+01	   3.4755596e-02	  -6.3628427e-01	
   9.4930000e+01	   1.6942489e-02	  -7.6206473e-01	
   9.4985000e+01	  -6.3832649e-02	  -7.3439943e-01	
   9.5040000e+01	  -2.5993848e-01	  -6.9406772e-01	
   9.5095000e+01	  -5.5534796e-02	  -7.7617431e-01	
   9.5150000e+01	   4.8610408e-01	  -5.3114960e-01	
   9.5205000e+01	   4.7461560e-01	  -4.2214097e-01	
   9.5260000e+01	   4.4693674e-01	  -3.7953893e-01	
   9.5315000e+01	   4.5828588e-01	  -4.6996553e-01	
   9.5370000e+01	   3.8082718e-01	  -3.9864386e-01	
   9.5425000e+01	   4.8142364e-01	  -4.4845881e-01	
   9.5480000e+01	   2.2653337e-01	  -4.7986546e-01	
   9.5535000e+01	   4.6031000e-01	  -3.6707019e-01	
   9.5590000e+01	   9.2802532e-02	  -6.5572014e-01	
   9.5645000e+01	   1.0446073e-01	  -6.1887514e-01	
   9.5700000e+01	   1.7617691e-01	  -5.6766615e-01	
   9.5755000e+01	   2.5350862e-01	  -4.2178837e-01	
   9.5810000e+01	  -6.8733090e-02	  -6.2943296e-01	
   9.5865000e+01	  -4.1212977e-01	  -7.6052988e-01	
   9.5920000e+01	  -1.0104025e-01	  -6.2497474e-01	
   9.5975000e+01	  -4.2073956e-02	  -5.4546660e-01	
   9.6030000e+01	   2.9203171e-01	  -6.2688317e-01	
   9.6085000e+01	   4.9913198e-01	  -3.3805486e-01	
   9.6140000e+01	   5.5059132e-01	  -1.3581812e-01	
   9.6195000e+01	   7.4745769e-01	  -3.2576025e-01	
   9.6250000e+01	   2.3966854e-01	  -5.5997983e-01	
   9.6305000e+01	   3.4302900e-01	  -3.7051746e-01	
   9.6360000e+01	   5.2450739e-01	  -2.9570942e-01	
   9.6415000e+01	   5.6382967e-01	  -2.3390172e-01	
   9.6470000e+01	   1.1647124e-01	  -5.2172617e-01	
   9.6525000e+01	   1.6087099e-01	  -4.4525803e-01	
   9.6580000e+01	   3.4193214e-01	  -4.0389509e-01	
   9.6635000e+01	   2.0922341e-01	  -5.6400484e-01	
   9.6690000e+01	   1.1953966e-01	  -5.2176435e-01	
   9.6745000e+01	  -1.2506872e-01	  -5.7532813e-01	
   9.6800000e+01	   6.5349872e-02	  -5.1271787e-01	
   9.6855000e+01	  -5.6010812e-02	  -4.7963181e-01	
   9.6910000e+01	   4.4067080e-01	  -3.8940504e-01	
   9.6965000e+01	   3.6965309e-01	  -1.7958480e-01	
   9.7020000e+01	   5.1067612e-01	  -1.5079214e-01	
   9.7075000e+01	   5.4829990e-01	  -1.1655115e-01	
   9.7130000e+01	   2.6834032e-01	  -3.0501125e-01	
   9.7185000e+01	   5.0321809e-01	  -2.8355018e-01	
   9.7240000e+01	   3.5198385e-01	  -9.3866281e-02	
   9.7295000e+01	   4.8591252e-01	  -2.7929620e-01	
   9.7350000e+01	   4.6226774e-02	  -4.3237986e-01	
   9.7405000e+01	  -6.7855839e-02	  -4.0380365e-01	
   9.7460000e+01	  -1.1210683e-01	  -3.6139607e-01	
   9.7515000e+01	  -1.1305580e-01	  -4.4946646e-01	
   9.7570000e+01	  -3.5529486e-02	  -5.5624050e-01	
   9.7625000e+01	  -7.4827396e-02	  -4.7541780e-01	
   9.7680000e+01	   1.8469970e-01	  -3.9270023e-01	
   9.7735000e+01	   5.1937211e-01	  -2.4835672e-01	
   9.7790000e+01	   5.3602061e-01	  -2.4748414e-01	
   9.7845000e+01	   2.3224602e-01	  -3.2950592e-01	
   9.7900000e+01	   5.1699590e-01	  -2.3050992e-01	
   9.7955000e+01	   7.1657956e-01	  -2.3337885e-01	
   9.8010000e+01	   4.5840881e-01	  -3.9068573e-01	
   9.8065000e+01	   3.0112582e-01	  -3.3657435e-01	
   9.8120000e+01	   4.9416408e-01	  -1.9548375e-01	
   9.8175000e+01	   4.3469584e-01	  -4.0190090e-01	
   9.8230000e+01	   1.8967404e-01	  -4.3620975e-01	
   9.8285000e+01	  -1.5404717e-01	  -5.6992304e-01	
   9.8340000e+01	  -1.2840453e-01	  -4.8722227e-01	
   9.8395000e+01	  -4.9076977e-02	  -3.7375195e-01	
   9.8450000e+01	  -3.5566625e-01	  -5.4724560e-01	
   9.8505000e+01	   1.1137908e-01	  -5.4606982e-01	
   9.8560000e+01	   4.3003276e-01	  -1.1721961e-01	
   9.8615000e+01	   7.2807702e-01	  -1.3684338e-01	
   9.8670000e+01	   4.0620090e-01	  -3.0980298e-01	
   9.8725000e+01	   4.1246893e-01	  -3.0043515e-01	
   9.8780000e+01	   5.3952101e-01	  -1.2360930e-01	
   9.8835000e+01	   4.9137008e-01	  -1.3225482e-01	
   9.8890000e+01	   3.3472325e-02	  -3.5227268e-01	
   9.8945000e+01	  -1.2572897e-02	  -3.3838805e-01	
   9.9000000e+01	   1.0732287e-01	  -1.7017304e-01	
   9.9055000e+01	   2.0368832e-01	  -2.3338879e-01	
   9.9110000e+01	  -1.4589360e-01	  -3.6175175e-01	
   9.9165000e+01	  -2.2535423e-01	  -4.3829845e-01	
   9.9220000e+01	  -4.0282622e-01	  -6.0566290e-01	
   9.9275000e+01	  -3.9931542e-01	  -5.2971352e-01	
   9.9330000e+01	  -2.7896690e-01	  -4.8389883e-01	
   9.9385000e+01	   1.8430529e-01	  -2.8459132e-01	
   9.9440000e+01	   1.8218350e-01	  -2.1106787e-01	
   9.9495000e+01	   3.4479867e-01	  -2.0735255e-01	
   9.9550000e+01	   2.4845729e-01	  -1.5182286e-01	
   9.9605000e+01	   1.6854198e-01	  -2.3233206e-01	
   9.9660000e+01	   3.0444690e-01	  -4.0632475e-02	
   9.9715000e+01	   1.9992340e-01	  -1.7700895e-01	
   9.9770000e+01	   9.9969817e-02	  -2.0322350e-01	
   9.9825000e+01	  -2.3907261e-01	  -2.1770178e-01	
   9.9880000e+01	   5.2272021e-02	  -1.9587580e-01	
   9.9935000e+01	   1.1457937e-01	  -1.2968352e-01	
   9.9990000e+01	   4.3871418e-02	  -3.6259398e-01	
   1.0004500e+02	  -3.7255261e-01	  -4.6603022e-01	
   1.0010000e+02	  -2.1523559e-01	  -3.8449871e-01	
   1.0015500e+02	  -6.1922790e-03	  -4.6176135e-01	
   1.0021000e+02	   2.1517216e-01	  -2.0716475e-01	
   1.0026500e+02	   5.1813585e-01	  -8.6765803e-02	
   1.0032000e+02	   2.8493391e-01	  -9.9755077e-02	
   1.0037500e+02	   2.3551677e-01	  -7.0058294e-02	
   1.0043000e+02	   2.1586052e-01	  -2.9853127e-01	
   1.0048500e+02	   1.9246077e-01	  -1.0802501e-01	
   1.0054000e+02	   1.2341610e-02	  -1.2538775e-01	
   1.0059500e+02	   1.4825075e-01	  -9.9515472e-02	
   1.0065000e+02	   1.4641209e-01	  -1.9318023e-01	
   1.0070500e+02	  -2.8912213e-01	  -3.7468754e-01	
   1.0076000e+02	  -6.5240898e-02	  -2.3645639e-01	
   1.0081500e+02	  -2.3453711e-01	  -2.4895941e-01	
   1.0087000e+02	  -2.8997640e-01	  -5.6145241e-01	
   1.0092500e+02	  -3.1408713e-01	  -5.8766002e-01	
   1.0098000e+02	   2.8448254e-02	  -4.5258798e-01	
   1.0103500e+02	   4.3529616e-01	  -1.1105287e-01	
   1.0109000e+02	   4.8063787e-01	  -8.7659188e-02	
   1.0114500e+02	   5.5164714e-01	  -1.1380650e-01	
   1.0120000e+02	   2.0019787e-01	  -2.0488193e-01	
   1.0125500e+02	   3.7283395e-01	  -3.5790217e-02	
   1.0131000e+02	  -2.6782562e-02	  -2.8297179e-01	
   1.0136500e+02	  -1.7544064e-01	  -2.6277873e-01	
   1.0142000e+02	   1.1541574e-01	  -6.2876752e-02	
   1.0147500e+02	   2.5626251e-01	  -9.0284519e-02	
   1.0153000e+02	  -8.9998046e-02	  -2.4199685e-01	
   1.0158500e+02	  -3.0128883e-01	  -4.8253047e-01	
   1.0164000e+02	  -2.5782071e-01	  -2.7527565e-01	
   1.0169500e+02	  -3.8365904e-01	  -3.8346540e-01	
   1.0175000e+02	  -5.1787468e-01	  -5.5087907e-01	
   1.0180500e+02	  -5.2467545e-01	  -4.6355622e-01	
   1.0186000e+02	  -4.6526472e-02	  -1.3550254e-01	
   1.0191500e+02	   9.4735409e-02	  -1.1197239e-01	
   1.0197000e+02	  -5.0916207e-02	  -2.9810873e-01	
   1.0202500e+02	  -1.1922348e-01	  -1.4376295e-01	
   1.0208000e+02	   4.6492839e-02	  -1.2652164e-01	
   1.0213500e+02	  -1.0985953e-01	  -1.0987359e-01	
   1.0219000e+02	  -1.2920258e-01	  -2.2234631e-01	
   1.0224500e+02	  -1.2262775e-01	  -2.0764607e-01	
   1.0230000e+02	  -4.4000956e-02	  -1.6197060e-01	
   1.0235500e+02	  -1.0794433e-01	  -1.5663205e-01	
   1.0241000e+02	  -2.1730508e-01	  -1.9690284e-01	
   1.0246500e+02	  -5.0279927e-01	  -4.8874054e-01	
   1.0252000e+02	  -5.9318740e-01	  -4.2240059e-01	
   1.0257500e+02	  -4.4398525e-01	  -3.6235277e-01	
   1.0263000e+02	  -8.9469566e-01	  -6.9918182e-01	
   1.0268500e+02	  -5.2909324e-01	  -5.6376218e-01	
   1.0274000e+02	  -1.7839433e-01	  -2.0530851e-01	
   1.0279500e+02	   8.4243809e-02	  -1.9027176e-01	
   1.0285000e+02	   5.4099686e-02	  -1.3755563e-01	
   1.0290500e+02	   2.5769010e-01	  -3.0439264e-01	
   1.0296000e+02	  -2.4525345e-01	  -2.0394223e-01	
   1.0301500e+02	  -2.8429857e-02	  -2.0176673e-01	
   1.0307000e+02	  -1.9677456e-02	  -1.7914775e-01	
   1.0312500e+02	  -3.3978194e-01	  -2.9882272e-01	
   1.0318000e+02	   2.5565937e-01	  -2.8441182e-01	
   1.0323500e+02	  -2.7391624e-01	  -1.9518245e-01	
   1.0329000e+02	  -2.4918405e-01	  -3.7936677e-01	
   1.0334500e+02	  -3.1978693e-01	  -4.7879622e-01	
   1.0340000e+02	  -5.2704245e-01	  -5.4357073e-01	
   1.0345500e+02	  -4.9386718e-01	  -5.6810016e-01	
   1.0351000e+02	  -2.4607754e-01	  -5.4273770e-01	
   1.0356500e+02	   8.1826297e-03	  -3.5021066e-01	
   1.0362000e+02	   1.7358224e-01	  -2.3207448e-01	
   1.0367500e+02	   7.3953876e-01	  -4.7447397e-02	
   1.0373000e+02	   5.8702272e-01	  -4.0957729e-02	
   1.0378500e+02	   3.2703502e-01	  -2.3499628e-01	
   1.0384000e+02	   3.0267555e-01	  -8.1017529e-02	
   1.0389500e+02	   2.5098290e-01	  -1.5899336e-01	
   1.0395000e+02	   5.0683113e-01	  -1.6141736e-01	
   1.0400500e+02	   2.1406191e-01	  -3.5013627e-01	
   1.0406000e+02	  -5.7202179e-02	  -2.4774064e-01	
   1.0411500e+02	   9.8920333e-02	  -2.5878111e-01	
   1.0417000e+02	  -2.3601431e-01	  -4.6895058e-01	
   1.0422500e+02	  -5.0325411e-01	  -6.1257805e-01	
   1.0428000e+02	   1.3830651e-01	  -4.3245033e-01	
   1.0433500e+02	   6.1292127e-01	  -1.0441507e-01	
   1.0439000e+02	   3.9064276e-01	  -9.9202687e-02	
   1.0444500e+02	   1.4753638e-01	  -1.9361847e-01	
   1.0450000e+02	   3.3735507e-01	  -2.6849480e-01	
   1.0455500e+02	   3.6760851e-01	  -2.3153672e-01	
   1.0461000e+02	   4.5230249e-01	  -1.8730632e-01	
   1.0466500e+02	   4.0615481e-01	  -3.3371609e-01	
   1.0472000e+02	   5.5082668e-01	  -1.0686916e-01	
   1.0477500e+02	   2.4262731e-01	  -2.4410137e-01	
   1.0483000e+02	  -7.8395576e-02	  -3.4514393e-01	
   1.0488500e+02	  -5.7718606e-02	  -4.0905321e-01	
   1.0494000e+02	  -1.3196183e-01	  -4.6905834e-01	
   1.0499500e+02	  -3.2795034e-01	  -5.4750699e-01	
   1.0505000e+02	   1.8416638e-01	  -3.0152921e-01	
   1.0510500e+02	   1.4254852e-01	  -2.3508322e-01	
   1.0516000e+02	   1.9918136e-01	  -2.1282416e-01	
   1.0521500e+02	   5.7293759e-01	  -4.0072484e-03	
   1.0527000e+02	   8.2826853e-01	  -2.3375518e-01	
   1.0532500e+02	   4.8255773e-01	  -2.7177845e-01	
   1.0538000e+02	   8.3842873e-02	  -1.0958193e-01	
   1.0543500e+02	   3.8231016e-01	  -3.6122826e-02	
   1.0549000e+02	   3.7391873e-01	  -1.3810789e-01	
   1.0554500e+02	   3.9150838e-01	  -2.3066576e-01	
   1.0560000e+02	   2.4771114e-01	  -2.0442604e-01	
   1.0565500e+02	   1.3075984e-01	  -6.8940872e-02	
   1.0571000e+02	   5.6310133e-02	  -1.6341862e-01	
   1.0576500e+02	  -8.4499432e-02	  -4.2986082e-01	
   1.0582000e+02	   6.0827016e-01	  -9.6555859e-02	
   1.0587500e+02	   7.3680923e-01	  -7.5764636e-02	
   1.0593000e+02	   1.2944402e+00	   1.4729185e-01	
   1.0598500e+02	   9.8226796e-01	   1.9124929e-02	
   1.0604000e+02	   8.6568538e-01	   2.3071770e-03	
   1.0609500e+02	   1.0255735e+00	   3.0878036e-01	
   1.0615000e+02	   7.4835425e-01	   5.3454457e-02	
   1.0620500e+02	   6.9932500e-01	  -4.0093235e-02	
   1.0626000e+02	   5.9392239e-01	  -1.5743204e-01	
   1.0631500e+02	   2.5881766e-01	   8.7726876e-03	
   1.0637000e+02	   5.8927615e-01	   3.0803367e-02	
   1.0642500e+02	   5.6422873e-01	  -1.2455569e-01	
   1.0648000e+02	   2.7846651e-01	  -2.0858502e-01	
   1.0653500e+02	   5.0774440e-01	  -9.7386910e-02	
   1.0659000e+02	   8.4060413e-01	   5.8936801e-02	
   1.0664500e+02	   8.1730804e-01	   3.5785902e-02	
   1.0670000e+02	   1.2149194e+00	   3.0090345e-01	
   1.0675500e+02	   1.1528479e+00	   2.6694921e-01	
   1.0681000e+02	   1.1249305e+00	   3.1428776e-01	
   1.0686500e+02	   9.2667299e-01	   1.6298162e-01	
   1.0692000e+02	   6.8798166e-01	  -3.9235395e-02	
   1.0697500e+02	   6.7492327e-01	   2.2274276e-01	
   1.0703000e+02	   1.0104567e+00	   1.2540440e-01	
   1.0708500e+02	   6.8447206e-01	  -4.3696671e-02	
   1.0714000e+02	   5.5903011e-01	  -8.5150504e-02	
   1.0719500e+02	   5.3740976e-01	   2.1895895e-02	
   1.0725000e+02	   9.6117288e-01	   1.4493802e-01	
   1.0730500e+02	   9.9082710e-01	  -2.3760024e-02	
   1.0736000e+02	   1.0516889e+00	   1.5971242e-01	
   1.0741500e+02	   1.2065301e+00	   3.1446974e-01	
   1.0747000e+02	   1.0575884e+00	   3.0420114e-01	
   1.0752500e+02	   9.2822366e-01	   1.7990399e-01	
   1.0758000e+02	   1.1151093e+00	   2.1046263e-01	
   1.0763500e+02	   1.0787443e+00	   2.7548344e-01	
   1.0769000e+02	   9.4903548e-01	   1.0751303e-01	
   1.0774500e+02	   7.6952939e-01	   5.0024988e-02	
   1.0780000e+02	   7.7768991e-01	  -7.8646974e-02	
   1.0785500e+02	   8.0282522e-01	   2.9992517e-02	
   1.0791000e+02	   1.2889243e+00	   2.2586866e-01	
   1.0796500e+02	   1.2394193e+00	   1.8642923e-01	
   1.0802000e+02	   1.3060034e+00	   2.5186384e-01	
   1.0807500e+02	   1.3076435e+00	   3.6726458e-01	
   1.0813000e+02	   1.2546473e+00	   2.4990410e-01	
   1.0818500e+02	   1.2688207e+00	   1.9021010e-01	
   1.0824000e+02	   1.1225705e+00	   2.3177222e-01	
   1.0829500e+02	   1.3275059e+00	   3.6305042e-01	
   1.0835000e+02	   1.0243736e+00	   2.7428196e-01	
   1.0840500e+02	   7.1624770e-01	   3.0572308e-02	
   1.0846000e+02	   9.7938994e-01	   1.2996780e-01	
   1.0851500e+02	   1.0879136e+00	   3.2107554e-01	
   1.0857000e+02	   7.5762673e-01	   8.7545086e-02	
   1.0862500e+02	   4.0717449e-01	  -5.2720861e-02	
   1.0868000e+02	   7.7029256e-01	  -3.6664888e-02	
   1.0873500e+02	   1.0454824e+00	   1.2348672e-01	
   1.0879000e+02	   1.4915044e+00	   3.7436884e-01	
   1.0884500e+02	   1.5206891e+00	   3.4478752e-01	
   1.0890000e+02	   1.4119603e+00	   3.7768412e-01	
   1.0895500e+02	   1.5990669e+00	   3.7756502e-01	
   1.0901000e+02	   1.5833758e+00	   3.4221576e-01	
   1.0906500e+02	   1.4844668e+00	   2.2104349e-01	
   1.0912000e+02	   1.1374252e+00	   2.7710684e-01	
   1.0917500e+02	   1.3781421e+00	   3.7045554e-01	
   1.0923000e+02	   1.1101368e+00	   4.2426506e-01	
   1.0928500e+02	   1.1815380e+00	   5.8669677e-02	
   1.0934000e+02	   7.1942037e-01	   7.7726086e-02	
   1.0939500e+02	   9.5263634e-01	   2.2258126e-01	
   1.0945000e+02	   1.1142120e+00	   1.6259294e-01	
   1.0950500e+02	   5.4511758e-01	  -1.6754298e-01	
   1.0956000e+02	   3.4253246e-01	  -3.0179759e-01	
   1.0961500e+02	   9.3881270e-01	   9.8539652e-02	
   1.0967000e+02	   1.3916210e+00	   2.4941893e-01	
   1.0972500e+02	   1.4271168e+00	   2.6592445e-02	
   1.0978000e+02	   1.5063868e+00	   3.8839018e-01	
   1.0983500e+02	   1.4171315e+00	   3.3827524e-01	
   1.0989000e+02	   1.7615347e+00	   3.4150529e-01	
   1.0994500e+02	   1.5326710e+00	   3.2674755e-01	
   1.1000000e+02	   1.3951440e+00	   3.3634435e-01	
   1.1005500e+02	   1.2055624e+00	   5.1193338e-01	
   1.1011000e+02	   1.0890813e+00	   3.2332271e-01	
   1.1016500e+02	   9.2362901e-01	   9.3203638e-02	
   1.1022000e+02	   7.6785522e-01	   1.3091104e-01	
   1.1027500e+02	   9.3403431e-01	   2.1259759e-01	
   1.1033000e+02	   6.2156056e-01	   8.5283814e-03	
   1.1038500e+02	   6.8243269e-01	  -1.8119204e-01	
   1.1044000e+02	   1.2884231e+00	   2.8202343e-01	
   1.1049500e+02	   1.3963791e+00	   3.3359860e-01	
   1.1055000e+02	   1.4308556e+00	   3.4052772e-01	
   1.1060500e+02	   1.1471016e+00	   3.0132635e-01	
   1.1066000e+02	   9.8173679e-01	   9.3969830e-02	
   1.1071500e+02	   1.3009108e+00	   2.2558366e-01	
   1.1077000e+02	   1.3408173e+00	   1.9963880e-01	
   1.1082500e+02	   1.0731456e+00	   5.5230296e-02	
   1.1088000e+02	   7.8173107e-01	  -6.7855760e-02	
   1.1093500e+02	   1.2824748e+00	   2.5323449e-01	
   1.1099000e+02	   1.1419184e+00	   3.7650413e-02	
   1.1104500e+02	   8.6973103e-01	  -2.9589395e-02	
   1.1110000e+02	   5.5875152e-01	  -2.1751187e-01	
   1.1115500e+02	   1.0049185e+00	   2.4803780e-02	
   1.1121000e+02	   1.2070364e+00	   1.5531873e-01	
   1.1126500e+02	   1.1738223e+00	   9.4708418e-02	
   1.1132000e+02	   1.5403254e+00	   2.1368914e-01	
   1.1137500e+02	   1.4961686e+00	   4.0938585e-01	
   1.1143000e+02	   1.3826660e+00	   3.1150433e-01	
   1.1148500e+02	   9.3788732e-01	  -2.7482455e-02	
   1.1154000e+02	   1.0975523e+00	   1.4561405e-01	
   1.1159500e+02	   8.6784833e-01	   5.2185979e-02	
   1.1165000e+02	   9.1624503e-01	  -6.9051629e-02	
   1.1170500e+02	   6.8287340e-01	  -7.3025240e-02	
   1.1176000e+02	   3.8536643e-01	  -1.3577972e-01	
   1.1181500e+02	   5.0492816e-01	  -1.1348156e-01	
   1.1187000e+02	   5.3602061e-01	  -2.3845880e-01	
   1.1192500e+02	   4.6787112e-01	  -2.3206303e-01	
   1.1198000e+02	   2.0955628e-01	  -4.0283179e-01	
   1.1203500e+02	   8.0574650e-01	   4.7181459e-02	
   1.1209000e+02	   1.0186670e+00	  -1.3157172e-02	
   1.1214500e+02	   1.2131209e+00	   4.2119706e-02	
   1.1220000e+02	   1.2001681e+00	   2.7464114e-02	
   1.1225500e+02	   1.1314379e+00	   6.6578537e-02	
   1.1231000e+02	   1.2051958e+00	   1.5814106e-01	
   1.1236500e+02	   9.2691464e-01	   1.1414387e-01	
   1.1242000e+02	   8.6967390e-01	  -9.9474947e-02	
   1.1247500e+02	   7.9356325e-01	   1.6675531e-02	
   1.1253000e+02	   4.5312760e-01	  -1.4640532e-02	
   1.1258500e+02	   6.0305476e-01	  -1.4289857e-01	
   1.1264000e+02	   2.8299729e-02	  -4.4654319e-01	
   1.1269500e+02	   1.5440492e-01	  -2.7115509e-01	
   1.1275000e+02	   1.6981150e-01	  -2.6555101e-01	
   1.1280500e+02	   2.7120771e-01	  -3.9163854e-01	
   1.1286000e+02	  -2.7861125e-02	  -3.1446136e-01	
   1.1291500e+02	   4.6853809e-01	  -2.0262968e-01	
   1.1297000e+02	   1.0997469e+00	   6.2132334e-02	
   1.1302500e+02	   7.9397509e-01	  -1.5988830e-01	
   1.1308000e+02	   6.0553344e-01	  -2.7345703e-02	
   1.1313500e+02	   7.7078070e-01	  -3.1691436e-02	
   1.1319000e+02	   8.6627917e-01	   7.4187652e-02	
   1.1324500e+02	   7.8335868e-01	   2.9716797e-02	
   1.1330000e+02	   4.6673975e-01	  -2.7074002e-01	
   1.1335500e+02	   6.1858215e-01	  -1.7334242e-02	
   1.1341000e+02	   2.6794286e-01	  -3.2813050e-01	
   1.1346500e+02	  -3.1679550e-02	  -4.9786023e-01	
   1.1352000e+02	   1.3794939e-01	  -4.3500632e-01	
   1.1357500e+02	  -7.9739364e-03	  -2.8204284e-01	
   1.1363000e+02	   7.8453936e-02	  -3.6113205e-01	
   1.1368500e+02	   3.4274124e-01	  -3.9919854e-01	
   1.1374000e+02	   6.0122853e-01	  -8.1773350e-02	
   1.1379500e+02	   8.0286157e-01	  -2.4393492e-02	
   1.1385000e+02	   9.2126295e-01	  -1.5269063e-02	
   1.1390500e+02	   8.9354594e-01	   1.1044570e-02	
   1.1396000e+02	   3.3723103e-01	  -1.8707392e-01	
   1.1401500e+02	   6.5442224e-01	  -5.9286594e-02	
   1.1407000e+02	   5.9140257e-01	  -3.2588580e-01	
   1.1412500e+02	   5.5724543e-01	  -4.0913794e-01	
   1.1418000e+02	   1.8550801e-01	  -3.9865820e-01	
   1.1423500e+02	   2.2439654e-01	  -4.0444908e-01	
   1.1429000e+02	   2.5736009e-01	  -3.8568442e-01	
   1.1434500e+02	  -3.7500985e-02	  -6.3178639e-01	
   1.1440000e+02	   6.4494204e-01	  -1.6994151e-01	
   1.1445500e+02	   7.7724118e-01	  -2.1169951e-01	
   1.1451000e+02	   1.0152890e+00	  -4.7676761e-02	
   1.1456500e+02	   3.4602971e-01	  -2.5711326e-01	
   1.1462000e+02	   6.1261693e-01	  -7.6583616e-02	
   1.1467500e+02	   6.7071907e-01	  -2.3816860e-01	
   1.1473000e+02	   2.3647614e-01	  -1.6960429e-01	
   1.1478500e+02	   4.2256302e-01	  -1.6376597e-01	
   1.1484000e+02	   6.7599167e-02	  -3.9973508e-01	
   1.1489500e+02	   2.6505856e-02	  -3.1762972e-01	
   1.1495000e+02	   2.3190906e-01	  -3.6985130e-01	
   1.1500500e+02	   2.4738830e-02	  -5.4425681e-01	
   1.1506000e+02	  -2.0893679e-01	  -6.3296708e-01	
   1.1511500e+02	   4.3661045e-01	  -2.8021327e-01	
   1.1517000e+02	   6.8430453e-01	  -1.6765102e-01	
   1.1522500e+02	   5.3615813e-01	  -3.0193900e-01	
   1.1528000e+02	   2.7024513e-01	  -3.7263113e-01	
   1.1533500e+02	   6.9627757e-01	  -1.1800890e-01	
   1.1539000e+02	   8.1244523e-01	  -7.4155120e-02	
   1.1544500e+02	   3.8747246e-01	  -1.7946143e-01	
   1.1550000e+02	   1.8736605e-01	  -3.0309401e-01	
   1.1555500e+02	   3.7901464e-01	  -2.2587083e-01	
   1.1561000e+02	   6.4288506e-01	  -3.3675901e-01	
   1.1566500e+02	  -1.3314571e-01	  -4.3342300e-01	
   1.1572000e+02	   1.6290350e-01	  -5.3236689e-01	
   1.1577500e+02	   2.4536759e-01	  -3.8364003e-01	
   1.1583000e+02	   5.2952285e-02	  -3.5078133e-01	
   1.1588500e+02	  -1.1763164e-01	  -5.2538412e-01	
   1.1594000e+02	   5.9040634e-01	  -3.7765721e-01	
   1.1599500e+02	   5.2541017e-01	  -1.2525132e-01	
   1.1605000e+02	   4.1947500e-01	  -1.0301389e-01	
   1.1610500e+02	   6.2287169e-01	  -1.4349352e-01	
   1.1616000e+02	   3.2659713e-01	  -3.1713521e-01	
   1.1621500e+02	   4.3213231e-01	  -7.9788103e-02	
   1.1627000e+02	   3.4367664e-01	  -1.0964755e-01	
   1.1632500e+02	   5.7282623e-01	  -1.3320478e-01	
   1.1638000e+02	  -5.7206738e-02	  -3.1588224e-01	
   1.1643500e+02	   7.3257883e-02	  -3.4624860e-01	
   1.1649000e+02	   2.3275364e-02	  -1.8555266e-01	
   1.1654500e+02	   1.7094313e-01	  -4.3263079e-01	
   1.1660000e+02	  -1.7453309e-01	  -4.2143697e-01	
   1.1665500e+02	   2.2332642e-01	  -4.7923234e-01	
   1.1671000e+02	   5.9853713e-01	  -8.4753815e-02	
   1.1676500e+02	   4.1974659e-01	  -3.5450241e-01	
   1.1682000e+02	   2.6423090e-01	  -2.9140930e-01	
   1.1687500e+02	   6.1041105e-01	  -1.3746368e-01	
   1.1693000e+02	   6.5892915e-01	  -1.8603611e-02	
   1.1698500e+02	   4.9354542e-01	  -1.6998449e-01	
   1.1704000e+02	   3.4885215e-01	  -1.6998449e-01	
   1.1709500e+02	   1.8675542e-01	  -8.8012774e-02	
   1.1715000e+02	   2.1209703e-01	  -2.3307672e-01	
   1.1720500e+02	   5.1072899e-02	  -3.8699159e-01	
   1.1726000e+02	  -4.6788668e-02	  -3.0769334e-01	
   1.1731500e+02	  -1.1360786e-01	  -4.1479877e-01	
   1.1737000e+02	  -7.4698943e-02	  -3.4587493e-01	
   1.1742500e+02	   2.6589224e-01	  -4.3157452e-01	
   1.1748000e+02	   7.2808489e-01	  -2.5623501e-01	
   1.1753500e+02	   6.8607441e-01	  -5.1822974e-02	
   1.1759000e+02	   5.1187630e-01	  -1.9532949e-01	
   1.1764500e+02	   5.0659220e-01	  -3.8538920e-01	
   1.1770000e+02	   1.4265995e-01	  -2.2501245e-01	
   1.1775500e+02	   4.0812104e-01	  -1.2546662e-01	
   1.1781000e+02	   5.0393642e-01	  -1.1916450e-01	
   1.1786500e+02	   1.6154555e-01	  -2.8523957e-01	
   1.1792000e+02	   4.6297706e-01	  -3.5848576e-01	
   1.1797500e+02	  -1.1312819e-01	  -4.1872024e-01	
   1.1803000e+02	   1.9355664e-01	  -3.0522710e-01	
   1.1808500e+02	  -2.1249829e-01	  -6.2565401e-01	
   1.1814000e+02	   2.8827731e-01	  -4.6027223e-01	
   1.1819500e+02	   3.2191141e-01	  -2.2081875e-01	
   1.1825000e+02	   7.2067211e-01	  -2.6693752e-01	
   1.1830500e+02	   6.9817032e-01	  -1.7102034e-01	
   1.1836000e+02	   5.1284422e-01	  -2.3591509e-01	
   1.1841500e+02	   7.5136344e-01	  -5.3940453e-02	
   1.1847000e+02	   5.8459376e-01	  -1.8190802e-01	
   1.1852500e+02	   5.6338884e-01	  -2.3447634e-01	
   1.1858000e+02	  -3.0541279e-02	  -3.0620341e-01	
   1.1863500e+02	   4.6226341e-01	  -2.6534927e-01	
   1.1869000e+02	   2.6484774e-01	  -2.9034839e-01	
   1.1874500e+02	   1.3664888e-01	  -3.2954039e-01	
   1.1880000e+02	   6.1844619e-02	  -5.3560638e-01	
   1.1885500e+02	   2.0251979e-01	  -3.5938273e-01	
   1.1891000e+02	   5.3539388e-01	  -1.1789095e-01	
   1.1896500e+02	   8.7557001e-01	  -9.4917568e-02	
   1.1902000e+02	   7.6838077e-01	  -1.4855883e-01	
   1.1907500e+02	   4.3422444e-01	  -1.0092648e-01	
   1.1913000e+02	   5.5819826e-01	  -1.6454489e-01	
   1.1918500e+02	   5.9567624e-01	  -1.4248997e-01	
   1.1924000e+02	   1.1934095e-01	  -1.8845251e-01	
   1.1929500e+02	   4.0305167e-01	  -2.0548389e-01	
   1.1935000e+02	   2.7637033e-01	  -2.2548462e-01	
   1.1940500e+02	  -7.9965228e-02	  -2.0556895e-01	
   1.1946000e+02	   2.8954463e-02	  -4.4263147e-01	
   1.1951500e+02	   8.3573454e-02	  -3.1250451e-01	
   1.1957000e+02	   4.1855034e-01	  -3.1502434e-01	
   1.1962500e+02	   1.3396311e-01	  -4.1166750e-01	
   1.1968000e+02	   4.3825906e-01	  -3.5741216e-01	
   1.1973500e+02	   6.2946586e-01	  -1.2307596e-02	
   1.1979000e+02	   5.2032753e-01	  -7.9872283e-02	
   1.1984500e+02	   3.5937205e-01	  -7.7209442e-02	
   1.1990000e+02	   3.7040593e-01	  -5.8507370e-02	
   1.1995500e+02	   6.9319774e-01	  -4.3346708e-02	
   1.2001000e+02	   3.5096819e-01	  -1.2561944e-01	
   1.2006500e+02	   4.6819581e-01	  -1.7569358e-01	
   1.2012000e+02	   2.3903724e-01	  -8.0619873e-02	
   1.2017500e+02	  -2.3420459e-01	  -3.5868831e-01	
   1.2023000e+02	   1.5851359e-01	  -2.4321785e-01	
   1.2028500e+02	   1.7719985e-01	  -2.6391675e-01	
   1.2034000e+02	   2.2043302e-01	  -3.6085121e-01	
   1.2039500e+02	  -1.6936193e-01	  -3.3334731e-01	
   1.2045000e+02	   8.9178825e-02	  -4.4007211e-01	
   1.2050500e+02	  -1.7470969e-01	  -4.0285152e-01	
   1.2056000e+02	   8.0397884e-02	  -5.1570851e-01	
   1.2061500e+02	   5.4214276e-01	  -2.5460260e-01	
   1.2067000e+02	   7.1893075e-01	  -4.0302248e-02	
   1.2072500e+02	   6.1275837e-01	  -3.8777725e-02	
   1.2078000e+02	   5.9787713e-01	  -1.8668049e-01	
   1.2083500e+02	   3.7610280e-01	  -7.8527761e-02	
   1.2089000e+02	   5.7894010e-01	   7.2444874e-02	
   1.2094500e+02	   2.7312141e-01	  -1.1911284e-01	
   1.2100000e+02	   7.0186535e-02	  -2.6867324e-01	
   1.2105500e+02	   2.0182941e-01	  -2.8907029e-01	
   1.2111000e+02	   4.0062366e-01	  -1.9834993e-01	
   1.2116500e+02	   1.4607606e-01	  -2.1750981e-01	
   1.2122000e+02	  -4.0355787e-02	  -4.4453641e-01	
   1.2127500e+02	  -2.1963845e-01	  -4.4688243e-01	
   1.2133000e+02	  -2.7807866e-02	  -3.7917716e-01	
   1.2138500e+02	   9.2181343e-02	  -2.9916381e-01	
   1.2144000e+02	   3.0760626e-01	  -2.1212647e-01	
   1.2149500e+02	   3.7167006e-01	  -8.2731601e-02	
   1.2155000e+02	   4.0540551e-01	   2.7887884e-03	
   1.2160500e+02	   3.8590265e-01	  -1.5162945e-01	
   1.2166000e+02	   4.5506744e-01	  -1.1761858e-01	
   1.2171500e+02	   2.0250329e-01	  -1.9789313e-01	
   1.2177000e+02	  -2.0809764e-01	  -2.4241842e-01	
   1.2182500e+02	   2.4000779e-01	  -1.9202125e-01	
   1.2188000e+02	  -2.1873225e-02	  -3.5761121e-01	
   1.2193500e+02	   3.3114647e-02	  -4.4661280e-01	
   1.2199000e+02	  -2.8824316e-01	  -3.1255435e-01	
   1.2204500e+02	  -7.2211806e-02	  -4.0512976e-01	
   1.2210000e+02	   1.7613219e-01	  -2.4844809e-01	
   1.2215500e+02	   1.3259063e-01	  -1.5306037e-01	
   1.2221000e+02	   1.9305288e-01	  -6.9685057e-02	
   1.2226500e+02	   1.5031031e-01	  -3.1438081e-01	
   1.2232000e+02	   2.3498770e-01	  -2.5710989e-01	
   1.2237500e+02	   1.1057209e-01	  -3.4673088e-01	
   1.2243000e+02	   1.9147471e-01	  -1.5553126e-01	
   1.2248500e+02	   3.2844750e-02	  -5.8553441e-02	
   1.2254000e+02	   5.4911771e-02	  -2.7006609e-01	
   1.2259500e+02	  -3.7988567e-02	  -2.8370862e-01	
   1.2265000e+02	  -2.5300490e-01	  -4.6940528e-01	
   1.2270500e+02	  -3.3948686e-01	  -3.7977887e-01	
   1.2276000e+02	  -7.3275314e-01	  -5.8535606e-01	
   1.2281500e+02	   9.7868814e-02	  -3.1053483e-01	
   1.2287000e+02	   3.9712198e-01	  -5.6325970e-02	
   1.2292500e+02	   1.0722767e-01	  -2.3873247e-01	
   1.2298000e+02	   3.9913003e-01	  -9.5901389e-02	
   1.2303500e+02	   1.5796412e-01	  -1.1916465e-01	
   1.2309000e+02	   5.3399692e-01	   3.5468010e-02	
   1.2314500e+02	   4.3003276e-01	  -1.2983546e-01	
   1.2320000e+02	   3.0116299e-01	  -1.9571434e-01	
   1.2325500e+02	   2.2690361e-01	  -5.9424236e-02	
   1.2331000e+02	   1.3191080e-01	  -2.0019349e-01	
   1.2336500e+02	  -1.1275515e-02	  -1.8852112e-01	
   1.2342000e+02	  -3.1253569e-01	  -2.7256516e-01	
   1.2347500e+02	  -3.8358225e-01	  -3.8681165e-01	
   1.2353000e+02	  -1.8779781e-01	  -3.1379589e-01	
   1.2358500e+02	   5.0051721e-01	   2.6611216e-02	
   1.2364000e+02	   1.6180132e-01	  -1.1388158e-01	
   1.2369500e+02	   5.8420358e-01	   1.7395745e-01	
   1.2375000e+02	   3.3788077e-01	   1.2272947e-01	
   1.2380500e+02	   1.7422854e-01	  -8.0675922e-02	
   1.2386000e+02	   3.7698913e-01	  -1.6836044e-02	
   1.2391500e+02	   5.7771027e-01	   1.7510317e-01	
   1.2397000e+02	   5.7294819e-01	   6.9320307e-02	
   1.2402500e+02	   3.6653677e-01	  -3.7813348e-02	
   1.2408000e+02	   5.0645785e-02	  -5.5132525e-02	
   1.2413500e+02	   7.7090309e-02	  -1.9043312e-01	
   1.2419000e+02	  -9.9514324e-03	  -1.4776190e-01	
   1.2424500e+02	  -8.2333173e-02	  -2.0041588e-01	
   1.2430000e+02	  -5.2899233e-03	  -3.5555783e-01	
   1.2435500e+02	   1.3488788e-01	  -1.8797751e-01	
   1.2441000e+02	   5.1914444e-01	   3.9386275e-02	
   1.2446500e+02	   7.5533377e-01	   1.0353326e-01	
   1.2452000e+02	   4.4490346e-01	  -1.4064564e-02	
   1.2457500e+02	   2.4254527e-01	  -1.4884013e-02	
   1.2463000e+02	   4.4539913e-01	   2.2264921e-01	
   1.2468500e+02	   8.3583196e-01	   3.3769831e-01	
   1.2474000e+02	  -6.3705858e-02	  -9.4774695e-02	
   1.2479500e+02	   2.3047387e-01	  -1.8345855e-01	
   1.2485000e+02	   4.6939471e-01	   5.0855260e-02	
   1.2490500e+02	   5.6222067e-02	  -1.0328566e-01	
   1.2496000e+02	  -4.7863339e-02	  -2.5308445e-01	
   1.2501500e+02	   4.7517803e-02	  -1.4240010e-01	
   1.2507000e+02	   6.8962796e-01	   1.6075265e-01	
   1.2512500e+02	   3.8309484e-01	   1.0704139e-01	
   1.2518000e+02	   6.3669513e-01	   2.1674995e-02	
   1.2523500e+02	   4.2592651e-01	   1.1383997e-01	
   1.2529000e+02	   5.8817886e-01	   2.5827672e-01	
   1.2534500e+02	   7.5215702e-01	   1.7981211e-01	
   1.2540000e+02	   5.0173382e-01	   9.0832417e-02	
   1.2545500e+02	   4.2687853e-01	   1.1805545e-01	
   1.2551000e+02	   1.0417291e-01	  -6.1437111e-02	
   1.2556500e+02	   5.6312710e-01	  -4.2976090e-02	
   1.2562000e+02	  -8.2416191e-03	  -2.6445629e-01	
   1.2567500e+02	   1.1936848e-01	  -5.0087220e-02	
   1.2573000e+02	   9.6389785e-01	   1.7456043e-01	
   1.2578500e+02	   6.4536531e-01	   5.1307828e-02	
   1.2584000e+02	   8.1592016e-01	   2.6640034e-01	
   1.2589500e+02	   5.5276722e-01	   8.3476004e-02	
   1.2595000e+02	   6.0720189e-01	   2.4718237e-01	
   1.2600500e+02	   7.1675111e-01	   2.4853368e-01	
   1.2606000e+02	   5.6527646e-01	   2.1152053e-01	
   1.2611500e+02	   5.7845299e-01	   1.5791089e-02	
   1.2617000e+02	   4.3858335e-01	   3.0527760e-01	
   1.2622500e+02	   6.2835677e-01	   2.2738992e-01	
   1.2628000e+02	   3.7792066e-01	  -1.5229409e-01	
   1.2633500e+02	   9.6243175e-02	  -2.1152413e-01	
   1.2639000e+02	   4.6129649e-01	   1.1397615e-01	
   1.2644500e+02	   6.1223204e-01	   4.1291209e-01	
   1.2650000e+02	   8.1545152e-01	   2.1226028e-01	
   1.2655500e+02	   9.0976414e-01	   3.6013967e-01	
   1.2661000e+02	   9.8746391e-01	   3.9646529e-01	
   1.2666500e+02	   1.1165553e+00	   2.7516894e-01	
   1.2672000e+02	   8.9162816e-01	   1.5618183e-01	
   1.2677500e+02	   8.1013259e-01	   2.9710784e-01	
   1.2683000e+02	   7.6352830e-01	   1.4184860e-01	
