
0   2   1   4   
   0.0000000e+00	   1.7003326e+00	   4.8139142e+00	   1.6666574e+00	
   5.5000000e-02	   1.5892086e+00	   4.7181847e+00	   1.9896659e+00	
   1.1000000e-01	   1.5833932e+00	   5.1182705e+00	   2.1871514e+00	
   1.6500000e-01	   1.2342237e+00	   4.7722422e+00	   1.1802557e+00	
   2.2000000e-01	   1.6005621e+00	   5.0788815e+00	   1.2868669e+00	
   2.7500000e-01	   1.4425833e+00	   5.0881404e+00	   1.6434889e+00	
   3.3000000e-01	   1.3598019e+00	   4.8985688e+00	   1.1740099e+00	
   3.8500000e-01	   1.0232592e+00	   4.5227023e+00	   1.4665134e+00	
   4.4000000e-01	   1.2399072e+00	   4.7327834e+00	   1.4032996e+00	
   4.9500000e-01	   1.5815618e+00	   4.6174103e+00	   1.9409839e+00	
   5.5000000e-01	   1.5262784e+00	   4.9045748e+00	   1.6669644e+00	
   6.0500000e-01	   1.4616994e+00	   5.1225198e+00	   1.6482700e+00	
   6.6000000e-01	   1.5414840e+00	   5.1062239e+00	   1.8839422e+00	
   7.1500000e-01	   1.3615758e+00	   5.2599547e+00	   2.0890782e+00	
   7.7000000e-01	   1.3371573e+00	   4.5266031e+00	   1.6443308e+00	
   8.2500000e-01	   1.3908838e+00	   4.8993890e+00	   1.7489447e+00	
   8.8000000e-01	   1.3412832e+00	   4.9208459e+00	   1.7173151e+00	
   9.3500000e-01	   1.1599373e+00	   4.9896376e+00	   1.5300761e+00	
   9.9000000e-01	   1.0424617e+00	   4.6081526e+00	   1.1176886e+00	
   1.0450000e+00	   9.1486439e-01	   4.3472425e+00	   1.3536947e+00	
   1.1000000e+00	   1.4227810e+00	   4.9859251e+00	   1.2354054e+00	
   1.1550000e+00	   1.3372502e+00	   4.8373986e+00	   2.0441015e+00	
   1.2100000e+00	   1.2918237e+00	   4.8067261e+00	   2.0121528e+00	
   1.2650000e+00	   1.4995689e+00	   5.0535093e+00	   2.0497961e+00	
   1.3200000e+00	   1.6343580e+00	   5.2345196e+00	   2.0855194e+00	
   1.3750000e+00	   1.3981755e+00	   4.9768427e+00	   1.7588458e+00	
   1.4300000e+00	   1.5128189e+00	   5.0799091e+00	   1.5757132e+00	
   1.4850000e+00	   1.2615580e+00	   4.7680808e+00	   1.4936238e+00	
   1.5400000e+00	   1.2192570e+00	   5.0682954e+00	   1.4526532e+00	
   1.5950000e+00	   1.2929102e+00	   4.8731335e+00	   1.7938450e+00	
   1.6500000e+00	   1.0215093e+00	   4.5568030e+00	   1.0449214e+00	
   1.7050000e+00	   8.8417056e-01	   4.6388645e+00	   1.3087265e+00	
   1.7600000e+00	   1.2742770e+00	   4.8970098e+00	   1.7752529e+00	
   1.8150000e+00	   1.5761333e+00	   5.3698250e+00	   2.0672323e+00	
   1.8700000e+00	   1.5145030e+00	   5.3851359e+00	   1.9949195e+00	
   1.9250000e+00	   1.3339741e+00	   5.2157331e+00	   1.8099694e+00	
   1.9800000e+00	   1.5521256e+00	   5.1911109e+00	   1.8650560e+00	
   2.0350000e+00	   1.3594090e+00	   4.9633801e+00	   2.2223909e+00	
   2.0900000e+00	   1.5486384e+00	   5.2266004e+00	   1.8494030e+00	
   2.1450000e+00	   1.2320336e+00	   5.1515695e+00	   1.4936238e+00	
   2.2000000e+00	   1.2943445e+00	   5.1770804e+00	   1.9536706e+00	
   2.2550000e+00	   1.5370335e+00	   4.9912687e+00	   1.8682167e+00	
   2.3100000e+00	   9.5357858e-01	   4.9715647e+00	   1.2262358e+00	
   2.3650000e+00	   1.0656129e+00	   4.8987500e+00	   1.3301358e+00	
   2.4200000e+00	   1.2739461e+00	   5.2665310e+00	   1.9294006e+00	
   2.4750000e+00	   1.5629389e+00	   5.3766555e+00	   2.2446110e+00	
   2.5300000e+00	   1.5280858e+00	   5.2270717e+00	   2.0780275e+00	
   2.5850000e+00	   1.7060037e+00	   5.4915355e+00	   1.9998994e+00	
   2.6400000e+00	   1.6485357e+00	   5.7138342e+00	   2.2426557e+00	
   2.6950000e+00	   1.5589776e+00	   5.4432708e+00	   2.1385376e+00	
   2.7500000e+00	   1.4436780e+00	   4.9817364e+00	   2.3529819e+00	
   2.8050000e+00	   1.4950406e+00	   4.9730401e+00	   2.1720047e+00	
   2.8600000e+00	   1.5664012e+00	   5.3669722e+00	   1.9806867e+00	
   2.9150000e+00	   1.2043307e+00	   5.2672848e+00	   1.7844563e+00	
   2.9700000e+00	   1.2586862e+00	   5.0425135e+00	   2.1300860e+00	
   3.0250000e+00	   1.2661137e+00	   5.0158817e+00	   1.7026032e+00	
   3.0800000e+00	   1.3344571e+00	   5.1252926e+00	   1.7752529e+00	
   3.1350000e+00	   1.3550650e+00	   5.3726036e+00	   1.5353967e+00	
   3.1900000e+00	   1.5166465e+00	   5.5056276e+00	   2.1113606e+00	
   3.2450000e+00	   1.6911905e+00	   5.3978560e+00	   2.2286600e+00	
   3.3000000e+00	   1.7717732e+00	   5.5219946e+00	   2.7506718e+00	
   3.3550000e+00	   1.6460703e+00	   5.3628681e+00	   2.7066520e+00	
   3.4100000e+00	   1.6181684e+00	   5.3484370e+00	   2.4745734e+00	
   3.4650000e+00	   1.6508079e+00	   5.1730784e+00	   2.1904734e+00	
   3.5200000e+00	   1.7656384e+00	   5.5140040e+00	   2.6031562e+00	
   3.5750000e+00	   1.6345066e+00	   5.3603160e+00	   2.0546918e+00	
   3.6300000e+00	   1.3900211e+00	   5.2085832e+00	   2.4331918e+00	
   3.6850000e+00	   1.3898119e+00	   5.1099242e+00	   2.1204104e+00	
   3.7400000e+00	   1.2769092e+00	   5.0513110e+00	   2.1806371e+00	
   3.7950000e+00	   1.1669278e+00	   4.8702149e+00	   1.6974737e+00	
   3.8500000e+00	   1.1443334e+00	   4.9707987e+00	   2.2623141e+00	
   3.9050000e+00	   1.4726706e+00	   5.3025067e+00	   1.9934984e+00	
   3.9600000e+00	   1.4665686e+00	   5.5547217e+00	   2.7191039e+00	
   4.0150000e+00	   1.6139358e+00	   5.7926713e+00	   2.7212051e+00	
   4.0700000e+00	   1.7063377e+00	   5.4285589e+00	   2.7863186e+00	
   4.1250000e+00	   1.6484820e+00	   5.6451295e+00	   2.6578215e+00	
   4.1800000e+00	   1.4802695e+00	   5.5527811e+00	   2.4796549e+00	
   4.2350000e+00	   1.4260255e+00	   5.6339064e+00	   2.2381382e+00	
   4.2900000e+00	   1.5537978e+00	   5.6183405e+00	   2.1870879e+00	
   4.3450000e+00	   1.3579560e+00	   5.0515611e+00	   1.9791575e+00	
   4.4000000e+00	   1.3287693e+00	   4.9697041e+00	   2.4063193e+00	
   4.4550000e+00	   1.3363562e+00	   5.1302049e+00	   2.3964709e+00	
   4.5100000e+00	   9.3866077e-01	   4.9805684e+00	   1.7344584e+00	
   4.5650000e+00	   1.3020747e+00	   5.1706701e+00	   2.5774301e+00	
   4.6200000e+00	   1.4656072e+00	   5.8405896e+00	   2.1871514e+00	
   4.6750000e+00	   1.7339391e+00	   5.7420220e+00	   2.8120578e+00	
   4.7300000e+00	   1.7626693e+00	   5.4854754e+00	   2.6290423e+00	
   4.7850000e+00	   1.6240428e+00	   5.4314214e+00	   2.6941906e+00	
   4.8400000e+00	   1.8177785e+00	   5.6210711e+00	   2.8991314e+00	
   4.8950000e+00	   1.6352948e+00	   5.7067958e+00	   2.4796549e+00	
   4.9500000e+00	   1.6529965e+00	   5.5888598e+00	   2.4187443e+00	
   5.0050000e+00	   1.6039469e+00	   5.6460530e+00	   2.6148554e+00	
   5.0600000e+00	   1.6234865e+00	   5.4779106e+00	   2.2614675e+00	
   5.1150000e+00	   1.4431743e+00	   5.5459291e+00	   2.5009519e+00	
   5.1700000e+00	   1.4427799e+00	   5.1870496e+00	   1.8909849e+00	
   5.2250000e+00	   1.1653923e+00	   5.0019323e+00	   1.7730070e+00	
   5.2800000e+00	   1.4931742e+00	   5.4521702e+00	   2.3944175e+00	
   5.3350000e+00	   1.6563748e+00	   5.5494601e+00	   2.9408223e+00	
   5.3900000e+00	   1.8626763e+00	   5.6441338e+00	   2.8659583e+00	
   5.4450000e+00	   1.7663891e+00	   5.6426704e+00	   3.3021679e+00	
   5.5000000e+00	   1.8482206e+00	   5.7014631e+00	   3.1274506e+00	
   5.5550000e+00	   1.7645589e+00	   5.7952954e+00	   2.6626363e+00	
   5.6100000e+00	   1.9620753e+00	   5.6335748e+00	   3.1040223e+00	
   5.6650000e+00	   1.7172620e+00	   5.2613818e+00	   2.6401871e+00	
   5.7200000e+00	   1.5864653e+00	   5.4185492e+00	   2.0890782e+00	
   5.7750000e+00	   1.9026251e+00	   5.5137740e+00	   2.8106008e+00	
   5.8300000e+00	   1.6808491e+00	   5.6326046e+00	   2.6167946e+00	
   5.8850000e+00	   1.4804483e+00	   5.1781425e+00	   2.2187670e+00	
   5.9400000e+00	   1.6467736e+00	   5.5443413e+00	   2.2934925e+00	
   5.9950000e+00	   1.7045654e+00	   5.6030701e+00	   2.0796159e+00	
   6.0500000e+00	   1.6355415e+00	   5.6929739e+00	   2.4622924e+00	
   6.1050000e+00	   1.7209436e+00	   5.2701362e+00	   2.5920810e+00	
   6.1600000e+00	   1.8855506e+00	   5.7986664e+00	   2.4874007e+00	
   6.2150000e+00	   1.8410380e+00	   5.9696329e+00	   2.8258861e+00	
   6.2700000e+00	   1.5975143e+00	   5.5879329e+00	   2.8363710e+00	
   6.3250000e+00	   1.7160878e+00	   5.4583622e+00	   2.6816956e+00	
   6.3800000e+00	   1.7519248e+00	   5.9005040e+00	   2.6012231e+00	
   6.4350000e+00	   1.7681709e+00	   5.5067702e+00	   2.5620079e+00	
   6.4900000e+00	   1.5431092e+00	   5.7219538e+00	   2.3777737e+00	
   6.5450000e+00	   1.4415595e+00	   5.1230648e+00	   2.1998719e+00	
   6.6000000e+00	   1.3899076e+00	   5.2271853e+00	   2.3960157e+00	
   6.6550000e+00	   1.3465956e+00	   5.1512713e+00	   2.5601778e+00	
   6.7100000e+00	   1.1540464e+00	   5.0367981e+00	   2.1108363e+00	
   6.7650000e+00	   1.4469202e+00	   5.4253148e+00	   2.3608972e+00	
   6.8200000e+00	   1.6297609e+00	   5.5912444e+00	   2.6000593e+00	
   6.8750000e+00	   1.5889112e+00	   5.4559271e+00	   2.7289497e+00	
   6.9300000e+00	   1.6249727e+00	   5.7652741e+00	   2.3750319e+00	
   6.9850000e+00	   1.5698452e+00	   5.4976500e+00	   2.5162643e+00	
   7.0400000e+00	   1.5463898e+00	   5.3307742e+00	   2.7965404e+00	
   7.0950000e+00	   1.3650842e+00	   4.7523338e+00	   2.6961350e+00	
   7.1500000e+00	   8.0474889e-02	   8.8537333e-01	   1.7641478e+00	
   7.2050000e+00	   1.2603395e+00	   5.5393815e+00	   1.9351437e+00	
   7.2600000e+00	   1.1630578e+00	   4.9624723e+00	   2.3753456e+00	
   7.3150000e+00	   1.1039174e+00	   5.2706591e+00	   2.5267269e+00	
   7.3700000e+00	   9.7974137e-01	   5.2244437e+00	   1.6659159e+00	
   7.4250000e+00	   1.3009506e+00	   5.3786554e+00	   2.1810178e+00	
   7.4800000e+00	   1.3279336e+00	   5.3851408e+00	   2.5136795e+00	
   7.5350000e+00	   1.4780440e+00	   5.1789820e+00	   2.1745710e+00	
   7.5900000e+00	   1.4656105e+00	   5.1878918e+00	   2.8382313e+00	
   7.6450000e+00	   1.2563160e+00	   5.2352167e+00	   2.4429424e+00	
   7.7000000e+00	   1.2512094e+00	   4.9789572e+00	   2.3750319e+00	
   7.7550000e+00	   1.2344153e+00	   5.2146544e+00	   2.2127558e+00	
   7.8100000e+00	   1.2615580e+00	   5.2741685e+00	   2.0745431e+00	
   7.8650000e+00	   1.0952681e+00	   5.0478032e+00	   1.7989920e+00	
   7.9200000e+00	   8.7466891e-01	   4.7457063e+00	   1.6124561e+00	
   7.9750000e+00	   1.2163157e+00	   4.7920018e+00	   2.5756463e+00	
   8.0300000e+00	   1.1215521e+00	   4.8775224e+00	   1.8494030e+00	
   8.0850000e+00	   1.1819205e+00	   5.0430751e+00	   2.6696522e+00	
   8.1400000e+00	   1.3200047e+00	   5.1623270e+00	   2.5239133e+00	
   8.1950000e+00	   1.4661486e+00	   5.0893507e+00	   2.1677229e+00	
   8.2500000e+00	   1.4224959e+00	   5.1386432e+00	   2.4879113e+00	
   8.3050000e+00	   1.3027059e+00	   5.0027888e+00	   2.3724638e+00	
   8.3600000e+00	   1.0638394e+00	   5.0740269e+00	   2.3914653e+00	
   8.4150000e+00	   1.2803056e+00	   4.9932611e+00	   2.3116088e+00	
   8.4700000e+00	  -2.5166446e-01	   9.0966985e-01	   1.2905253e+00	
   8.5250000e+00	  -5.5840472e-01	   7.1284849e-01	   1.1476883e+00	
   8.5800000e+00	  -4.3895442e-01	   4.5431794e-01	   1.1652099e+00	
   8.6350000e+00	  -5.7691183e-01	   3.5059504e-01	   6.5484075e-01	
   8.6900000e+00	  -5.0707959e-01	   3.8295269e-01	   9.1074239e-01	
   8.7450000e+00	  -2.9140476e-01	   5.4098246e-01	   1.4398190e+00	
   8.8000000e+00	  -1.5283455e-01	   5.0569294e-01	   1.5308212e+00	
   8.8550000e+00	  -1.6571363e-01	   7.2073851e-01	   1.4351697e+00	
   8.9100000e+00	  -1.9482046e-01	   6.7573242e-01	   1.4938537e+00	
   8.9650000e+00	  -2.8253819e-01	   2.6708820e-01	   1.3132641e+00	
   9.0200000e+00	  -2.4594462e-01	   3.8874395e-01	   1.1781040e+00	
   9.0750000e+00	  -2.6581666e-01	   7.4431535e-01	   1.4124270e+00	
   9.1300000e+00	   6.2825855e-01	   3.2540612e+00	   1.4424297e+00	
   9.1850000e+00	   8.3448246e-01	   4.4065493e+00	   1.4303086e+00	
   9.2400000e+00	   9.8227189e-01	   4.5294316e+00	   1.7920216e+00	
   9.2950000e+00	   9.3729580e-01	   4.4779269e+00	   1.6569408e+00	
   9.3500000e+00	   1.0678015e+00	   4.9057785e+00	   2.0136326e+00	
   9.4050000e+00	   1.2661570e+00	   4.9433680e+00	   2.2479377e+00	
   9.4600000e+00	   1.1372588e+00	   4.5243049e+00	   1.8885984e+00	
   9.5150000e+00	   1.2594654e+00	   4.8955495e+00	   2.3019061e+00	
   9.5700000e+00	   1.2753577e+00	   4.8438363e+00	   1.7711823e+00	
   9.6250000e+00	   1.1099676e+00	   4.7875565e+00	   1.6805756e+00	
   9.6800000e+00	   1.1065072e+00	   4.7828848e+00	   1.5540903e+00	
   9.7350000e+00	   1.0326685e+00	   4.7972258e+00	   1.2449024e+00	
   9.7900000e+00	   1.0525126e+00	   4.5548339e+00	   1.2435777e+00	
   9.8450000e+00	   8.8048617e-01	   4.4255851e+00	   9.8454059e-01	
   9.9000000e+00	   8.4618472e-01	   4.6710850e+00	   1.1565534e+00	
   9.9550000e+00	   1.0074133e+00	   4.4411387e+00	   1.5331583e+00	
   1.0010000e+01	   1.2374824e+00	   4.3424437e+00	   1.7229346e+00	
   1.0065000e+01	   1.0827227e+00	   4.4648937e+00	   1.6089652e+00	
   1.0120000e+01	   1.3338482e+00	   5.0132905e+00	   1.4424297e+00	
   1.0175000e+01	   1.2572658e+00	   5.0499016e+00	   1.7547192e+00	
   1.0230000e+01	   1.3931366e+00	   4.8394887e+00	   1.5512454e+00	
   1.0285000e+01	   1.0688575e+00	   4.2728632e+00	   1.6497582e+00	
   1.0340000e+01	  -1.3252419e-01	   6.8198450e-01	   5.6804621e-01	
   1.0395000e+01	  -1.0136721e-01	   5.6163722e-02	   7.9348106e-01	
   1.0450000e+01	   1.2936191e+00	   4.9226467e+00	   1.3778285e+00	
   1.0505000e+01	   8.0877182e-01	   4.3082615e+00	   1.5381327e+00	
   1.0560000e+01	   9.8893516e-01	   4.5059577e+00	   1.4143517e+00	
   1.0615000e+01	   1.1276591e+00	   4.8744457e+00	   1.8800089e+00	
   1.0670000e+01	   1.3055182e+00	   4.5538855e+00	   2.0783629e+00	
   1.0725000e+01	   1.2407703e+00	   4.5202415e+00	   2.1853250e+00	
   1.0780000e+01	   1.2382002e+00	   5.1827708e+00	   1.9785954e+00	
   1.0835000e+01	  -8.3849888e-02	   7.7186628e-01	   1.4780226e+00	
   1.0890000e+01	  -2.2985773e-01	   4.2840541e-01	   1.2628909e+00	
   1.0945000e+01	  -2.1719931e-01	   2.1317019e-01	   1.1178292e+00	
   1.1000000e+01	   9.7930707e-01	   4.2424322e+00	   1.1651521e+00	
   1.1055000e+01	   1.1178718e+00	   4.3211502e+00	   1.6618415e+00	
   1.1110000e+01	   1.0338292e+00	   4.4395179e+00	   1.7533250e+00	
   1.1165000e+01	   8.5944237e-01	   4.3456946e+00	   1.2886366e+00	
   1.1220000e+01	   1.3067461e+00	   4.7635541e+00	   2.2458344e+00	
   1.1275000e+01	   1.3955437e+00	   4.5508488e+00	   2.2669391e+00	
   1.1330000e+01	   1.3215453e+00	   4.7962263e+00	   2.1328953e+00	
   1.1385000e+01	   1.2601692e+00	   4.5150279e+00	   2.2623141e+00	
   1.1440000e+01	   1.2249889e+00	   4.3651996e+00	   2.3385363e+00	
   1.1495000e+01	   2.1687438e-01	   1.3312302e+00	   1.9099031e+00	
   1.1550000e+01	  -3.1429555e-01	  -1.0272555e-01	   1.5147602e+00	
   1.1605000e+01	  -3.9314441e-01	  -1.6770216e-01	   1.6431843e+00	
   1.1660000e+01	   9.9441826e-01	   4.1721793e+00	   1.7080506e+00	
   1.1715000e+01	   1.1896160e+00	   4.5227177e+00	   1.9906704e+00	
   1.1770000e+01	   1.0703095e+00	   4.3914612e+00	   1.6709908e+00	
   1.1825000e+01	   9.9759272e-01	   4.0248284e+00	   1.6720645e+00	
   1.1880000e+01	   1.2945674e+00	   4.2390903e+00	   2.0891153e+00	
   1.1935000e+01	   1.1757397e+00	   4.4914741e+00	   2.5132234e+00	
   1.1990000e+01	   1.2381873e+00	   4.4690117e+00	   2.5818592e+00	
   1.2045000e+01	   6.8493031e-02	   1.1652539e+00	   1.6752562e+00	
   1.2100000e+01	  -2.0541674e-01	   6.1971455e-02	   1.7919675e+00	
   1.2155000e+01	  -2.0083661e-01	   1.6164843e-01	   1.6646084e+00	
   1.2210000e+01	  -2.2207229e-01	  -1.3896921e-01	   1.8843035e+00	
   1.2265000e+01	  -2.9236953e-01	  -3.7511472e-01	   1.4607723e+00	
   1.2320000e+01	  -2.3396570e-01	  -3.1726962e-02	   1.4356507e+00	
   1.2375000e+01	  -3.4768056e-01	  -1.0348630e-01	   1.7700718e+00	
   1.2430000e+01	  -4.2611971e-01	  -1.8028322e-01	   1.0899953e+00	
   1.2485000e+01	  -5.0071443e-01	  -1.1868017e-01	   1.2718513e+00	
   1.2540000e+01	  -3.4497855e-01	   1.0365013e-01	   1.6734677e+00	
   1.2595000e+01	  -1.3258751e-01	  -5.6368904e-02	   2.0512183e+00	
   1.2650000e+01	  -2.1096679e-02	   1.8509473e-01	   2.0637303e+00	
   1.2705000e+01	  -1.9161336e-01	   2.2764817e-01	   1.7236321e+00	
   1.2760000e+01	  -8.5343009e-02	  -6.9582700e-02	   1.7644267e+00	
   1.2815000e+01	  -8.4624049e-02	  -8.2266565e-02	   2.1355588e+00	
   1.2870000e+01	  -2.2199275e-01	  -8.0130650e-02	   1.8135399e+00	
   1.2925000e+01	  -3.6287338e-01	  -3.9378378e-01	   2.1283350e+00	
   1.2980000e+01	  -3.9205856e-01	  -1.6668425e-01	   1.6493258e+00	
   1.3035000e+01	  -4.1986943e-01	  -8.0113018e-02	   1.5649709e+00	
   1.3090000e+01	  -4.7081105e-01	  -4.4385371e-01	   1.5008767e+00	
   1.3145000e+01	  -2.1131130e-01	   6.0722947e-02	   1.5872255e+00	
   1.3200000e+01	  -1.2107944e-01	   2.4175299e-02	   1.5709585e+00	
   1.3255000e+01	  -2.3540227e-05	   2.5029845e-01	   1.9409839e+00	
   1.3310000e+01	   4.3726606e-02	   5.0189704e-02	   2.2281472e+00	
   1.3365000e+01	  -1.7326836e-01	   7.9561539e-02	   2.2526979e+00	
   1.3420000e+01	  -4.7905807e-03	  -1.9262097e-01	   2.0168207e+00	
   1.3475000e+01	  -1.3717799e-01	   1.2445074e-01	   1.8884300e+00	
   1.3530000e+01	  -2.8558744e-01	  -1.6663581e-01	   1.4391490e+00	
   1.3585000e+01	  -2.9070118e-01	  -1.2267436e-01	   1.5425346e+00	
   1.3640000e+01	  -3.9623883e-01	  -3.2304253e-01	   1.8045083e+00	
   1.3695000e+01	  -3.9260802e-01	  -4.5655699e-01	   1.7672813e+00	
   1.3750000e+01	  -3.7497813e-01	  -1.3221677e-02	   1.6527266e+00	
   1.3805000e+01	  -5.5814026e-01	  -4.0648086e-01	   1.2907680e+00	
   1.3860000e+01	  -1.5450983e-01	  -2.3121588e-01	   1.4164174e+00	
   1.3915000e+01	   1.2690497e-02	   5.1266342e-02	   2.2692955e+00	
   1.3970000e+01	   1.1551137e-01	   9.3790175e-02	   2.3555361e+00	
   1.4025000e+01	   1.1328436e-01	   1.2760891e-01	   2.2921054e+00	
   1.4080000e+01	   5.6715206e-02	   2.9608897e-02	   2.0890782e+00	
   1.4135000e+01	   1.3470262e-01	   2.4796158e-02	   2.2252761e+00	
   1.4190000e+01	   4.4826258e-02	   9.9154218e-02	   2.0384743e+00	
   1.4245000e+01	  -1.4582339e-01	  -1.4240889e-01	   1.7489447e+00	
   1.4300000e+01	   1.7297825e-02	   2.8275206e-02	   1.4346864e+00	
   1.4355000e+01	  -1.0305043e-01	   1.0483735e-01	   1.8028302e+00	
   1.4410000e+01	  -1.6306535e-01	   3.9064758e-02	   1.5346941e+00	
   1.4465000e+01	  -4.3912018e-01	  -2.2837853e-01	   1.4576339e+00	
   1.4520000e+01	  -4.3484608e-01	  -3.7617782e-01	   1.3669715e+00	
   1.4575000e+01	  -3.5267449e-01	  -2.4767940e-02	   1.1070064e+00	
   1.4630000e+01	   4.1687531e-02	  -1.1799971e-01	   1.8661396e+00	
   1.4685000e+01	  -2.4584007e-03	   2.8334889e-01	   1.7631445e+00	
   1.4740000e+01	   9.1245974e-02	   1.8487129e-02	   2.0217731e+00	
   1.4795000e+01	   1.9102983e-01	   1.4126098e-01	   2.4204484e+00	
   1.4850000e+01	   1.7430294e-01	  -1.6702090e-01	   2.2141220e+00	
   1.4905000e+01	   2.3564433e-01	   2.7108717e-01	   2.1652369e+00	
   1.4960000e+01	   1.8500229e-01	   2.8736240e-01	   2.1332433e+00	
   1.5015000e+01	   1.9035109e-01	   3.9545207e-01	   2.3051366e+00	
   1.5070000e+01	   2.0079894e-01	   2.2099244e-01	   2.0927224e+00	
   1.5125000e+01	   1.1248457e-01	   3.3889341e-01	   1.8716406e+00	
   1.5180000e+01	  -1.5176789e-01	   1.2991343e-01	   1.8307582e+00	
   1.5235000e+01	  -1.1341102e-01	   1.8338035e-01	   1.5209715e+00	
   1.5290000e+01	  -3.0890990e-02	   2.6854668e-01	   1.4757893e+00	
   1.5345000e+01	  -2.3930228e-01	   1.7811396e-01	   1.6569408e+00	
   1.5400000e+01	  -1.4964681e-01	  -1.4744867e-01	   1.4078119e+00	
   1.5455000e+01	   3.4030648e-01	   5.2198776e-01	   1.9746245e+00	
   1.5510000e+01	   4.3229935e-01	   6.5276913e-01	   1.8839422e+00	
   1.5565000e+01	   2.3165668e-01	   6.2719067e-01	   2.1104008e+00	
   1.5620000e+01	   9.2990972e-02	   4.2655152e-01	   1.9491995e+00	
   1.5675000e+01	   4.3477296e-01	   5.4867883e-01	   2.2733517e+00	
   1.5730000e+01	   2.6043423e-01	   7.3931686e-01	   1.9427062e+00	
   1.5785000e+01	   3.0085828e-01	   4.8302905e-01	   1.8839422e+00	
   1.5840000e+01	   4.4987638e-02	   5.0053570e-01	   2.0477504e+00	
   1.5895000e+01	   2.1519853e-01	   3.9062496e-01	   2.1716965e+00	
   1.5950000e+01	   6.4175307e-02	   3.6489353e-01	   1.6709553e+00	
   1.6005000e+01	  -1.9381583e-01	   3.3268922e-01	   1.4117707e+00	
   1.6060000e+01	  -2.6042276e-01	   6.9553412e-02	   1.5892783e+00	
   1.6115000e+01	  -3.1438815e-01	   1.6668326e-01	   1.3536947e+00	
   1.6170000e+01	  -3.5297599e-01	   1.2430724e-01	   1.1196042e+00	
   1.6225000e+01	  -9.1968637e-02	   1.1722594e-01	   1.0392219e+00	
   1.6280000e+01	  -3.1100009e-02	   2.0892592e-01	   2.0855194e+00	
   1.6335000e+01	   3.5736540e-01	   6.5112734e-01	   1.8559193e+00	
   1.6390000e+01	   1.0170018e-03	   4.6486323e-01	   1.7733980e+00	
   1.6445000e+01	   6.1329787e-02	   1.7307226e-01	   1.8372698e+00	
   1.6500000e+01	   1.4615719e-01	   4.0962339e-01	   1.7131510e+00	
   1.6555000e+01	   5.0742760e-02	   4.6666397e-01	   1.7765168e+00	
   1.6610000e+01	   5.5285698e-02	   5.7201607e-01	   1.7220852e+00	
   1.6665000e+01	  -5.7108006e-02	   1.4565117e-01	   1.7820395e+00	
   1.6720000e+01	  -2.4609253e-01	  -7.4732798e-02	   1.2032578e+00	
   1.6775000e+01	  -5.9452733e-02	   1.6636980e-01	   1.6252962e+00	
   1.6830000e+01	  -2.3574861e-01	   1.1410607e-01	   1.0683443e+00	
   1.6885000e+01	  -2.8492211e-01	  -3.0318608e-03	   1.1358660e+00	
   1.6940000e+01	  -1.2648237e-01	   4.4187617e-01	   1.7411571e+00	
   1.6995000e+01	   1.9558438e-01	   8.5526395e-01	   2.1457335e+00	
   1.7050000e+01	   1.7164823e-01	   9.0109088e-01	   2.2159890e+00	
   1.7105000e+01	   2.3295156e-01	   2.9990735e-01	   1.8383202e+00	
   1.7160000e+01	   1.0705122e-01	   5.2688180e-01	   1.8099694e+00	
   1.7215000e+01	   1.0843861e-01	   4.3054661e-01	   1.7083374e+00	
   1.7270000e+01	   5.7852839e-02	   4.6992034e-01	   1.5023465e+00	
   1.7325000e+01	  -2.7781710e-01	   6.1503327e-02	   1.4474797e+00	
   1.7380000e+01	  -3.7807128e-02	   2.8429263e-01	   1.3438657e+00	
   1.7435000e+01	  -3.1204439e-01	   1.6394632e-01	   1.4438625e+00	
   1.7490000e+01	  -2.5170201e-01	   4.0412712e-01	   1.6383259e+00	
   1.7545000e+01	  -6.2282937e-01	  -4.7881550e-01	   6.5866709e-01	
   1.7600000e+01	  -6.7845108e-01	  -2.2870656e-01	   1.0878732e+00	
   1.7655000e+01	  -3.5348127e-01	   9.5912371e-03	   1.3722546e+00	
   1.7710000e+01	  -1.2746160e-01	   5.6681806e-01	   1.8775380e+00	
   1.7765000e+01	  -2.4258259e-02	   2.8781944e-01	   1.4876034e+00	
   1.7820000e+01	  -8.3919181e-02	   5.8767239e-01	   1.7172297e+00	
   1.7875000e+01	   2.0858733e-01	   5.4017968e-01	   2.1801372e+00	
   1.7930000e+01	   9.5281510e-02	   4.2689552e-01	   2.0027737e+00	
   1.7985000e+01	   3.3247775e-02	   3.8446653e-01	   1.8796480e+00	
   1.8040000e+01	   9.1369951e-04	   2.0283273e-01	   1.3364361e+00	
   1.8095000e+01	  -2.5670315e-02	   2.6978094e-01	   1.6533385e+00	
   1.8150000e+01	  -1.6840863e-01	   2.7636290e-01	   1.6667371e+00	
   1.8205000e+01	  -3.3933447e-01	  -5.3164196e-02	   1.2385288e+00	
   1.8260000e+01	  -2.4979321e-01	   3.7226338e-01	   1.1303716e+00	
   1.8315000e+01	  -3.4344628e-01	  -1.9266197e-01	   1.3080540e+00	
   1.8370000e+01	  -3.5578475e-01	  -7.4239635e-02	   1.2772264e+00	
   1.8425000e+01	  -5.2254637e-01	  -6.8714473e-02	   1.0261993e+00	
   1.8480000e+01	  -7.5005870e-01	  -6.1245942e-02	   1.0526682e+00	
   1.8535000e+01	  -2.1364134e-01	   1.7267973e-01	   1.5936213e+00	
   1.8590000e+01	  -3.1228845e-01	   2.1699006e-01	   1.6076517e+00	
   1.8645000e+01	  -1.5029604e-01	   1.1664806e-01	   1.7774437e+00	
   1.8700000e+01	  -8.6320798e-02	   3.1523588e-01	   1.6847622e+00	
   1.8755000e+01	   4.9913746e-02	   6.9765911e-01	   1.8650560e+00	
   1.8810000e+01	  -2.2111042e-02	   4.0213569e-01	   1.6809150e+00	
   1.8865000e+01	  -9.7274625e-02	   4.0990001e-01	   1.6395420e+00	
   1.8920000e+01	  -1.7953453e-02	   4.1933488e-01	   1.9938656e+00	
   1.8975000e+01	  -2.8752830e-01	   2.3467917e-01	   1.6402321e+00	
   1.9030000e+01	  -3.2449693e-01	   1.3011441e-03	   1.4255427e+00	
   1.9085000e+01	  -3.4722856e-01	   2.0024729e-01	   1.5440895e+00	
   1.9140000e+01	  -5.0522856e-01	  -5.7946949e-03	   9.0499559e-01	
   1.9195000e+01	  -5.6287492e-01	   1.3152153e-01	   1.0417892e+00	
   1.9250000e+01	  -6.4437142e-01	   6.1735567e-02	   1.2881672e+00	
   1.9305000e+01	  -5.6698914e-01	   1.8536784e-02	   1.0953331e+00	
   1.9360000e+01	  -3.3512024e-01	   3.7150472e-01	   1.3203818e+00	
   1.9415000e+01	  -1.0519480e-01	   1.1921293e-01	   1.8099694e+00	
   1.9470000e+01	  -1.4750832e-01	   2.5279404e-01	   1.9013784e+00	
   1.9525000e+01	  -1.0048326e-01	   4.1012388e-01	   1.6946923e+00	
   1.9580000e+01	  -2.4164439e-01	   3.0679295e-01	   1.8280118e+00	
   1.9635000e+01	  -1.1544169e-01	   5.2162740e-01	   1.6913680e+00	
   1.9690000e+01	  -3.6149301e-01	   2.0141716e-01	   1.4530656e+00	
   1.9745000e+01	  -5.7994371e-01	   3.0408323e-02	   1.3030253e+00	
   1.9800000e+01	  -5.0778598e-01	   8.5622286e-03	   1.0308322e+00	
   1.9855000e+01	  -5.1630369e-01	   4.6472264e-02	   1.5074494e+00	
   1.9910000e+01	  -5.7835670e-01	   4.6040269e-01	   1.1955915e+00	
   1.9965000e+01	  -8.6441719e-01	  -3.8664908e-01	   1.1196042e+00	
   2.0020000e+01	  -8.0035322e-01	  -1.7172132e-01	   6.3634671e-01	
   2.0075000e+01	  -4.2397295e-01	   3.9482961e-01	   1.1600507e+00	
   2.0130000e+01	  -1.1317995e-01	   1.9869661e-01	   1.1796437e+00	
   2.0185000e+01	  -1.8043316e-01	   4.9406533e-01	   1.7909436e+00	
   2.0240000e+01	  -3.3053155e-01	   3.4616913e-02	   1.5982726e+00	
   2.0295000e+01	  -1.1394431e-01	   7.1458837e-01	   1.7128465e+00	
   2.0350000e+01	  -9.7084651e-02	   2.8109375e-01	   1.7368271e+00	
   2.0405000e+01	  -2.3568179e-01	   1.4300071e-02	   1.4614379e+00	
   2.0460000e+01	  -4.0331741e-01	   3.1487944e-01	   1.4796349e+00	
   2.0515000e+01	  -4.5388904e-01	   2.5392337e-01	   1.1955915e+00	
   2.0570000e+01	  -3.8290510e-01	   1.7218736e-02	   1.3080540e+00	
   2.0625000e+01	  -4.5777580e-01	   2.0315646e-01	   1.3637819e+00	
   2.0680000e+01	  -6.2202035e-01	  -1.8443713e-01	   1.1144389e+00	
   2.0735000e+01	  -5.8077739e-01	   2.6309514e-01	   8.7649576e-01	
   2.0790000e+01	  -2.3651304e-01	   7.7194394e-03	   1.2727153e+00	
   2.0845000e+01	  -1.1099422e-01	   1.7535582e-01	   1.4712032e+00	
   2.0900000e+01	  -1.8361425e-01	   1.3553287e-01	   1.6032715e+00	
   2.0955000e+01	  -2.1219629e-01	  -9.0963122e-03	   1.7311669e+00	
   2.1010000e+01	  -5.3803235e-02	   4.1207990e-01	   1.4244476e+00	
   2.1065000e+01	  -7.9792014e-02	   7.4382353e-02	   1.6167725e+00	
   2.1120000e+01	  -2.5978822e-01	  -5.9730522e-02	   1.6172045e+00	
   2.1175000e+01	  -2.5569477e-01	   3.1454547e-01	   1.4337213e+00	
   2.1230000e+01	   1.6148431e-03	   4.9914144e-02	   1.5028390e+00	
   2.1285000e+01	  -2.7963373e-01	  -2.2105344e-02	   1.3625050e+00	
   2.1340000e+01	  -5.7410724e-01	  -4.1568797e-01	   1.0823221e+00	
   2.1395000e+01	  -3.9776870e-01	  -5.8370605e-02	   1.4300573e+00	
   2.1450000e+01	  -5.6998787e-01	  -6.9270159e-02	   1.0792437e+00	
   2.1505000e+01	  -4.0193457e-01	  -1.1535296e-01	   1.0897519e+00	
   2.1560000e+01	  -1.4365433e-01	   1.9479511e-01	   1.5119978e+00	
   2.1615000e+01	  -8.0564127e-02	   3.1385785e-01	   1.7953304e+00	
   2.1670000e+01	  -1.3187689e-02	   1.4854676e-01	   1.8015221e+00	
   2.1725000e+01	  -2.1659846e-01	   4.4385279e-01	   1.3794079e+00	
   2.1780000e+01	  -8.7667488e-02	   3.1227834e-01	   1.1921535e+00	
   2.1835000e+01	  -2.1814894e-01	   1.0755321e-01	   1.4936238e+00	
   2.1890000e+01	  -1.3920142e-01	   7.3811703e-02	   1.5709585e+00	
   2.1945000e+01	  -3.7336171e-01	  -2.6059955e-02	   1.0362286e+00	
   2.2000000e+01	  -5.2903047e-01	  -1.7383289e-01	   1.5296947e+00	
   2.2055000e+01	  -3.6529405e-01	  -2.4091659e-01	   1.1196042e+00	
   2.2110000e+01	  -4.3194507e-01	  -1.6921425e-01	   1.1426528e+00	
   2.2165000e+01	  -4.9184788e-01	  -8.0244824e-02	   7.4082507e-01	
   2.2220000e+01	  -4.5857734e-01	  -3.3964310e-01	   8.9436472e-01	
   2.2275000e+01	  -2.0632423e-01	   9.6227286e-02	   1.6667371e+00	
   2.2330000e+01	  -2.0452765e-02	   2.2360435e-01	   1.8905831e+00	
   2.2385000e+01	   1.1329528e-02	   2.1649021e-01	   1.9652291e+00	
   2.2440000e+01	  -8.5700671e-02	   2.0516261e-01	   1.2132579e+00	
   2.2495000e+01	  -1.8625845e-01	   1.6531744e-01	   1.3332630e+00	
   2.2550000e+01	   4.8874412e-03	   2.0836761e-01	   1.9409839e+00	
   2.2605000e+01	  -2.2045269e-01	  -3.9325811e-02	   1.3846603e+00	
   2.2660000e+01	  -3.6672119e-01	   2.3209829e-01	   1.5300761e+00	
   2.2715000e+01	  -2.1676491e-01	   1.2753785e-01	   1.7571093e+00	
   2.2770000e+01	  -3.0757589e-01	   1.6665830e-01	   1.4720221e+00	
   2.2825000e+01	  -3.7560700e-01	   1.7301624e-01	   1.3624698e+00	
   2.2880000e+01	  -6.6645301e-01	  -3.6920055e-01	   9.2881233e-01	
   2.2935000e+01	  -4.9196233e-01	   5.1479400e-02	   9.9951500e-01	
   2.2990000e+01	  -1.1736150e-01	   4.9343899e-01	   1.7695345e+00	
   2.3045000e+01	  -2.3567046e-01	   1.4735788e-01	   1.6349101e+00	
   2.3100000e+01	  -3.6354485e-01	   1.8993883e-01	   1.7765168e+00	
   2.3155000e+01	   3.0381301e-02	   3.4298554e-01	   1.8921032e+00	
   2.3210000e+01	  -7.2736579e-02	   1.2416695e-01	   1.9000133e+00	
   2.3265000e+01	  -2.2648824e-01	  -1.0151440e-01	   1.7581096e+00	
   2.3320000e+01	  -2.6805801e-01	  -7.4361392e-02	   1.6026065e+00	
   2.3375000e+01	  -2.7963186e-01	   1.3228237e-01	   1.6659159e+00	
   2.3430000e+01	  -2.3086164e-01	   1.6719245e-01	   1.3450099e+00	
   2.3485000e+01	  -4.2692580e-01	  -6.0700402e-03	   1.2905253e+00	
   2.3540000e+01	  -5.3214217e-01	   2.1076916e-01	   9.3477152e-01	
   2.3595000e+01	  -4.8458899e-01	  -1.3387950e-01	   1.3221092e+00	
   2.3650000e+01	  -5.5877003e-01	  -8.4824678e-02	   1.3710618e+00	
   2.3705000e+01	  -7.5148434e-01	  -2.8616149e-01	   7.6696609e-01	
   2.3760000e+01	  -7.9108827e-01	   2.0450804e-02	   7.3841707e-01	
   2.3815000e+01	  -4.6996134e-01	   1.2166401e-02	   8.7881443e-01	
   2.3870000e+01	  -1.1632273e-01	   2.1817771e-01	   1.9947675e+00	
   2.3925000e+01	  -2.1514587e-01	   5.1639171e-02	   1.8754799e+00	
   2.3980000e+01	  -3.0630908e-01	  -1.5666569e-01	   1.6445478e+00	
   2.4035000e+01	  -3.3170649e-01	   1.7535840e-01	   1.7774959e+00	
   2.4090000e+01	  -1.7456835e-01	   2.7639945e-01	   1.7581096e+00	
   2.4145000e+01	  -3.0816121e-01	   4.8577732e-01	   1.0571263e+00	
   2.4200000e+01	  -4.7242560e-01	  -3.9322147e-01	   1.4672854e+00	
   2.4255000e+01	  -2.6697126e-01	   1.7147362e-01	   1.4171874e+00	
   2.4310000e+01	  -4.0826917e-01	   5.0543730e-02	   1.4668435e+00	
   2.4365000e+01	  -5.5866059e-01	  -7.5280204e-02	   1.1741357e+00	
   2.4420000e+01	  -6.3368881e-01	  -4.1862774e-01	   9.9086667e-01	
   2.4475000e+01	  -7.0175607e-01	  -2.1299428e-01	   1.5410660e+00	
   2.4530000e+01	  -7.7969943e-01	  -6.2629861e-02	   9.1591692e-01	
   2.4585000e+01	  -9.4372161e-01	  -5.4834885e-01	   9.1727501e-01	
   2.4640000e+01	  -6.7184598e-01	  -3.6184945e-01	   9.9086667e-01	
   2.4695000e+01	  -4.5438113e-01	   3.3828222e-01	   1.2540573e+00	
   2.4750000e+01	  -4.4220338e-01	   2.4682565e-01	   1.3805844e+00	
   2.4805000e+01	  -4.8804038e-01	   2.6464815e-01	   1.3385255e+00	
   2.4860000e+01	  -6.4092644e-01	   1.1179110e-01	   1.1977342e+00	
   2.4915000e+01	  -2.9139189e-01	   1.3469647e-01	   1.7434856e+00	
   2.4970000e+01	  -5.4349996e-01	   3.2743577e-01	   1.6847600e+00	
   2.5025000e+01	  -5.0547978e-01	  -2.9667066e-02	   1.0739924e+00	
   2.5080000e+01	  -8.0998619e-01	  -1.4979409e-01	   1.2323547e+00	
   2.5135000e+01	  -6.9015256e-01	   5.8107508e-02	   1.0792437e+00	
   2.5190000e+01	  -6.9343819e-01	   9.0799547e-02	   1.0930287e+00	
   2.5245000e+01	  -8.3715940e-01	  -2.2673263e-01	   6.8717862e-01	
   2.5300000e+01	  -9.7914780e-01	  -1.1259048e-01	   7.6057267e-01	
   2.5355000e+01	  -8.0413133e-01	  -1.1563268e-01	   6.8078520e-01	
   2.5410000e+01	  -6.4169361e-01	   4.3489957e-02	   1.3309719e+00	
   2.5465000e+01	  -5.6838186e-01	   1.2349602e-02	   1.5936213e+00	
   2.5520000e+01	  -5.5616760e-01	   9.4782411e-02	   1.4303628e+00	
   2.5575000e+01	  -5.6932300e-01	   5.4296118e-02	   1.3709762e+00	
   2.5630000e+01	  -4.2436460e-01	   2.1353403e-01	   1.4759493e+00	
   2.5685000e+01	  -6.0313291e-01	   9.0425312e-02	   1.5346941e+00	
   2.5740000e+01	  -5.9530774e-01	   1.9211425e-02	   1.4799894e+00	
   2.5795000e+01	  -7.2768136e-01	  -2.3720341e-01	   1.1740082e+00	
   2.5850000e+01	  -6.2191908e-01	   8.6735468e-02	   1.2820437e+00	
   2.5905000e+01	  -8.6858838e-01	  -4.0499741e-01	   9.4020056e-01	
   2.5960000e+01	  -9.0692051e-01	  -4.7158129e-01	   8.4634572e-01	
   2.6015000e+01	  -9.5288495e-01	  -2.0847749e-01	   5.6501121e-01	
   2.6070000e+01	  -5.8468964e-01	   6.4036477e-02	   1.1649731e+00	
   2.6125000e+01	  -3.0235954e-01	  -9.7004191e-02	   1.1037185e+00	
   2.6180000e+01	  -3.1863440e-01	   5.1632148e-02	   1.2301391e+00	
   2.6235000e+01	  -4.2457586e-01	   3.4002117e-02	   1.2740066e+00	
   2.6290000e+01	  -3.3065362e-01	   2.5397502e-02	   1.1246083e+00	
   2.6345000e+01	  -3.3295831e-01	   5.5179934e-01	   1.7631445e+00	
   2.6400000e+01	  -5.5056717e-01	   1.9298322e-02	   1.2385288e+00	
   2.6455000e+01	  -3.6377832e-01	   2.0216526e-01	   1.5754887e+00	
   2.6510000e+01	  -3.6097649e-01	   6.8299335e-03	   1.4166330e+00	
   2.6565000e+01	  -5.2060408e-01	   4.5609471e-02	   1.3351729e+00	
   2.6620000e+01	  -6.4143791e-01	   3.7032890e-02	   8.4804499e-01	
   2.6675000e+01	  -4.7037083e-01	  -2.6198614e-01	   1.0561115e+00	
   2.6730000e+01	  -6.4270758e-01	   6.5922612e-02	   1.0209679e+00	
   2.6785000e+01	  -6.8310341e-01	  -3.0255899e-01	   1.2817024e+00	
   2.6840000e+01	  -9.3867389e-01	  -4.4706938e-01	   6.1702139e-01	
   2.6895000e+01	  -5.8517561e-01	  -2.9949630e-01	   8.7365875e-01	
   2.6950000e+01	  -2.0171478e-01	   1.5600269e-01	   1.4983099e+00	
   2.7005000e+01	  -1.3805808e-01	   3.8552065e-01	   1.4337213e+00	
   2.7060000e+01	  -3.6219955e-01	  -1.3879730e-01	   1.5662337e+00	
   2.7115000e+01	  -1.9384321e-01	   3.9771027e-01	   1.2282697e+00	
   2.7170000e+01	   5.4295849e-02	   5.6830127e-01	   1.5383824e+00	
   2.7225000e+01	  -2.8784746e-01	  -1.6701225e-01	   1.1474615e+00	
   2.7280000e+01	  -3.8904180e-01	   7.2972462e-03	   1.4699182e+00	
   2.7335000e+01	  -2.0291575e-01	   2.5054144e-01	   1.5994376e+00	
   2.7390000e+01	  -4.1128029e-01	  -1.8181464e-01	   1.1895194e+00	
   2.7445000e+01	  -4.6375303e-01	   6.8185193e-04	   1.0069784e+00	
   2.7500000e+01	  -6.8157571e-01	  -3.3637414e-01	   1.1124671e+00	
   2.7555000e+01	  -6.5272397e-01	  -2.4020627e-01	   1.2491343e+00	
   2.7610000e+01	  -6.7078072e-01	  -3.1963969e-01	   1.0186032e+00	
   2.7665000e+01	  -8.6111232e-01	  -6.9006989e-01	   4.6174099e-01	
   2.7720000e+01	  -1.0664647e+00	  -6.2140148e-01	   6.6876937e-01	
   2.7775000e+01	  -7.5757053e-01	   1.2119565e-01	   8.6212181e-01	
   2.7830000e+01	  -5.8865243e-01	   1.9172417e-01	   1.4117707e+00	
   2.7885000e+01	  -5.5522460e-01	  -8.4373456e-02	   1.4699182e+00	
   2.7940000e+01	  -3.9236343e-01	   6.0716653e-02	   1.1682584e+00	
   2.7995000e+01	  -4.9680545e-01	   1.6687770e-01	   9.6631215e-01	
   2.8050000e+01	  -6.1356369e-01	   1.0701412e-01	   1.8188571e+00	
   2.8105000e+01	  -4.3167975e-01	   2.5147952e-02	   1.6030848e+00	
   2.8160000e+01	  -4.8492303e-01	  -1.8259853e-01	   9.7169010e-01	
   2.8215000e+01	  -5.7133063e-01	  -1.3591792e-01	   1.5574243e+00	
   2.8270000e+01	  -4.8173672e-01	  -2.8410033e-02	   9.5159473e-01	
   2.8325000e+01	  -8.2934573e-01	  -4.7669758e-01	   5.7128934e-01	
   2.8380000e+01	  -7.8813611e-01	  -2.9860212e-01	   9.0499559e-01	
   2.8435000e+01	  -7.5297263e-01	  -5.5966595e-01	   1.5720189e+00	
   2.8490000e+01	  -8.6469064e-01	  -6.3344996e-02	   1.4127012e+00	
   2.8545000e+01	  -1.1231181e+00	  -5.1489870e-01	   1.0253303e+00	
   2.8600000e+01	  -9.7799819e-01	  -6.4115815e-01	   7.8931021e-01	
   2.8655000e+01	  -7.9247900e-01	  -1.8685808e-01	   1.4386225e+00	
   2.8710000e+01	  -4.5387460e-01	  -1.0895232e-01	   1.3080540e+00	
   2.8765000e+01	  -6.0046075e-01	   3.8287735e-02	   1.7032715e+00	
   2.8820000e+01	  -4.7871254e-01	  -2.7235731e-02	   1.4917157e+00	
   2.8875000e+01	  -4.2650143e-01	  -4.6321155e-02	   1.9988791e+00	
   2.8930000e+01	  -3.9218335e-01	   2.3683442e-01	   1.6079887e+00	
   2.8985000e+01	  -5.3697671e-01	  -1.4913763e-01	   1.4746920e+00	
   2.9040000e+01	  -6.2446823e-01	  -2.4144470e-01	   1.7765168e+00	
   2.9095000e+01	  -5.4883023e-01	  -4.6665412e-01	   1.4892816e+00	
   2.9150000e+01	  -7.1917986e-01	   1.0376750e-01	   1.4711910e+00	
   2.9205000e+01	  -6.6563324e-01	  -1.8493925e-01	   1.4127012e+00	
   2.9260000e+01	  -8.2914904e-01	  -4.3043501e-01	   1.1489865e+00	
   2.9315000e+01	  -8.6166160e-01	  -1.4824633e-01	   1.2184645e+00	
   2.9370000e+01	  -8.9204632e-01	  -1.4986235e-01	   1.1196042e+00	
   2.9425000e+01	  -1.0278854e+00	  -2.5316131e-01	   8.2554326e-01	
   2.9480000e+01	  -7.9388471e-01	  -2.1644211e-01	   9.7207202e-01	
   2.9535000e+01	  -6.7461157e-01	   1.1647577e-01	   1.4255427e+00	
   2.9590000e+01	  -4.5801792e-01	   1.7405651e-01	   1.7631445e+00	
   2.9645000e+01	  -6.8047804e-01	  -3.3378144e-01	   1.5568996e+00	
   2.9700000e+01	  -8.2270313e-01	  -5.2195973e-01	   1.3248321e+00	
   2.9755000e+01	  -5.9504405e-01	  -2.9732730e-01	   1.5392806e+00	
   2.9810000e+01	  -6.7432388e-01	   1.0681954e-01	   1.4665134e+00	
   2.9865000e+01	  -7.9731607e-01	  -3.6258167e-01	   1.2491343e+00	
   2.9920000e+01	  -7.8891509e-01	  -6.3893615e-01	   1.2272665e+00	
   2.9975000e+01	  -7.3755493e-01	  -1.8340066e-01	   1.3492502e+00	
   3.0030000e+01	  -8.5021719e-01	  -2.3240585e-01	   1.2501648e+00	
   3.0085000e+01	  -1.0522983e+00	  -2.0191223e-01	   1.0084936e+00	
   3.0140000e+01	  -1.1149526e+00	  -2.9587113e-01	   8.5201208e-01	
   3.0195000e+01	  -1.0212240e+00	  -3.8784126e-01	   1.0035341e+00	
   3.0250000e+01	  -5.0646371e-01	  -2.0451317e-01	   1.2540573e+00	
   3.0305000e+01	  -6.3726043e-01	  -1.3893038e-01	   1.8307582e+00	
   3.0360000e+01	  -5.5479891e-01	  -6.0066415e-02	   1.9437119e+00	
   3.0415000e+01	  -6.0871047e-01	  -1.3976200e-01	   1.4387525e+00	
   3.0470000e+01	  -5.9077728e-01	  -2.0211893e-01	   1.5528802e+00	
   3.0525000e+01	  -5.6785424e-01	  -2.1168325e-01	   1.4803519e+00	
   3.0580000e+01	  -6.8872614e-01	  -2.1050380e-01	   1.1037185e+00	
   3.0635000e+01	  -8.6046825e-01	  -5.1972872e-01	   1.4529648e+00	
   3.0690000e+01	  -6.8782685e-01	  -4.2372425e-02	   1.4171874e+00	
   3.0745000e+01	  -6.5067569e-01	  -1.5187525e-01	   1.2054197e+00	
   3.0800000e+01	  -9.4466578e-01	  -5.8296434e-01	   1.2636094e+00	
   3.0855000e+01	  -1.1223491e+00	  -5.3592224e-01	   8.6547892e-01	
   3.0910000e+01	  -1.0757273e+00	  -2.2579804e-01	   1.3440165e+00	
   3.0965000e+01	  -1.1498433e+00	  -4.8574234e-01	   7.4082507e-01	
   3.1020000e+01	  -8.2642963e-01	  -5.0742908e-01	   1.3985294e+00	
   3.1075000e+01	  -7.5641658e-01	  -9.3900046e-02	   1.3438657e+00	
   3.1130000e+01	  -5.5818543e-01	   2.8416832e-01	   1.6579208e+00	
   3.1185000e+01	  -6.0746177e-01	  -8.1181504e-02	   1.7454904e+00	
   3.1240000e+01	  -6.3423357e-01	  -3.6396464e-01	   1.6900186e+00	
   3.1295000e+01	  -6.7599727e-01	  -1.3101249e-01	   1.5075726e+00	
   3.1350000e+01	  -5.4308836e-01	  -8.1372146e-02	   1.8907761e+00	
   3.1405000e+01	  -6.0622240e-01	  -2.0801016e-01	   1.2839917e+00	
   3.1460000e+01	  -7.8060915e-01	  -3.6115175e-01	   1.6752562e+00	
   3.1515000e+01	  -7.9331193e-01	  -3.0900751e-01	   1.3536947e+00	
   3.1570000e+01	  -5.2237600e-01	  -4.1206029e-01	   1.4316616e+00	
   3.1625000e+01	  -8.4917395e-01	  -4.5376509e-01	   1.2905253e+00	
   3.1680000e+01	  -1.0346956e+00	  -4.8684147e-01	   9.8579254e-01	
   3.1735000e+01	  -1.0208377e+00	  -8.6902508e-01	   9.4190603e-01	
   3.1790000e+01	  -1.0253301e+00	  -3.5709282e-01	   1.2726485e+00	
   3.1845000e+01	  -1.1383811e+00	  -2.9119605e-01	   7.8357391e-01	
   3.1900000e+01	  -9.9536274e-01	  -4.2429089e-01	   8.0698596e-01	
   3.1955000e+01	  -7.0869238e-01	  -3.1669579e-01	   1.5530016e+00	
   3.2010000e+01	  -6.5091471e-01	  -1.2161136e-01	   1.7909436e+00	
   3.2065000e+01	  -4.5518671e-01	   2.8990174e-01	   2.2094046e+00	
   3.2120000e+01	  -5.3499085e-01	  -2.4858260e-01	   1.9121737e+00	
   3.2175000e+01	  -4.0921573e-01	   1.5740505e-01	   1.4100452e+00	
   3.2230000e+01	  -4.1076627e-01	  -1.5650935e-01	   1.6579208e+00	
   3.2285000e+01	  -6.2478817e-01	  -1.8118892e-01	   1.8230102e+00	
   3.2340000e+01	  -5.6747806e-01	  -3.3719886e-01	   1.4303086e+00	
   3.2395000e+01	  -6.9409918e-01	  -8.3875630e-02	   1.4711910e+00	
   3.2450000e+01	  -5.0953541e-01	  -3.4444335e-04	   1.5709585e+00	
   3.2505000e+01	  -7.1549897e-01	  -8.4722378e-02	   1.4981669e+00	
   3.2560000e+01	  -9.0433987e-01	  -4.0123003e-01	   1.3809040e+00	
   3.2615000e+01	  -9.1552007e-01	  -4.3448129e-02	   1.4526163e+00	
   3.2670000e+01	  -7.8758377e-01	  -8.7664810e-02	   1.7579082e+00	
   3.2725000e+01	  -9.9374832e-01	  -4.1274093e-01	   1.4607723e+00	
   3.2780000e+01	  -1.1782498e+00	  -9.7819373e-01	   1.0223595e+00	
   3.2835000e+01	  -9.8733502e-01	  -5.7457840e-01	   9.2946774e-01	
   3.2890000e+01	  -6.6143738e-01	   9.2587366e-02	   1.6026065e+00	
   3.2945000e+01	  -5.0051207e-01	   3.4567727e-01	   1.7543598e+00	
   3.3000000e+01	  -4.5375455e-01	   1.1338809e-01	   1.7454904e+00	
   3.3055000e+01	  -6.4560587e-01	  -7.7206244e-02	   1.4972341e+00	
   3.3110000e+01	  -2.7052736e-01	   1.4576744e-01	   2.2510714e+00	
   3.3165000e+01	  -5.4156029e-01	   2.2562618e-01	   1.6210639e+00	
   3.3220000e+01	  -6.4991216e-01	  -1.9952711e-01	   1.5255394e+00	
   3.3275000e+01	  -6.5942119e-01	  -2.9737027e-01	   1.3943144e+00	
   3.3330000e+01	  -5.5978489e-01	   3.9213062e-02	   1.3985294e+00	
   3.3385000e+01	  -6.5576308e-01	  -2.6662003e-01	   1.6734677e+00	
   3.3440000e+01	  -9.1652797e-01	  -7.9320064e-02	   1.4705902e+00	
   3.3495000e+01	  -8.1914187e-01	  -1.6605271e-01	   1.3758845e+00	
   3.3550000e+01	  -7.8957815e-01	  -2.5293783e-01	   1.1158449e+00	
   3.3605000e+01	  -8.7809199e-01	  -3.9005871e-01	   1.4295088e+00	
   3.3660000e+01	  -1.2182646e+00	  -7.6725769e-01	   1.0585387e+00	
   3.3715000e+01	  -1.1542955e+00	  -3.6249402e-01	   1.2980158e+00	
   3.3770000e+01	  -8.3731760e-01	  -1.4498338e-01	   1.4922757e+00	
   3.3825000e+01	  -5.8077459e-01	   1.0364278e-01	   1.7899637e+00	
   3.3880000e+01	  -5.5599753e-01	   1.0823586e-01	   1.9281710e+00	
   3.3935000e+01	  -5.9688603e-01	  -1.2774077e-01	   1.4526532e+00	
   3.3990000e+01	  -5.1643776e-01	   1.7380374e-01	   2.1428644e+00	
   3.4045000e+01	  -6.8432244e-01	   1.4301268e-01	   2.2022635e+00	
   3.4100000e+01	  -5.9890990e-01	  -1.7564944e-02	   1.5891263e+00	
   3.4155000e+01	  -7.6971934e-01	  -9.0352062e-02	   1.5520502e+00	
   3.4210000e+01	  -8.1657422e-01	  -2.2416754e-02	   1.5387865e+00	
   3.4265000e+01	  -7.8062028e-01	  -1.9974316e-01	   1.3354379e+00	
   3.4320000e+01	  -7.9403950e-01	  -3.6359232e-01	   1.6457780e+00	
   3.4375000e+01	  -9.9989288e-01	  -1.6903269e-01	   1.0492751e+00	
   3.4430000e+01	  -9.6014496e-01	  -1.9487009e-01	   1.2455036e+00	
   3.4485000e+01	  -9.7135725e-01	  -5.4457600e-01	   1.4406214e+00	
   3.4540000e+01	  -1.1968614e+00	  -6.2891655e-01	   7.5215313e-01	
   3.4595000e+01	  -1.3443143e+00	  -9.2475561e-01	   7.1225457e-01	
   3.4650000e+01	  -1.0352326e+00	  -3.4158944e-01	   1.2192856e+00	
   3.4705000e+01	  -7.2977394e-01	  -3.4957222e-01	   1.3309719e+00	
   3.4760000e+01	  -6.6046113e-01	  -4.1823119e-01	   1.7344584e+00	
   3.4815000e+01	  -8.8290940e-01	  -3.9407559e-01	   1.1124671e+00	
   3.4870000e+01	  -6.5605765e-01	  -7.9932134e-02	   1.5891263e+00	
   3.4925000e+01	  -4.9425377e-01	   2.6757427e-01	   1.9229390e+00	
   3.4980000e+01	  -9.2226686e-01	  -3.1981481e-01	   1.2323547e+00	
   3.5035000e+01	  -8.4578483e-01	  -3.7922039e-01	   1.1383884e+00	
   3.5090000e+01	  -8.4007112e-01	  -3.1194494e-01	   1.2858190e+00	
   3.5145000e+01	  -7.4401583e-01	  -4.2384374e-01	   1.4922757e+00	
   3.5200000e+01	  -1.0893272e+00	  -8.2869437e-01	   1.2995794e+00	
   3.5255000e+01	  -9.8940035e-01	  -6.0325295e-01	   1.1565082e+00	
   3.5310000e+01	  -9.2665077e-01	  -2.4075414e-01	   9.9231050e-01	
   3.5365000e+01	  -1.0145530e+00	  -4.0437262e-01	   1.5728312e+00	
   3.5420000e+01	  -1.1356035e+00	  -4.6872471e-01	   8.1519660e-01	
   3.5475000e+01	  -8.6814565e-01	  -5.5002169e-01	   7.4082507e-01	
   3.5530000e+01	  -7.8028246e-01	  -2.9673634e-01	   1.5702277e+00	
   3.5585000e+01	  -6.0714648e-01	   2.6591746e-01	   1.4981669e+00	
   3.5640000e+01	  -5.9959837e-01	  -6.1879945e-02	   1.6124654e+00	
   3.5695000e+01	  -6.1538283e-01	  -2.3021028e-01	   1.4351548e+00	
   3.5750000e+01	  -7.1412749e-01	  -3.4402774e-01	   1.4705902e+00	
   3.5805000e+01	  -7.3105177e-01	  -1.0585675e-01	   1.3088434e+00	
   3.5860000e+01	  -7.8088738e-01	  -2.0257622e-01	   1.6493258e+00	
   3.5915000e+01	  -9.7135183e-01	  -5.3852901e-01	   1.4518291e+00	
   3.5970000e+01	  -8.4030590e-01	  -3.6086763e-01	   1.5196127e+00	
   3.6025000e+01	  -9.1048136e-01	  -3.2225477e-01	   1.0585387e+00	
   3.6080000e+01	  -9.4410032e-01	  -5.1755624e-01	   1.0943515e+00	
   3.6135000e+01	  -1.0815845e+00	  -6.2901519e-01	   1.0984743e+00	
   3.6190000e+01	  -1.2562173e+00	  -7.6414426e-01	   8.8660434e-01	
   3.6245000e+01	  -9.1881481e-01	  -1.0382859e-01	   1.0102078e+00	
   3.6300000e+01	  -6.6716718e-01	  -1.9220569e-01	   1.3004941e+00	
   3.6355000e+01	  -3.2577185e-01	   3.7300174e-03	   1.5530016e+00	
   3.6410000e+01	  -2.8326559e-01	  -8.8765257e-02	   1.4351697e+00	
   3.6465000e+01	  -1.8652956e-01	   1.3808324e-01	   1.7581096e+00	
   3.6520000e+01	  -2.1311965e-01	   2.2009998e-01	   1.7344584e+00	
   3.6575000e+01	  -4.8685927e-01	  -5.1902971e-02	   9.6346133e-01	
   3.6630000e+01	  -3.2291542e-01	   4.0390058e-02	   1.3985294e+00	
   3.6685000e+01	  -2.5334073e-01	   4.1102093e-01	   1.3354379e+00	
   3.6740000e+01	  -1.2053791e-01	  -6.1222511e-02	   1.5101049e+00	
   3.6795000e+01	  -4.2577059e-01	  -1.5228455e-01	   1.3308725e+00	
   3.6850000e+01	  -3.9296256e-01	  -2.4977696e-02	   1.4124270e+00	
   3.6905000e+01	  -4.6057817e-01	  -8.0385578e-02	   1.2324592e+00	
   3.6960000e+01	  -6.8677979e-01	  -4.1632832e-01	   5.2622934e-01	
   3.7015000e+01	  -7.0820685e-01	  -2.8988375e-01	   8.1816745e-01	
   3.7070000e+01	  -2.9598507e-01	   5.0342234e-02	   1.0407447e+00	
   3.7125000e+01	  -4.1602078e-02	   3.3040835e-01	   1.7011785e+00	
   3.7180000e+01	  -6.1231209e-02	   2.7846240e-01	   1.4030221e+00	
   3.7235000e+01	  -7.1893240e-02	   4.4622973e-01	   2.1300860e+00	
   3.7290000e+01	   5.7057075e-02	   3.3251193e-02	   1.5032491e+00	
   3.7345000e+01	  -7.3366779e-02	  -4.3471970e-02	   1.3168654e+00	
   3.7400000e+01	   2.1060126e-01	   3.5048642e-01	   1.6797322e+00	
   3.7455000e+01	  -1.0684559e-02	   2.6882851e-01	   1.4892482e+00	
   3.7510000e+01	   5.9901024e-02	   3.7366764e-01	   1.3087494e+00	
   3.7565000e+01	   6.8595736e-02	   4.2336222e-01	   1.3133416e+00	
   3.7620000e+01	  -1.6576361e-01	   2.0266285e-01	   9.6931955e-01	
   3.7675000e+01	  -2.5729559e-01	  -1.2236180e-01	   8.3095492e-01	
   3.7730000e+01	  -2.7169500e-01	   5.2088075e-02	   1.0633368e+00	
   3.7785000e+01	  -2.3750470e-01	  -3.7352756e-02	   1.2069588e+00	
   3.7840000e+01	  -4.3102565e-01	  -1.9611886e-01	   1.2809972e+00	
   3.7895000e+01	  -2.2339153e-01	   1.3778080e-01	   1.1251900e+00	
   3.7950000e+01	   3.4786197e-02	   2.5200037e-01	   1.4216986e+00	
   3.8005000e+01	   1.2214044e-01	   2.1375367e-01	   1.7953304e+00	
   3.8060000e+01	   9.5671579e-02	   1.9115378e-01	   1.3438657e+00	
   3.8115000e+01	  -5.7097135e-02	   9.6415520e-02	   1.7302999e+00	
   3.8170000e+01	   2.2200389e-01	   1.3142892e-01	   1.4391490e+00	
   3.8225000e+01	   1.5069718e-01	   3.5014931e-01	   1.5020017e+00	
   3.8280000e+01	   1.3019267e-01	   2.5500467e-02	   1.4920062e+00	
   3.8335000e+01	   1.2911226e-01	   2.3890949e-01	   9.0319441e-01	
   3.8390000e+01	  -4.7950785e-02	   4.6556560e-02	   1.1431243e+00	
   3.8445000e+01	  -1.8237752e-01	   5.0824014e-02	   1.1651521e+00	
   3.8500000e+01	  -1.8866218e-03	   7.5445077e-02	   1.0104765e+00	
   3.8555000e+01	  -2.2268660e-01	   2.4728161e-02	   1.1782085e+00	
   3.8610000e+01	  -3.2929636e-01	  -1.0872913e-01	   9.0421734e-01	
   3.8665000e+01	  -3.5243308e-01	  -2.1786120e-02	   9.7479365e-01	
   3.8720000e+01	   1.2235022e-01	   2.7182705e-01	   1.4920062e+00	
   3.8775000e+01	   1.3537962e-01	   2.0274595e-01	   1.5374828e+00	
   3.8830000e+01	   1.4475466e-01	   1.6561540e-01	   1.6607320e+00	
   3.8885000e+01	   5.3720925e-02	   1.3508843e-01	   1.4488877e+00	
   3.8940000e+01	   1.9731006e-01	   3.2631396e-01	   1.5448673e+00	
   3.8995000e+01	  -4.4132728e-02	   4.0468158e-01	   1.0765714e+00	
   3.9050000e+01	  -7.6874209e-02	   9.1818037e-02	   1.0982293e+00	
   3.9105000e+01	  -1.4741068e-02	   2.2767329e-01	   1.2504241e+00	
   3.9160000e+01	   9.8143106e-02	   1.7012567e-01	   1.0579898e+00	
   3.9215000e+01	  -1.4093967e-01	  -2.8964030e-01	   1.0004923e+00	
   3.9270000e+01	  -1.7422309e-01	  -8.4807625e-02	   7.9975731e-01	
   3.9325000e+01	  -1.4805719e-01	   1.8547414e-01	   4.2087010e-01	
   3.9380000e+01	  -2.3166293e-01	  -3.9702461e-02	   1.0663895e+00	
   3.9435000e+01	  -2.5889659e-01	   1.6466819e-01	   1.1018637e+00	
   3.9490000e+01	   1.0756494e-01	   2.2661735e-01	   1.6197747e+00	
   3.9545000e+01	   1.8000015e-01	   3.1480565e-01	   1.3788631e+00	
   3.9600000e+01	   1.7631661e-01	   1.9214445e-01	   1.5021356e+00	
   3.9655000e+01	   1.2998489e-01	   1.6635042e-01	   1.2050506e+00	
   3.9710000e+01	   2.1022654e-01	   3.1017092e-01	   1.0005134e+00	
   3.9765000e+01	   9.4521445e-02	   1.5620258e-01	   1.0857128e+00	
   3.9820000e+01	   1.0328342e-01	   3.2115038e-01	   9.5206755e-01	
   3.9875000e+01	  -1.4843687e-01	   4.1000721e-01	   6.7705713e-01	
   3.9930000e+01	  -2.0988631e-01	   4.4663094e-02	   9.5510142e-01	
   3.9985000e+01	   9.6748177e-03	  -9.1777764e-02	   7.9846544e-01	
   4.0040000e+01	   9.5137456e-02	   2.8026319e-01	   9.6060546e-01	
   4.0095000e+01	  -1.8763605e-01	   1.8894930e-01	   6.2434409e-01	
   4.0150000e+01	  -5.0625847e-01	  -1.3290716e-01	   7.7110613e-01	
   4.0205000e+01	  -1.0755921e-01	   1.9340023e-01	   8.2371795e-01	
   4.0260000e+01	   2.1938362e-01	  -2.0830214e-02	   2.0278285e+00	
   4.0315000e+01	  -9.7731728e-03	   2.2564047e-01	   1.0590229e+00	
   4.0370000e+01	  -1.2951593e-01	   5.5183096e-02	   1.2706479e+00	
   4.0425000e+01	   1.5198241e-01	   2.1459751e-01	   1.5358724e+00	
   4.0480000e+01	   1.6334903e-01	   5.0333081e-01	   1.4525652e+00	
   4.0535000e+01	   4.5851267e-02	   2.8159821e-01	   7.8103427e-01	
   4.0590000e+01	   9.2441888e-02	  -1.9269049e-02	   1.0179917e+00	
   4.0645000e+01	   1.4765188e-01	   4.9233874e-01	   1.1223597e+00	
   4.0700000e+01	   2.6027955e-01	   3.0090517e-01	   5.6509460e-01	
   4.0755000e+01	  -1.2132615e-01	  -1.0380664e-01	   4.9581154e-01	
   4.0810000e+01	  -1.3492914e-01	  -1.6591532e-01	   5.9145780e-01	
   4.0865000e+01	   5.3056608e-02	   4.3509516e-01	   6.8294993e-01	
   4.0920000e+01	  -1.1626796e-01	  -3.1007596e-02	   8.4818691e-01	
   4.0975000e+01	  -2.5950098e-01	  -2.2337418e-01	   9.6841088e-01	
   4.1030000e+01	  -1.8999377e-01	   2.3401157e-01	   4.7024225e-01	
   4.1085000e+01	   1.2712083e-01	   7.8173461e-01	   1.4549856e+00	
   4.1140000e+01	   1.6626301e-01	   4.2604796e-01	   1.4713168e+00	
   4.1195000e+01	   1.4330720e-01	   4.5301884e-01	   1.3139276e+00	
   4.1250000e+01	   2.4641970e-01	   2.8327255e-01	   1.2925254e+00	
   4.1305000e+01	   2.6696168e-01	   3.9457795e-01	   9.4658622e-01	
   4.1360000e+01	   2.8680506e-01	   5.4615827e-01	   9.7293003e-01	
   4.1415000e+01	   3.2542484e-01	   4.6033474e-01	   9.9280113e-01	
   4.1470000e+01	  -1.0780242e-01	   3.7327782e-01	   3.8403963e-01	
   4.1525000e+01	   1.0162666e-01	   3.9307640e-01	   7.1793458e-01	
   4.1580000e+01	   3.0080341e-02	   5.0854542e-01	   8.2157126e-01	
   4.1635000e+01	  -1.6966008e-01	   7.9282897e-02	   4.0351708e-01	
   4.1690000e+01	  -5.2413818e-02	   3.4641115e-01	   1.0335388e+00	
   4.1745000e+01	  -1.9904881e-01	   2.3481631e-01	   3.9962016e-01	
   4.1800000e+01	   1.2077068e-02	   4.3865303e-01	   1.1602227e+00	
   4.1855000e+01	  -3.7454280e-03	   1.9924236e-01	   1.0983311e+00	
   4.1910000e+01	   1.2491004e-01	   7.5715869e-01	   1.4534320e+00	
   4.1965000e+01	   3.2221963e-01	   8.6910335e-01	   1.8628736e+00	
   4.2020000e+01	   3.5831050e-01	   5.3621448e-01	   1.4824972e+00	
   4.2075000e+01	   3.0112976e-01	   4.4289849e-01	   1.5238165e+00	
   4.2130000e+01	   1.4278807e-01	   3.3938195e-01	   7.9202343e-01	
   4.2185000e+01	   3.4531925e-01	   7.3669307e-01	   1.0380921e+00	
   4.2240000e+01	   2.7889695e-01	   7.8108148e-01	   1.0298782e+00	
   4.2295000e+01	  -1.2096740e-01	   2.5444733e-01	   8.0362857e-01	
   4.2350000e+01	   9.1070025e-02	   5.3748447e-01	   7.4176725e-01	
   4.2405000e+01	  -5.5649803e-02	   4.2712399e-01	   5.0137626e-01	
   4.2460000e+01	   1.4021150e-01	   4.4533326e-01	   1.0053307e+00	
   4.2515000e+01	  -1.7217533e-01	   4.2162428e-01	   6.5250074e-01	
   4.2570000e+01	  -2.5700430e-01	   6.0774508e-02	   1.2038471e+00	
   4.2625000e+01	  -1.5713478e-01	   2.7468607e-01	   1.0133722e+00	
   4.2680000e+01	  -4.2608885e-01	   1.6497915e-01	   1.0385503e+00	
   4.2735000e+01	  -1.8017528e-01	   2.0127080e-01	   1.3521431e+00	
   4.2790000e+01	   2.2349642e-02	   4.4647928e-01	   1.4934734e+00	
   4.2845000e+01	   2.9659802e-01	   5.2972601e-01	   1.9901029e+00	
   4.2900000e+01	   2.0558060e-01	   5.2954035e-01	   2.0920346e+00	
   4.2955000e+01	   1.4135987e-01	   8.1646202e-01	   1.5722361e+00	
   4.3010000e+01	   1.6326413e-01	   2.5525101e-01	   1.3906918e+00	
   4.3065000e+01	  -2.5913985e-02	   2.5498172e-01	   1.1901371e+00	
   4.3120000e+01	   5.8526456e-02	   4.5281205e-01	   1.4246509e+00	
   4.3175000e+01	  -8.3953032e-02	   4.7405156e-01	   8.0153147e-01	
   4.3230000e+01	  -1.6168053e-01	   3.2586227e-01	   6.1919833e-01	
   4.3285000e+01	  -1.4577401e-01	   3.3822323e-01	   1.2770389e+00	
   4.3340000e+01	  -2.0712908e-01	   3.6427500e-01	   8.8365962e-01	
   4.3395000e+01	  -3.0903208e-01	   7.9224737e-02	   9.5206755e-01	
   4.3450000e+01	  -3.6228908e-01	  -2.5293392e-01	   1.1216240e+00	
   4.3505000e+01	  -4.6866111e-01	   1.0843535e-01	   1.0821305e+00	
   4.3560000e+01	   8.8781235e-02	   4.2829352e-01	   1.3137093e+00	
   4.3615000e+01	   8.5404209e-02	   4.1815767e-01	   1.6431843e+00	
   4.3670000e+01	   1.3258322e-01	   8.1914045e-01	   1.5818860e+00	
   4.3725000e+01	  -3.9415181e-02	   4.3828483e-01	   1.8214475e+00	
   4.3780000e+01	   1.0989872e-01	   5.7710420e-01	   1.4690325e+00	
   4.3835000e+01	  -8.5917321e-02	   3.5070129e-01	   1.4841534e+00	
   4.3890000e+01	  -1.0280635e-01	   2.0814926e-01	   1.2265785e+00	
   4.3945000e+01	  -1.8683020e-01	   4.3921038e-01	   9.6828619e-01	
   4.4000000e+01	  -2.5450764e-01	   2.9958759e-01	   1.3459119e+00	
   4.4055000e+01	  -1.1131170e-01	   2.2619570e-01	   1.0142923e+00	
   4.4110000e+01	  -5.5096281e-01	  -1.0274506e-01	   9.7760970e-01	
   4.4165000e+01	  -4.4074728e-01	   1.0012865e-01	   7.5534829e-01	
   4.4220000e+01	  -4.5518952e-01	   2.8723452e-01	   1.0286186e+00	
   4.4275000e+01	  -5.8520495e-01	  -1.5834892e-01	   1.3860481e+00	
   4.4330000e+01	  -3.2036228e-01	   2.2457309e-01	   1.2741897e+00	
   4.4385000e+01	  -1.7058685e-01	   2.4536183e-01	   1.6033992e+00	
   4.4440000e+01	   8.6323407e-02	   5.2636548e-01	   1.5850567e+00	
   4.4495000e+01	   6.0949858e-02	   5.2660151e-01	   1.5410660e+00	
   4.4550000e+01	  -2.3204793e-01	   1.3146588e-01	   1.3117870e+00	
   4.4605000e+01	  -1.5391430e-02	   4.5321872e-01	   1.6925172e+00	
   4.4660000e+01	   1.2204959e-02	   6.0629432e-01	   1.4661798e+00	
   4.4715000e+01	  -1.6902348e-01	   4.5037541e-01	   1.5839921e+00	
   4.4770000e+01	  -3.4518458e-01	   8.4307098e-02	   9.8610699e-01	
   4.4825000e+01	  -3.0556244e-01	   2.3516885e-01	   9.9504508e-01	
   4.4880000e+01	  -3.9739185e-01	   2.6058616e-01	   1.5884214e+00	
   4.4935000e+01	  -5.2545124e-01	   1.0241388e-01	   8.2483442e-01	
   4.4990000e+01	  -5.8396470e-01	  -2.8187548e-01	   8.2061400e-01	
   4.5045000e+01	  -5.4125424e-01	  -2.4605685e-01	   9.1195924e-01	
   4.5100000e+01	  -4.2539932e-01	   3.9093043e-01	   1.2660632e+00	
   4.5155000e+01	  -2.7159853e-01	   3.0292525e-01	   1.8004255e+00	
   4.5210000e+01	  -4.8505468e-02	   5.9169502e-02	   1.4063496e+00	
   4.5265000e+01	  -1.1319165e-01	   2.9763294e-01	   1.3399862e+00	
   4.5320000e+01	  -1.8561880e-01	   3.5512614e-01	   1.5685584e+00	
   4.5375000e+01	  -1.0041287e-01	   5.8826318e-01	   1.6564334e+00	
   4.5430000e+01	  -1.6329982e-01	   2.4497387e-01	   1.2667318e+00	
   4.5485000e+01	  -2.2519586e-01	   2.1990705e-01	   1.2898617e+00	
   4.5540000e+01	  -1.9820308e-01	   2.7914151e-01	   9.9504508e-01	
   4.5595000e+01	  -1.1372646e-01	   3.0430001e-01	   1.1481115e+00	
   4.5650000e+01	  -4.0741965e-01	   2.4914468e-01	   6.9969762e-01	
   4.5705000e+01	  -6.3053591e-01	  -2.2823871e-01	   2.6137283e-01	
   4.5760000e+01	  -4.9010235e-01	   2.0873727e-01	   1.0555931e+00	
   4.5815000e+01	  -6.1212289e-01	  -2.7788917e-01	   6.5097477e-01	
   4.5870000e+01	  -7.3425716e-01	  -3.1808779e-01	   9.9504508e-01	
   4.5925000e+01	  -6.0932807e-01	  -4.0541388e-01	   9.2556988e-01	
   4.5980000e+01	  -1.9759998e-01	  -4.1782179e-03	   1.3155907e+00	
   4.6035000e+01	  -1.7671432e-01	   5.9578229e-02	   1.8723712e+00	
   4.6090000e+01	  -1.8132276e-01	  -8.3103182e-02	   1.3894043e+00	
   4.6145000e+01	  -1.5493035e-01	   9.9334224e-02	   1.1652099e+00	
   4.6200000e+01	  -3.5323315e-02	   1.4871763e-01	   1.6618415e+00	
   4.6255000e+01	  -9.5088347e-02	   2.2910244e-01	   1.6528444e+00	
   4.6310000e+01	  -2.5533525e-01	  -1.3506984e-02	   1.2806320e+00	
   4.6365000e+01	  -3.8788855e-01	   8.7124323e-02	   6.9016772e-01	
   4.6420000e+01	  -3.8800452e-01	   2.5771180e-01	   9.3861050e-01	
   4.6475000e+01	  -4.6291781e-01	  -2.2699642e-01	   1.1158054e+00	
   4.6530000e+01	  -6.2200005e-01	  -4.9901499e-01	   8.3467281e-01	
   4.6585000e+01	  -6.2570584e-01	  -5.2026808e-01	   9.8958682e-01	
   4.6640000e+01	  -7.2944494e-01	  -2.0405876e-01	   9.5585213e-01	
   4.6695000e+01	  -5.7504100e-01	  -3.1488213e-01	   1.0467611e+00	
   4.6750000e+01	  -6.0912738e-01	  -2.3292695e-01	   6.8232216e-01	
   4.6805000e+01	  -5.6175284e-01	   3.4613726e-02	   1.0409975e+00	
   4.6860000e+01	  -3.9958439e-01	   2.9697169e-01	   1.6190898e+00	
   4.6915000e+01	  -1.7128066e-01	   1.2204367e-01	   1.5320261e+00	
   4.6970000e+01	  -3.7533222e-01	  -2.7825406e-02	   1.2821805e+00	
   4.7025000e+01	  -2.5987466e-01	   1.9380522e-01	   1.2278813e+00	
   4.7080000e+01	  -3.3942346e-01	   5.6556287e-02	   1.4351768e+00	
   4.7135000e+01	  -3.1570553e-01	   3.3749976e-01	   1.3354295e+00	
   4.7190000e+01	  -4.3877260e-01	  -1.7255536e-01	   1.2993615e+00	
   4.7245000e+01	  -7.1365808e-01	  -2.4983887e-01	   7.2602862e-01	
   4.7300000e+01	  -5.9896928e-01	  -3.1750025e-01	   9.9504508e-01	
   4.7355000e+01	  -8.1488612e-01	  -3.9877111e-01	   1.4019331e+00	
   4.7410000e+01	  -7.1333579e-01	  -5.5833670e-01	   6.9969762e-01	
   4.7465000e+01	  -8.8645332e-01	  -5.2774568e-01	   8.4726473e-01	
   4.7520000e+01	  -1.0301888e+00	  -5.1102478e-01	   7.7299842e-01	
   4.7575000e+01	  -6.9058243e-01	  -7.7940920e-02	   1.1446947e+00	
   4.7630000e+01	  -6.1307303e-01	  -1.3340487e-01	   1.3374273e+00	
   4.7685000e+01	  -5.2207108e-01	  -3.9319925e-01	   1.2726485e+00	
   4.7740000e+01	  -4.0044565e-01	  -6.2761857e-02	   1.5721305e+00	
   4.7795000e+01	  -6.0631116e-01	   6.9592656e-02	   1.1384942e+00	
   4.7850000e+01	  -5.0809354e-01	  -3.4066012e-02	   1.3426519e+00	
   4.7905000e+01	  -6.0351490e-01	  -2.3331106e-01	   7.0422140e-01	
   4.7960000e+01	  -5.9064923e-01	  -3.2029833e-01	   1.3833290e+00	
   4.8015000e+01	  -7.4552195e-01	  -1.9333396e-01	   1.1411378e+00	
   4.8070000e+01	  -6.5802208e-01	  -1.3464999e-01	   1.0090526e+00	
   4.8125000e+01	  -8.9949926e-01	  -2.4439208e-01	   5.4991034e-01	
   4.8180000e+01	  -8.4401511e-01	  -2.4214404e-01	   1.3181515e+00	
   4.8235000e+01	  -8.0494948e-01	  -3.3172574e-01	   1.0004923e+00	
   4.8290000e+01	  -8.5292480e-01	  -4.2522781e-01	   1.1481115e+00	
   4.8345000e+01	  -8.3848311e-01	  -6.9451949e-01	   1.1481115e+00	
   4.8400000e+01	  -7.2588463e-01	  -1.4219526e-01	   1.6830828e+00	
   4.8455000e+01	  -4.8397657e-01	  -1.2337817e-01	   1.6344056e+00	
   4.8510000e+01	  -5.8452061e-01	  -2.9924555e-01	   1.6836930e+00	
   4.8565000e+01	  -6.4256425e-01	  -4.1121907e-01	   1.2145425e+00	
   4.8620000e+01	  -5.9112753e-01	  -1.0656158e-01	   1.2009381e+00	
   4.8675000e+01	  -3.5847231e-01	   3.0114492e-01	   1.4748617e+00	
   4.8730000e+01	  -3.5346669e-01	  -1.5415015e-01	   1.3166175e+00	
   4.8785000e+01	  -6.3418380e-01	  -4.2990140e-01	   9.0431245e-01	
   4.8840000e+01	  -6.1722071e-01	  -1.8305336e-01	   1.1987045e+00	
   4.8895000e+01	  -5.1641292e-01	  -5.1392831e-02	   1.0444745e+00	
   4.8950000e+01	  -7.4236862e-01	  -2.0379055e-01	   1.0090526e+00	
   4.9005000e+01	  -7.5716249e-01	  -1.3726633e-01	   9.7855303e-01	
   4.9060000e+01	  -7.4096453e-01	  -4.4622941e-01	   8.7268519e-01	
   4.9115000e+01	  -7.1819671e-01	  -3.7255044e-01	   7.9913430e-01	
   4.9170000e+01	  -3.1044100e-01	  -2.6336089e-01	   1.2002948e+00	
   4.9225000e+01	  -3.0446034e-01	   7.3740469e-02	   1.4152703e+00	
   4.9280000e+01	  -2.5409048e-01	   8.3807066e-02	   1.8135399e+00	
   4.9335000e+01	  -2.1170056e-01	   2.8395154e-01	   1.6556095e+00	
   4.9390000e+01	   4.0689141e-02	  -8.2230365e-02	   1.4882647e+00	
   4.9445000e+01	  -1.6035009e-01	  -1.0322327e-01	   1.4805571e+00	
   4.9500000e+01	  -2.5957564e-01	  -1.9831548e-01	   1.0942289e+00	
   4.9555000e+01	  -1.0899913e-01	   2.3182639e-02	   1.3963781e+00	
   4.9610000e+01	  -2.5559081e-01	   6.4991897e-02	   1.1698273e+00	
   4.9665000e+01	  -3.7142753e-01	  -3.1549155e-01	   1.1431708e+00	
   4.9720000e+01	  -2.7609534e-01	  -3.7502575e-01	   8.5598618e-01	
   4.9775000e+01	  -3.0765139e-01	  -2.2148987e-01	   1.2413580e+00	
   4.9830000e+01	  -2.9110941e-01	  -4.8649947e-01	   1.1664418e+00	
   4.9885000e+01	  -5.9456778e-01	  -4.8475298e-01	   5.1626157e-01	
   4.9940000e+01	  -4.0446342e-01	  -3.1897087e-01	   1.0702059e+00	
   4.9995000e+01	  -8.1568179e-03	   3.8475358e-02	   1.8868276e+00	
   5.0050000e+01	   2.9129766e-01	   2.5202385e-01	   1.8170128e+00	
   5.0105000e+01	   1.1882239e-01	   1.9414419e-01	   2.0433855e+00	
   5.0160000e+01	   2.3143913e-01	   2.3440283e-01	   1.6395429e+00	
   5.0215000e+01	   7.8865525e-02	   4.0207875e-01	   1.4248074e+00	
   5.0270000e+01	   1.3303205e-01	   1.4546762e-01	   1.4659278e+00	
   5.0325000e+01	   3.8453167e-02	   1.4393516e-01	   1.3385544e+00	
   5.0380000e+01	  -3.3430536e-02	   1.9553740e-01	   9.5946719e-01	
   5.0435000e+01	   1.1490897e-01	   5.7392252e-02	   9.9640605e-01	
   5.0490000e+01	   1.5095955e-01	   1.3256473e-01	   1.0829109e+00	
   5.0545000e+01	   5.8356215e-02	   1.2498599e-01	   1.0712590e+00	
   5.0600000e+01	  -2.6280760e-01	  -4.7642163e-01	   9.2323065e-01	
   5.0655000e+01	  -3.2645404e-01	  -1.6808255e-02	   1.1256276e+00	
   5.0710000e+01	  -1.3609314e-01	   1.5382283e-01	   1.6872102e+00	
   5.0765000e+01	  -1.3139708e-01	  -1.0179359e-01	   1.4986131e+00	
   5.0820000e+01	  -1.3445211e-01	   3.9897447e-01	   1.8214475e+00	
   5.0875000e+01	   2.9288827e-01	   3.0316451e-01	   2.0625058e+00	
   5.0930000e+01	   3.2112409e-01	   4.2674054e-01	   1.6190898e+00	
   5.0985000e+01	   2.4891279e-01	   2.8371263e-01	   1.6405470e+00	
   5.1040000e+01	   3.0330371e-01	   4.4728395e-01	   1.6789962e+00	
   5.1095000e+01	   3.2681811e-01	   5.5063110e-01	   1.1574478e+00	
   5.1150000e+01	   1.7516808e-01	   3.3096289e-01	   1.3950466e+00	
   5.1205000e+01	   9.0402440e-02	   3.3697410e-01	   8.2493574e-01	
   5.1260000e+01	   1.1062981e-02	   4.4074284e-01	   7.2231714e-01	
   5.1315000e+01	  -1.3041349e-02	   3.4365664e-01	   6.7474826e-01	
   5.1370000e+01	  -2.5493579e-02	   2.7598689e-01	   1.1998794e+00	
   5.1425000e+01	  -3.3886954e-01	  -3.1218144e-01	   7.8669097e-01	
   5.1480000e+01	  -3.3924635e-01	  -1.6161843e-01	   1.3729246e+00	
   5.1535000e+01	  -1.7341967e-01	   6.7536041e-02	   1.0108255e+00	
   5.1590000e+01	   2.4171762e-01	   1.9751726e-01	   1.7092512e+00	
   5.1645000e+01	   1.1719646e-01	   1.0365806e-01	   1.5851133e+00	
   5.1700000e+01	   1.8847278e-01	   7.7580621e-02	   1.6431843e+00	
   5.1755000e+01	   3.5081237e-01	   6.7468701e-01	   1.7507797e+00	
   5.1810000e+01	   2.3628394e-01	   3.2981685e-01	   1.0054070e+00	
   5.1865000e+01	   3.7308232e-01	   6.9039790e-01	   1.0173983e+00	
   5.1920000e+01	   1.0985531e-01	   3.1800543e-01	   1.0194507e+00	
   5.1975000e+01	   3.0813432e-01	   1.7016169e-01	   1.0912896e+00	
   5.2030000e+01	   1.6870065e-01	   6.9912335e-01	   1.1710814e+00	
   5.2085000e+01	   2.0693463e-01	   5.5598850e-01	   1.0446700e+00	
   5.2140000e+01	  -1.3463415e-01	  -2.9895582e-01	   8.5172643e-01	
   5.2195000e+01	  -5.3790645e-02	  -6.5055010e-02	   1.0398286e+00	
   5.2250000e+01	  -1.2409375e-01	  -1.1593162e-01	   8.5181785e-01	
   5.2305000e+01	  -6.1876434e-02	   2.2402667e-01	   9.4946088e-01	
   5.2360000e+01	   1.0475362e-02	   1.7500137e-01	   1.5980287e+00	
   5.2415000e+01	   2.1215593e-01	   4.4701781e-01	   1.6629493e+00	
   5.2470000e+01	   3.7202201e-01	   5.0155500e-01	   1.3567760e+00	
   5.2525000e+01	   3.6243977e-01	   8.9355720e-02	   1.4800771e+00	
   5.2580000e+01	   2.5933941e-01	   4.2442495e-01	   1.4224491e+00	
   5.2635000e+01	   3.4212908e-01	   6.5416321e-01	   1.5358984e+00	
   5.2690000e+01	   3.1692564e-01	   2.5281122e-01	   1.2056882e+00	
   5.2745000e+01	   2.6711816e-01	  -4.0320466e-02	   9.1936923e-01	
   5.2800000e+01	   8.4243783e-02	   2.2162538e-01	   4.6119482e-01	
   5.2855000e+01	   2.3863052e-01	   2.5498191e-01	   9.7465072e-01	
   5.2910000e+01	   1.8620453e-02	  -2.6022000e-01	   9.9734011e-01	
   5.2965000e+01	  -1.4131083e-01	  -1.5905420e-01	   1.1806452e+00	
   5.3020000e+01	  -2.2706432e-01	  -1.0163174e-01	   8.5472665e-01	
   5.3075000e+01	  -3.2966092e-01	  -1.6951777e-01	   1.0424232e+00	
   5.3130000e+01	  -2.7041119e-02	   1.2705828e-01	   1.2248766e+00	
   5.3185000e+01	   1.7174820e-01	   1.5536034e-01	   1.8614719e+00	
   5.3240000e+01	   1.7638508e-01	   4.9148034e-02	   1.5814658e+00	
   5.3295000e+01	   5.1241927e-01	   7.0551002e-01	   2.0943838e+00	
   5.3350000e+01	   4.9501330e-01	   3.9100220e-01	   1.4940978e+00	
   5.3405000e+01	   2.5960025e-01	   3.6114496e-01	   1.2655712e+00	
   5.3460000e+01	   3.5942708e-01	   4.3121992e-01	   7.4564530e-01	
   5.3515000e+01	   3.4684599e-01	   2.3695755e-01	   7.2708709e-01	
   5.3570000e+01	   3.3428794e-01	   2.4821410e-01	   8.0832803e-01	
   5.3625000e+01	   8.1925071e-02	   1.3813851e-01	   1.2990758e+00	
   5.3680000e+01	   1.5768842e-01	   1.2239357e-01	   8.2342149e-01	
   5.3735000e+01	   3.9747726e-02	  -2.4153010e-01	   9.9617819e-01	
   5.3790000e+01	  -1.0054060e-02	  -1.0508575e-02	   7.7418034e-01	
   5.3845000e+01	   6.2820631e-02	   3.1248026e-01	   8.8382754e-01	
   5.3900000e+01	  -1.8639437e-01	  -4.0473147e-01	   4.4619172e-01	
   5.3955000e+01	  -2.0852758e-01	   7.8979175e-02	   1.0354796e+00	
   5.4010000e+01	  -2.2429409e-01	  -1.5499793e-01	   7.1965734e-01	
   5.4065000e+01	   2.2783140e-01	   1.4381656e-01	   1.2060192e+00	
   5.4120000e+01	   8.9223124e-02	   2.2215115e-01	   1.5469804e+00	
   5.4175000e+01	   2.6732586e-01	   3.9848601e-01	   1.5108365e+00	
   5.4230000e+01	   3.8825860e-01	   4.1762854e-01	   1.2447323e+00	
   5.4285000e+01	   2.2246475e-01	   3.7025613e-01	   1.1591843e+00	
   5.4340000e+01	   2.5877258e-01	  -9.0973454e-03	   8.5956666e-01	
   5.4395000e+01	   1.3913886e-01	   1.9692605e-01	   5.2428999e-01	
   5.4450000e+01	   1.4036346e-01	   1.9889983e-01	   7.8040676e-01	
   5.4505000e+01	   1.5188221e-01	   1.8214852e-01	   4.5749534e-01	
   5.4560000e+01	   2.7677658e-03	  -1.5743899e-01	   2.2661584e-01	
   5.4615000e+01	  -1.3483200e-01	  -3.1102432e-01	   7.4264435e-01	
   5.4670000e+01	  -1.1114706e-01	  -4.5790206e-02	   6.4753095e-01	
   5.4725000e+01	  -8.5707723e-02	  -9.9508130e-02	   8.6763037e-01	
   5.4780000e+01	  -3.1736049e-01	  -4.4283869e-01	   6.2127735e-01	
   5.4835000e+01	  -5.4058651e-01	  -3.3894163e-01	   5.5374519e-01	
   5.4890000e+01	  -3.6147240e-01	  -2.0961457e-02	   8.8150616e-01	
   5.4945000e+01	  -1.8036110e-01	   3.4161156e-02	   1.1365759e+00	
   5.5000000e+01	  -3.3401812e-02	   1.9288347e-01	   1.0530053e+00	
   5.5055000e+01	  -1.1051469e-01	   6.8270863e-02	   1.4965306e+00	
   5.5110000e+01	   1.2052737e-01	   1.3652308e-01	   1.5185750e+00	
   5.5165000e+01	  -6.8436693e-02	  -5.0518880e-02	   7.3057895e-01	
   5.5220000e+01	  -1.2623817e-01	  -7.7313249e-02	   5.3068028e-01	
   5.5275000e+01	  -6.2315350e-02	   4.0730942e-02	   5.4753144e-01	
   5.5330000e+01	  -6.5304233e-02	   1.9919165e-04	   7.3715905e-01	
   5.5385000e+01	  -7.0189184e-02	  -2.7554523e-02	   2.9469008e-01	
   5.5440000e+01	  -2.7507949e-01	  -2.3861759e-01	   3.7706459e-01	
   5.5495000e+01	  -1.8267522e-01	  -4.2455171e-02	   3.7706459e-01	
   5.5550000e+01	  -2.6480544e-01	  -4.0795174e-01	   4.0710191e-01	
   5.5605000e+01	  -4.0276084e-01	  -1.0047976e-02	   1.6403038e-01	
   5.5660000e+01	  -6.3278997e-01	  -3.2633942e-01	   1.2025643e-01	
   5.5715000e+01	  -7.4041692e-01	  -8.5989481e-01	   3.2577460e-01	
   5.5770000e+01	  -7.6520864e-01	  -8.6281650e-01	   2.5243667e-01	
   5.5825000e+01	  -4.9325697e-01	  -4.4731958e-01	   3.3392447e-01	
   5.5880000e+01	  -4.3626882e-01	  -1.4392724e-01	   9.2221540e-01	
   5.5935000e+01	  -3.8794672e-01	  -8.7148598e-02	   1.2118289e+00	
   5.5990000e+01	  -2.9856821e-01	  -1.4646318e-01	   8.1909747e-01	
   5.6045000e+01	  -1.4015367e-01	   3.7651270e-03	   1.2070915e+00	
   5.6100000e+01	  -1.8525702e-01	  -3.6349370e-03	   8.3396982e-01	
   5.6155000e+01	  -2.5848389e-01	  -3.6211072e-01	   5.8255152e-01	
   5.6210000e+01	  -3.2857014e-01	  -1.7364041e-01	   2.3200302e-01	
   5.6265000e+01	  -2.7375490e-01	  -4.2420779e-01	   4.6451250e-01	
   5.6320000e+01	  -4.3829644e-01	  -2.9597805e-01	   2.2673797e-01	
   5.6375000e+01	  -4.9655687e-01	  -3.8078012e-01	  -6.6903430e-02	
   5.6430000e+01	  -5.9108370e-01	  -3.1109508e-01	  -1.3141842e-02	
   5.6485000e+01	  -6.2670928e-01	  -3.5443795e-01	   3.0115992e-02	
   5.6540000e+01	  -6.7135006e-01	  -6.6296682e-01	  -2.8353772e-02	
   5.6595000e+01	  -9.3024459e-01	  -8.4048183e-01	  -2.0840468e-01	
   5.6650000e+01	  -6.2080020e-01	  -3.5829153e-01	   4.9236775e-01	
   5.6705000e+01	  -3.5611051e-01	  -1.5087897e-01	   7.1870089e-01	
   5.6760000e+01	  -4.0227914e-01	  -2.1198149e-01	   9.0670808e-01	
   5.6815000e+01	  -4.4982142e-01	  -2.9993291e-01	   8.6587450e-01	
   5.6870000e+01	  -4.2986536e-01	  -3.1858150e-01	   7.3575490e-01	
   5.6925000e+01	  -3.3191723e-01	  -1.4293732e-02	   3.5037948e-01	
   5.6980000e+01	  -2.9703923e-01	  -3.7535109e-01	   4.7529772e-01	
   5.7035000e+01	  -3.6316405e-01	  -4.4326218e-01	  -1.1169553e-02	
   5.7090000e+01	  -4.5300047e-01	  -4.6623489e-01	   1.8815528e-01	
   5.7145000e+01	  -6.2196970e-01	  -1.7697406e-01	   7.2781933e-02	
   5.7200000e+01	  -6.2807217e-01	  -6.4269576e-01	   2.8330155e-01	
   5.7255000e+01	  -7.7245250e-01	  -6.7114810e-01	  -1.1189313e-01	
   5.7310000e+01	  -8.4627197e-01	  -4.3250122e-01	  -2.4143222e-02	
   5.7365000e+01	  -8.0425467e-01	  -5.3006669e-01	   4.0067851e-01	
   5.7420000e+01	  -1.0541995e+00	  -4.8108829e-01	   6.3288853e-02	
   5.7475000e+01	  -6.4634858e-01	  -5.8120481e-01	   4.1571180e-01	
   5.7530000e+01	  -8.0646292e-01	  -4.7670762e-01	   4.7978119e-01	
   5.7585000e+01	  -5.1947567e-01	  -3.1031142e-01	   6.6445982e-01	
   5.7640000e+01	  -2.0632247e-01	  -9.9564310e-02	   7.2465012e-01	
   5.7695000e+01	  -4.2537265e-01	  -4.5197297e-01	   5.8618644e-02	
   5.7750000e+01	  -4.2050309e-01	  -4.5875429e-01	   5.4421941e-01	
   5.7805000e+01	  -3.3809846e-01	  -1.2219450e-02	   7.3324249e-02	
   5.7860000e+01	  -3.7975853e-01	   4.0527527e-03	   9.9933227e-02	
   5.7915000e+01	  -7.4898134e-01	  -4.1175850e-01	  -1.3718742e-01	
   5.7970000e+01	  -6.1240158e-01	  -3.0356766e-01	   5.1318471e-02	
   5.8025000e+01	  -6.0913273e-01	  -3.6732662e-01	  -1.8975998e-01	
   5.8080000e+01	  -6.0859940e-01	  -2.9586214e-01	  -1.6586889e-01	
   5.8135000e+01	  -6.2281611e-01	  -3.9196257e-01	  -3.1850661e-01	
   5.8190000e+01	  -1.0308494e+00	  -5.4151227e-01	  -4.3904465e-01	
   5.8245000e+01	  -1.0129661e+00	  -8.3427154e-01	   1.1811040e-01	
   5.8300000e+01	  -8.8672679e-01	  -3.0469530e-01	   7.5529364e-04	
   5.8355000e+01	  -6.0630678e-01	  -4.5013746e-01	   6.3132288e-01	
   5.8410000e+01	  -6.3892674e-01	  -2.9001198e-01	   6.4643391e-01	
   5.8465000e+01	  -3.8093077e-01	  -2.1315508e-01	   2.3479906e-01	
   5.8520000e+01	  -4.0854007e-01	   6.4023984e-02	   5.6843619e-01	
   5.8575000e+01	  -5.3208047e-01	  -9.9157096e-02	   1.1838222e-01	
   5.8630000e+01	  -5.6973317e-01	   6.8594148e-02	  -4.8107916e-01	
   5.8685000e+01	  -4.4386814e-01	  -1.4947538e-01	  -2.6099491e-01	
   5.8740000e+01	  -3.4933527e-01	  -7.7511826e-02	  -7.0126517e-02	
   5.8795000e+01	  -4.0450113e-01	  -3.6020246e-01	  -6.8858403e-01	
   5.8850000e+01	  -6.4942020e-01	  -2.1255595e-01	  -1.8495841e-01	
   5.8905000e+01	  -6.2650771e-01	  -3.5706355e-01	  -4.6499009e-01	
   5.8960000e+01	  -7.4520750e-01	  -7.8970715e-02	   1.2121131e-01	
   5.9015000e+01	  -6.8097996e-01	  -2.5580671e-01	  -8.0784118e-01	
   5.9070000e+01	  -9.0694172e-01	  -7.1453110e-01	  -5.5525071e-01	
   5.9125000e+01	  -9.2656018e-01	  -4.4366891e-01	  -7.3977391e-01	
   5.9180000e+01	  -6.5460355e-01	  -2.1117187e-01	  -1.2369587e-01	
   5.9235000e+01	  -4.8935238e-01	  -3.7686635e-01	   2.1441333e-01	
   5.9290000e+01	  -3.0779039e-01	  -3.1151483e-01	   2.5299489e-01	
   5.9345000e+01	  -3.5989053e-01	   1.2700286e-01	   3.4498704e-01	
   5.9400000e+01	  -1.7639601e-01	   6.8929901e-02	   1.3237282e-01	
   5.9455000e+01	  -3.1184745e-01	  -1.7639009e-01	  -3.2643281e-01	
   5.9510000e+01	  -2.9918864e-01	  -8.2607971e-02	  -4.0849494e-01	
   5.9565000e+01	  -5.3881249e-01	  -1.9896404e-01	  -4.0520455e-01	
   5.9620000e+01	  -4.5446802e-01	  -2.8414395e-01	  -2.6187202e-01	
   5.9675000e+01	  -3.0584231e-01	  -3.5320120e-01	  -3.7038719e-01	
   5.9730000e+01	  -6.5590010e-01	  -4.2215639e-01	  -1.0258928e+00	
   5.9785000e+01	  -7.9488389e-01	  -6.5005801e-01	  -5.1032096e-01	
   5.9840000e+01	  -6.4477208e-01	  -2.6346820e-01	  -2.0928621e-01	
   5.9895000e+01	  -6.2329135e-01	  -2.5659256e-01	  -4.9241406e-01	
   5.9950000e+01	  -8.7639578e-01	  -3.8976884e-01	  -2.9804398e-01	
   6.0005000e+01	  -9.2009839e-01	  -2.5651801e-01	  -3.3479175e-01	
   6.0060000e+01	  -4.8882162e-01	   2.3820924e-01	   1.0973649e-01	
   6.0115000e+01	  -6.5228387e-01	   6.5524988e-02	  -4.0917563e-02	
   6.0170000e+01	  -6.3893361e-01	  -3.6379639e-01	  -1.7397228e-01	
   6.0225000e+01	  -6.0102267e-01	   2.0421662e-02	  -3.8790336e-01	
   6.0280000e+01	  -3.5543340e-01	  -9.6852058e-02	   3.0439141e-03	
   6.0335000e+01	  -3.0872245e-01	  -1.7607802e-01	  -3.6893420e-01	
   6.0390000e+01	  -4.2625716e-01	   3.9799640e-01	  -5.4971472e-01	
   6.0445000e+01	  -3.4790546e-01	   2.9235574e-02	  -8.1902526e-01	
   6.0500000e+01	  -4.1745942e-01	  -2.1964009e-01	  -4.5065010e-01	
   6.0555000e+01	  -5.4861844e-01	  -1.1209214e-01	  -7.3963431e-01	
   6.0610000e+01	  -5.1087249e-01	  -3.9487422e-01	  -7.1144804e-01	
   6.0665000e+01	  -5.7979584e-01	  -4.7660880e-01	  -3.0116154e-01	
   6.0720000e+01	  -3.8344703e-01	   1.6867656e-01	  -3.5366375e-01	
   6.0775000e+01	  -4.1161252e-01	  -2.6190971e-01	  -2.0140083e-01	
   6.0830000e+01	  -5.5593428e-01	  -6.1014403e-01	  -4.3150734e-01	
   6.0885000e+01	  -8.0512475e-01	  -7.0585383e-01	  -8.6313533e-01	
   6.0940000e+01	  -3.3738313e-01	   5.1895790e-02	  -1.5944962e-04	
   6.0995000e+01	  -1.4712243e-01	   2.1581798e-01	   3.0916799e-01	
   6.1050000e+01	  -3.1966494e-01	  -1.1779178e-01	   1.9150932e-01	
   6.1105000e+01	  -1.0254314e-02	  -1.5425771e-01	  -2.0671109e-01	
   6.1160000e+01	  -7.6410817e-02	   1.2853092e-01	  -8.4491796e-02	
   6.1215000e+01	   2.0062965e-01	   2.2789738e-01	  -1.8495841e-01	
   6.1270000e+01	   4.4365405e-02	   3.2496763e-01	  -6.1416277e-01	
   6.1325000e+01	  -3.1225010e-02	  -8.6599662e-02	  -4.6226754e-01	
   6.1380000e+01	  -8.6516033e-02	   2.5826540e-01	  -6.4756505e-02	
   6.1435000e+01	   1.6636324e-01	   6.6402559e-02	   1.5849624e-01	
   6.1490000e+01	  -2.7348743e-01	  -1.2033582e-01	  -1.7016906e-01	
   6.1545000e+01	  -2.3620340e-01	  -2.9433747e-01	  -1.9018579e-01	
   6.1600000e+01	  -1.4145390e-01	  -1.6938805e-01	  -1.3695278e-01	
   6.1655000e+01	  -3.3898483e-01	  -1.9220303e-01	  -1.5101646e-01	
   6.1710000e+01	  -5.2364102e-01	  -2.2222240e-01	  -3.3438378e-01	
   6.1765000e+01	  -2.4956949e-01	  -2.4609208e-01	  -1.3718742e-01	
   6.1820000e+01	   7.1329268e-02	   1.4382693e-02	   3.3192401e-01	
   6.1875000e+01	   4.0354626e-02	   3.5646932e-02	  -2.4898847e-02	
   6.1930000e+01	   1.8764882e-01	   8.4449619e-02	  -1.9192221e-01	
   6.1985000e+01	   1.0816253e-01	  -1.0482706e-01	  -3.8381027e-01	
   6.2040000e+01	   1.9137143e-01	   3.9863450e-01	  -2.5664567e-01	
   6.2095000e+01	   1.2032519e-01	   5.8705580e-02	  -1.0462198e-03	
   6.2150000e+01	   1.2251632e-01	  -5.6675723e-02	  -1.2599521e-01	
   6.2205000e+01	  -1.7987285e-01	  -3.7556571e-01	  -5.0629408e-01	
   6.2260000e+01	  -1.3073437e-02	   7.2472506e-02	  -5.3583762e-01	
   6.2315000e+01	   5.9642467e-02	   1.5938667e-01	  -6.2375882e-02	
   6.2370000e+01	   4.2334951e-02	  -1.7536623e-01	  -3.0941793e-01	
   6.2425000e+01	  -3.5841233e-01	  -3.8383927e-01	  -5.4198604e-01	
   6.2480000e+01	  -4.2749403e-01	  -8.6431302e-01	  -5.1032096e-01	
   6.2535000e+01	  -2.8657116e-01	  -3.4181191e-01	  -1.0579257e-01	
   6.2590000e+01	  -7.5217579e-02	   1.9769551e-01	  -8.1514063e-02	
   6.2645000e+01	  -6.2661692e-02	  -1.7926213e-01	   2.1203650e-01	
   6.2700000e+01	   1.4062765e-01	  -5.6926001e-03	  -3.1223543e-02	
   6.2755000e+01	   3.1403534e-01	   1.7630046e-01	   6.2463918e-01	
   6.2810000e+01	   3.0911110e-01	   1.6600309e-01	  -5.6453348e-02	
   6.2865000e+01	   1.4029593e-01	   1.0103725e-01	  -2.1772134e-01	
   6.2920000e+01	   5.1244279e-02	   1.6033873e-01	  -7.5585977e-01	
   6.2975000e+01	   3.2401708e-01	   2.6766049e-01	  -3.2815222e-01	
   6.3030000e+01	   1.9895023e-01	   3.1615614e-01	   1.6302040e-01	
   6.3085000e+01	   9.3605496e-02	  -2.9063564e-01	  -5.4877608e-01	
   6.3140000e+01	  -1.2835909e-02	  -1.7325801e-01	  -6.9096318e-01	
   6.3195000e+01	   7.7998420e-02	   2.7965202e-01	   1.8096604e-01	
   6.3250000e+01	  -1.5880376e-01	  -1.3998606e-01	  -7.2800847e-01	
   6.3305000e+01	  -1.5077986e-01	  -1.9696925e-01	  -6.0643627e-01	
   6.3360000e+01	  -1.7349553e-01	  -7.0303049e-01	  -5.5207907e-01	
   6.3415000e+01	   8.6711132e-02	   2.0180493e-02	  -8.7619821e-02	
   6.3470000e+01	   2.9397292e-01	   3.5801423e-01	  -4.6499009e-01	
   6.3525000e+01	   3.5182751e-01	   4.3715235e-01	   2.4404586e-01	
   6.3580000e+01	   3.7591311e-01	   3.8589804e-01	  -4.0520455e-01	
   6.3635000e+01	   4.5392903e-01	   4.4793424e-01	  -1.1322780e-02	
   6.3690000e+01	   5.3155295e-01	   4.1195249e-01	  -2.6462360e-01	
   6.3745000e+01	   5.1567396e-01	   4.6568878e-01	  -1.3396789e-01	
   6.3800000e+01	   2.9564325e-01	   1.5784283e-01	  -2.8970709e-01	
   6.3855000e+01	   5.5223927e-01	   2.0482920e-01	   1.1761805e-01	
   6.3910000e+01	   4.8087734e-01	   6.1895239e-03	  -2.2850043e-01	
   6.3965000e+01	   2.4230448e-01	   1.2429714e-01	  -2.7297127e-01	
   6.4020000e+01	   1.7325094e-01	  -4.0540331e-02	  -4.9425517e-02	
   6.4075000e+01	   3.0705617e-01	   3.4563247e-02	  -2.2635910e-01	
   6.4130000e+01	   2.0835603e-01	  -5.7277197e-02	  -2.1476777e-01	
   6.4185000e+01	   1.8357515e-01	  -1.7856877e-01	   1.3862666e-01	
   6.4240000e+01	   6.9869211e-02	  -4.3089390e-02	  -3.5314527e-01	
   6.4295000e+01	   6.5644032e-02	  -7.2680984e-02	  -1.3682910e-01	
   6.4350000e+01	   4.0263598e-01	   3.4340180e-01	   1.5639163e-01	
   6.4405000e+01	   5.5319260e-01	   3.8743976e-01	   3.2972516e-01	
   6.4460000e+01	   5.1252629e-01	   4.3398075e-01	   5.1195020e-01	
   6.4515000e+01	   4.3712204e-01	   3.9415267e-01	   9.0106733e-02	
   6.4570000e+01	   5.5650975e-01	   5.1803531e-01	   2.4790980e-02	
   6.4625000e+01	   7.8129956e-01	   2.8082192e-01	  -2.8655362e-01	
   6.4680000e+01	   3.9418433e-01	   1.1924796e-01	  -6.0108503e-02	
   6.4735000e+01	   5.2172719e-01	   2.5450493e-01	   3.9166351e-02	
   6.4790000e+01	   3.6865506e-01	   1.9775731e-01	  -3.2619497e-02	
   6.4845000e+01	   2.2600583e-01	  -2.9391339e-02	   1.2130122e-01	
   6.4900000e+01	   2.8401737e-01	   2.5314979e-02	   3.8064051e-01	
   6.4955000e+01	   1.0900634e-01	  -1.1969625e-01	  -1.9648645e-01	
   6.5010000e+01	   1.2721033e-01	   6.2929132e-02	  -1.1878123e-01	
   6.5065000e+01	   1.1556784e-03	   7.3690167e-02	  -2.5094738e-01	
   6.5120000e+01	   1.3755370e-01	   1.0728634e-01	  -1.2277883e-01	
   6.5175000e+01	   2.3626859e-01	   1.9038174e-01	  -1.2034664e-01	
   6.5230000e+01	   5.1006774e-01	   5.9361560e-01	   1.6069650e-01	
   6.5285000e+01	   5.7886745e-01	   4.6985181e-01	   4.1463062e-01	
   6.5340000e+01	   3.1363423e-01	   4.1818154e-01	  -2.7297127e-01	
   6.5395000e+01	   5.3915456e-01	   4.2250943e-01	  -7.1949282e-03	
   6.5450000e+01	   3.9100817e-01	   5.9713812e-01	   6.8500723e-02	
   6.5505000e+01	   2.5790902e-01	   4.5061633e-02	  -2.0962328e-01	
   6.5560000e+01	   2.6394492e-01	   1.4123627e-01	  -9.3537414e-02	
   6.5615000e+01	   1.0087066e-01	  -1.9083620e-01	  -3.1441269e-01	
   6.5670000e+01	   1.2291061e-01	   2.1746494e-01	  -2.0962328e-01	
   6.5725000e+01	   1.5329986e-01	   1.0588910e-01	  -2.1572192e-01	
   6.5780000e+01	  -6.2682228e-02	   5.1675555e-02	   1.0458060e-01	
   6.5835000e+01	  -1.1621320e-01	  -5.7453688e-02	  -1.9882064e-01	
   6.5890000e+01	  -1.1851112e-01	   5.3057488e-02	  -1.3430524e-02	
   6.5945000e+01	   2.7788014e-01	   3.3352335e-01	   1.6527894e-01	
   6.6000000e+01	   3.1165441e-01	   2.8513779e-01	   1.6518337e-01	
   6.6055000e+01	   2.9594491e-01	   4.9960895e-01	  -1.4095175e-01	
   6.6110000e+01	   4.1769339e-01	   4.2103110e-01	   1.7108828e-01	
   6.6165000e+01	   4.9237259e-01	   4.5444075e-01	   1.1600683e-01	
   6.6220000e+01	   3.6296052e-01	   3.1754650e-01	   3.2394901e-03	
   6.6275000e+01	   1.3358179e-01	   3.1683921e-01	   1.1134308e-01	
   6.6330000e+01	   3.5963212e-01	   2.8226164e-01	   2.5097902e-01	
   6.6385000e+01	   2.9976699e-01	  -1.1127558e-01	  -5.7746046e-02	
   6.6440000e+01	   1.8819541e-02	   1.2677346e-01	   1.2287545e-01	
   6.6495000e+01	   9.1513862e-02	   2.5059664e-03	  -8.1234723e-02	
   6.6550000e+01	   1.7467223e-01	   3.6186422e-01	  -7.4372108e-02	
   6.6605000e+01	   2.3893131e-02	  -1.1405510e-01	  -5.7746046e-02	
   6.6660000e+01	  -2.0998504e-01	  -2.3504869e-02	  -2.9184842e-01	
   6.6715000e+01	  -2.0776430e-01	  -1.1135170e-01	   1.0263167e-01	
   6.6770000e+01	  -5.1135023e-01	  -8.9493229e-02	  -1.3783743e-01	
   6.6825000e+01	  -7.6151230e-02	   6.5081419e-02	   3.1363551e-01	
   6.6880000e+01	   1.4079865e-01	   1.7944181e-01	   3.7063381e-01	
   6.6935000e+01	   1.4186628e-01	   2.9907654e-01	   3.7919077e-01	
   6.6990000e+01	   1.4843089e-01	   4.1462654e-01	   2.5038773e-01	
   6.7045000e+01	   2.7085507e-01	   3.2172633e-01	   3.1006447e-01	
   6.7100000e+01	   2.6802622e-01	   3.4433199e-01	   6.0853951e-02	
   6.7155000e+01	   2.0241103e-01	   3.7201571e-01	   3.9166351e-02	
   6.7210000e+01	   1.5848118e-01	   3.8703902e-01	  -1.6519043e-01	
   6.7265000e+01	   3.2887663e-01	   3.5332488e-01	   8.6216532e-02	
   6.7320000e+01	   2.5620206e-01	   2.8878344e-01	   1.8096604e-01	
   6.7375000e+01	   1.5852432e-02	   2.7791497e-01	   1.9874441e-01	
   6.7430000e+01	  -8.9927847e-02	  -1.0698672e-01	   2.0349527e-01	
   6.7485000e+01	  -5.0555380e-02	   8.1281412e-02	   7.5161345e-02	
   6.7540000e+01	  -6.9026075e-02	   1.4210812e-01	  -2.2862861e-01	
   6.7595000e+01	  -2.4990284e-01	  -3.8573817e-01	  -5.3090091e-01	
   6.7650000e+01	  -3.9463401e-01	  -4.0020921e-01	  -5.3818475e-02	
   6.7705000e+01	  -5.8173135e-01	  -2.2095803e-01	  -2.3417990e-01	
   6.7760000e+01	  -2.4875989e-01	  -2.8752801e-02	   4.8881603e-01	
   6.7815000e+01	  -3.6819011e-01	  -2.3041765e-01	   2.5194071e-01	
   6.7870000e+01	  -1.3500026e-01	  -1.5715364e-01	  -2.9752985e-03	
   6.7925000e+01	   1.5785084e-01	   4.8535364e-01	   2.8700821e-01	
   6.7980000e+01	   7.1775291e-02	   8.8954017e-02	  -2.5018311e-02	
   6.8035000e+01	   3.5147277e-02	   5.5820708e-02	  -1.2900869e-01	
   6.8090000e+01	  -4.5087937e-02	   3.3925216e-02	  -2.3974031e-01	
   6.8145000e+01	  -1.9538433e-01	   1.3837975e-01	  -2.7841770e-01	
   6.8200000e+01	  -1.2623261e-01	  -4.9504037e-05	   9.2012052e-02	
   6.8255000e+01	  -2.6928995e-01	  -1.0203015e-01	  -4.6563650e-01	
   6.8310000e+01	  -2.9139301e-01	  -2.9244321e-01	  -3.1715028e-01	
   6.8365000e+01	  -2.5559081e-01	   8.6917255e-02	  -2.0404902e-02	
   6.8420000e+01	  -3.8792411e-01	  -2.9938206e-01	  -7.6778517e-02	
   6.8475000e+01	  -5.1417811e-01	  -5.0477058e-01	  -3.7038719e-01	
   6.8530000e+01	  -7.4979101e-01	  -3.9594366e-01	  -2.0252173e-02	
   6.8585000e+01	  -6.3690358e-01	  -3.1567135e-01	   7.5680004e-02	
   6.8640000e+01	  -2.2538788e-01	   1.5740962e-01	   2.7143837e-01	
   6.8695000e+01	  -2.2819623e-01	   7.4451261e-02	   2.4837367e-01	
   6.8750000e+01	  -2.5383730e-01	  -8.6483663e-02	  -1.5384600e-01	
   6.8805000e+01	  -1.5264602e-01	   1.9010359e-01	   8.8382498e-02	
   6.8860000e+01	  -1.2447764e-01	   4.4721603e-01	  -1.5940567e-01	
   6.8915000e+01	  -1.2573983e-01	  -1.2984887e-01	  -5.4400351e-01	
   6.8970000e+01	  -3.7759609e-01	  -2.1478633e-01	  -3.9728431e-01	
   6.9025000e+01	  -2.9756599e-01	   8.2589175e-02	  -2.0962328e-01	
   6.9080000e+01	  -1.9003167e-01	   1.5477095e-01	  -3.1768629e-01	
   6.9135000e+01	  -5.2114321e-01	  -1.2447207e-01	  -2.1572192e-01	
   6.9190000e+01	  -5.8150343e-01	  -4.3071133e-01	  -2.1476777e-01	
   6.9245000e+01	  -5.7604045e-01	  -2.0420249e-01	  -4.1948684e-01	
   6.9300000e+01	  -7.0775216e-01	  -3.0496847e-01	  -4.3885577e-01	
   6.9355000e+01	  -7.3803482e-01	  -5.0958516e-01	  -1.9778105e-01	
   6.9410000e+01	  -6.2294950e-01	   2.4074823e-02	  -3.8381027e-01	
   6.9465000e+01	  -3.8408857e-01	   7.5315072e-02	   3.5762306e-01	
   6.9520000e+01	  -2.5782763e-01	  -4.4964580e-02	   2.0073755e-01	
   6.9575000e+01	  -8.1892904e-02	   3.1732627e-01	  -1.9479258e-02	
   6.9630000e+01	  -3.3618839e-01	  -2.5490019e-02	  -3.1577584e-01	
   6.9685000e+01	  -3.4657847e-01	   1.0309692e-01	  -6.3665190e-01	
   6.9740000e+01	  -2.6303235e-01	  -1.7720159e-02	  -2.2370614e-01	
   6.9795000e+01	  -2.8698275e-01	  -8.6600057e-03	  -4.8212441e-01	
   6.9850000e+01	  -4.3426710e-01	   3.8243233e-02	  -9.9832210e-01	
   6.9905000e+01	  -5.4107465e-01	  -2.5820701e-01	  -4.7935008e-01	
   6.9960000e+01	  -4.8465848e-01	   4.9810561e-02	   1.9353218e-02	
   7.0015000e+01	  -7.7651724e-01	  -1.9532831e-01	  -8.4824643e-01	
   7.0070000e+01	  -7.2013947e-01	  -3.2334738e-01	  -7.4017519e-01	
   7.0125000e+01	  -8.2438739e-01	  -4.4884022e-01	  -5.9260330e-01	
   7.0180000e+01	  -7.8640825e-01	  -5.5586887e-01	  -7.5585977e-01	
   7.0235000e+01	  -9.6369912e-01	  -5.5022984e-01	  -2.5872566e-01	
   7.0290000e+01	  -7.6737693e-01	  -1.5874067e-01	  -8.0830447e-01	
   7.0345000e+01	  -4.1784452e-01	  -2.0423651e-01	  -2.6509264e-01	
   7.0400000e+01	  -2.3702517e-01	  -2.8966335e-02	   6.2132231e-02	
   7.0455000e+01	  -3.2868319e-01	   1.1353984e-01	  -5.5781981e-02	
   7.0510000e+01	  -3.3939596e-01	  -1.8843846e-01	  -5.0629408e-01	
   7.0565000e+01	  -4.4767050e-01	  -4.1821210e-02	  -3.5852459e-01	
   7.0620000e+01	  -9.6143514e-02	   5.5725950e-02	  -5.2144477e-02	
   7.0675000e+01	  -4.1661146e-01	   2.1456084e-01	  -7.2706768e-01	
   7.0730000e+01	  -5.2227895e-01	  -1.0455833e-01	  -4.8453452e-01	
   7.0785000e+01	  -6.9441012e-01	  -2.0567712e-01	  -8.6687944e-01	
   7.0840000e+01	  -5.8591449e-01	  -3.4010430e-01	  -6.4815554e-01	
   7.0895000e+01	  -6.0116874e-01	  -2.8283012e-01	  -8.9617678e-01	
   7.0950000e+01	  -8.0222205e-01	  -2.1946550e-01	  -1.2310459e+00	
   7.1005000e+01	  -9.2518804e-01	  -3.1774537e-01	  -1.0694354e+00	
   7.1060000e+01	  -9.4651418e-01	  -6.7152521e-01	  -9.0351314e-01	
   7.1115000e+01	  -9.5219248e-01	  -3.8192959e-01	  -7.0465198e-01	
   7.1170000e+01	  -1.0716059e+00	  -4.0496324e-01	  -5.5997512e-01	
   7.1225000e+01	  -8.8385675e-01	  -5.2826328e-01	  -7.8425400e-01	
   7.1280000e+01	  -6.6369931e-01	  -5.9140030e-01	  -3.9597384e-01	
   7.1335000e+01	  -3.5476849e-01	   1.7216853e-01	  -7.1192057e-01	
   7.1390000e+01	  -4.6266649e-01	   4.5324231e-02	  -4.9497405e-01	
   7.1445000e+01	  -5.9228595e-01	  -2.9461022e-01	  -5.6982316e-01	
   7.1500000e+01	  -4.2121335e-01	  -2.5173913e-03	  -6.0206108e-01	
   7.1555000e+01	  -5.3746329e-01	  -1.3778180e-01	  -6.0469594e-01	
   7.1610000e+01	  -6.3015391e-01	  -2.8470302e-01	  -8.1389114e-01	
   7.1665000e+01	  -7.8128215e-01	  -2.6124833e-01	  -1.2490436e+00	
   7.1720000e+01	  -8.7271886e-01	  -4.9184470e-01	  -1.2768224e+00	
   7.1775000e+01	  -7.2444932e-01	  -4.3125051e-01	  -8.8909829e-01	
   7.1830000e+01	  -9.0467393e-01	  -6.1825739e-01	  -7.4835676e-01	
   7.1885000e+01	  -9.2928376e-01	  -3.0682279e-01	  -9.0054174e-01	
   7.1940000e+01	  -1.1129536e+00	  -7.0948341e-01	  -9.8702017e-01	
   7.1995000e+01	  -1.0902161e+00	  -9.1002383e-01	  -8.0935333e-01	
   7.2050000e+01	  -6.4363216e-01	  -3.7781554e-01	  -8.4261137e-01	
   7.2105000e+01	  -7.2063459e-01	  -5.0513712e-01	  -5.4791363e-01	
   7.2160000e+01	  -5.7274884e-01	  -2.7193131e-01	  -7.4373941e-01	
   7.2215000e+01	  -6.5155453e-01	   1.6575761e-01	  -7.4633561e-01	
   7.2270000e+01	  -6.1945118e-01	  -2.8105231e-01	  -9.3699202e-01	
   7.2325000e+01	  -8.2202368e-01	  -1.7625814e-01	  -7.4757199e-01	
   7.2380000e+01	  -7.4171330e-01	  -5.1486334e-01	  -1.3819340e+00	
   7.2435000e+01	  -6.3679386e-01	  -3.5696859e-01	  -1.0944290e+00	
   7.2490000e+01	  -9.2678513e-01	  -2.0749373e-01	  -1.3574897e+00	
   7.2545000e+01	  -8.3858636e-01	  -3.6553036e-01	  -9.4185692e-01	
   7.2600000e+01	  -1.0671901e+00	  -2.7670625e-01	  -1.0593800e+00	
   7.2655000e+01	  -9.1941623e-01	  -1.3066453e-01	  -6.2926607e-01	
   7.2710000e+01	  -9.2484048e-01	  -6.6591490e-01	  -9.7507531e-01	
   7.2765000e+01	  -1.4088501e+00	  -8.6851552e-01	  -1.2101726e+00	
   7.2820000e+01	  -1.2030542e+00	  -5.8686380e-01	  -1.1592399e+00	
   7.2875000e+01	  -8.6387050e-01	  -4.4078432e-01	  -8.3143815e-01	
   7.2930000e+01	  -6.9675866e-01	   2.0518137e-01	  -9.0707799e-01	
   7.2985000e+01	  -8.3125739e-01	  -3.5453137e-01	  -9.6317679e-01	
   7.3040000e+01	  -7.3271247e-01	  -7.2928147e-02	  -1.0152637e+00	
   7.3095000e+01	  -7.4446347e-01	   5.3799192e-02	  -9.1258638e-01	
   7.3150000e+01	  -8.3694293e-01	  -9.7823329e-02	  -1.3115027e+00	
   7.3205000e+01	  -7.3694208e-01	   1.8864105e-02	  -1.2532619e+00	
   7.3260000e+01	  -8.6548961e-01	  -4.0372883e-01	  -1.1333561e+00	
   7.3315000e+01	  -8.2047116e-01	  -1.7418529e-01	  -1.4242920e+00	
   7.3370000e+01	  -7.7638707e-01	  -3.8180855e-01	  -9.7060775e-01	
   7.3425000e+01	  -1.0365772e+00	  -4.1401321e-01	  -1.5169405e+00	
   7.3480000e+01	  -1.0859981e+00	  -7.1840994e-01	  -1.3659617e+00	
   7.3535000e+01	  -1.1236867e+00	  -5.8984761e-01	  -1.5988546e+00	
   7.3590000e+01	  -1.3517997e+00	  -5.5757870e-01	  -1.1327645e+00	
   7.3645000e+01	  -1.1531422e+00	  -5.6238963e-01	  -1.2260901e+00	
   7.3700000e+01	  -8.2557017e-01	  -2.1118235e-01	  -5.6391894e-01	
   7.3755000e+01	  -7.7493604e-01	  -2.2287782e-01	  -8.3150470e-01	
   7.3810000e+01	  -5.6936079e-01	  -2.6079140e-01	  -8.8421332e-01	
   7.3865000e+01	  -4.7448448e-01	  -7.1552170e-02	  -8.3186680e-01	
   7.3920000e+01	  -6.5812874e-01	   1.6553520e-01	  -1.1604857e+00	
   7.3975000e+01	  -4.8759571e-01	   2.7083588e-02	  -1.2034041e+00	
   7.4030000e+01	  -6.7345985e-01	  -1.2876720e-01	  -1.0909370e+00	
   7.4085000e+01	  -1.0266569e+00	  -1.6952496e-01	  -1.0959490e+00	
   7.4140000e+01	  -6.9828185e-01	  -2.9622942e-01	  -1.2771995e+00	
   7.4195000e+01	  -7.7891227e-01	  -1.4518438e-01	  -8.6612315e-01	
   7.4250000e+01	  -7.8580786e-01	  -1.7535490e-01	  -9.3828247e-01	
   7.4305000e+01	  -1.0195957e+00	  -5.2265641e-01	  -1.3118655e+00	
   7.4360000e+01	  -1.1728298e+00	  -6.9463156e-01	  -1.0345233e+00	
   7.4415000e+01	  -1.0629490e+00	  -4.9063656e-01	  -1.1227804e+00	
   7.4470000e+01	  -1.1730082e+00	  -5.6383217e-01	  -1.6121287e+00	
   7.4525000e+01	  -8.6921973e-01	  -2.3889586e-01	  -1.0826407e+00	
   7.4580000e+01	  -6.3985823e-01	  -2.1809798e-01	  -1.0334990e+00	
   7.4635000e+01	  -6.2337970e-01	   5.5780395e-02	  -1.1519615e+00	
   7.4690000e+01	  -4.6519609e-01	   4.9520165e-01	  -9.8494403e-01	
   7.4745000e+01	  -6.1446174e-01	   1.3015487e-02	  -1.4356381e+00	
   7.4800000e+01	  -6.6618954e-01	   3.2995600e-01	  -9.1427326e-01	
   7.4855000e+01	  -5.0293171e-01	   6.0342989e-02	  -9.8161698e-01	
   7.4910000e+01	  -4.1700080e-01	   5.3264459e-02	  -1.1404164e+00	
   7.4965000e+01	  -6.6955985e-01	  -2.3744832e-01	  -1.1240420e+00	
   7.5020000e+01	  -8.6082621e-01	  -2.6743723e-01	  -1.0480249e+00	
   7.5075000e+01	  -8.5603821e-01	  -2.8607958e-01	  -1.3387950e+00	
   7.5130000e+01	  -7.4700187e-01	  -1.7335429e-01	  -1.0345233e+00	
   7.5185000e+01	  -9.1686349e-01	  -2.5979314e-01	  -8.8741018e-01	
   7.5240000e+01	  -1.1533656e+00	  -4.7634112e-01	  -1.3192720e+00	
   7.5295000e+01	  -1.0425628e+00	  -5.3780435e-01	  -1.3660549e+00	
   7.5350000e+01	  -1.1990145e+00	  -4.0378149e-01	  -1.1727220e+00	
   7.5405000e+01	  -1.0735512e+00	  -4.6946391e-01	  -1.3508239e+00	
   7.5460000e+01	  -7.8164558e-01	  -2.0105715e-01	  -9.0502734e-01	
   7.5515000e+01	  -7.3404966e-01	   1.2534211e-01	  -7.8276564e-01	
   7.5570000e+01	  -5.7812216e-01	   1.6083247e-01	  -9.1800239e-01	
   7.5625000e+01	  -5.0727653e-01	   3.0382965e-01	  -8.8498054e-01	
   7.5680000e+01	  -5.1144770e-01	   9.0120252e-02	  -8.8498054e-01	
   7.5735000e+01	  -6.3488202e-01	  -3.8381954e-01	  -1.4508181e+00	
   7.5790000e+01	  -7.6828701e-01	   9.5764235e-02	  -1.0000487e+00	
   7.5845000e+01	  -5.7233929e-01	   5.4780022e-02	  -1.2536708e+00	
   7.5900000e+01	  -7.3852795e-01	  -1.4025500e-01	  -1.1810732e+00	
   7.5955000e+01	  -8.8553041e-01	  -2.3888108e-01	  -1.3621576e+00	
   7.6010000e+01	  -6.9328592e-01	  -2.5572657e-01	  -8.8220163e-01	
   7.6065000e+01	  -6.1706466e-01	   9.7894492e-02	  -9.7298116e-01	
   7.6120000e+01	  -1.0954794e+00	  -4.9035022e-01	  -1.2156890e+00	
   7.6175000e+01	  -1.1006444e+00	  -4.3833478e-01	  -9.3277495e-01	
   7.6230000e+01	  -8.1326753e-01	  -2.3885765e-01	  -1.3582048e+00	
   7.6285000e+01	  -6.0838773e-01	  -1.7145409e-01	  -1.0266160e+00	
   7.6340000e+01	  -7.2545305e-01	  -1.0033281e-01	  -1.0707400e+00	
   7.6395000e+01	  -5.4075655e-01	   5.4161897e-01	  -8.1789417e-01	
   7.6450000e+01	  -3.7856509e-01	   1.3185059e-01	  -7.2121469e-01	
   7.6505000e+01	  -5.5579561e-01	   8.9278095e-02	  -6.8640846e-01	
   7.6560000e+01	  -6.8396613e-01	  -2.4152382e-01	  -9.3062720e-01	
   7.6615000e+01	  -6.5262864e-01	  -2.6753090e-02	  -1.0292562e+00	
   7.6670000e+01	  -4.7435513e-01	   2.7691368e-01	  -8.7940425e-01	
   7.6725000e+01	  -5.4669200e-01	  -2.4253221e-02	  -9.9701349e-01	
   7.6780000e+01	  -7.8449904e-01	   2.7953988e-03	  -5.0187676e-01	
   7.6835000e+01	  -9.0710139e-01	  -4.5633930e-01	  -1.0944290e+00	
   7.6890000e+01	  -8.1434389e-01	  -7.4659695e-02	  -1.0933602e+00	
   7.6945000e+01	  -8.4814166e-01	  -2.6948219e-01	  -1.0527238e+00	
   7.7000000e+01	  -1.0237780e+00	  -5.3684644e-01	  -1.0586943e+00	
   7.7055000e+01	  -9.0482973e-01	  -3.5202951e-01	  -1.2375887e+00	
   7.7110000e+01	  -6.2909541e-01	  -8.0640417e-02	  -8.6201357e-01	
   7.7165000e+01	  -5.9815640e-01	   2.2844871e-01	  -7.2407819e-01	
   7.7220000e+01	  -5.1940564e-01	   3.1287874e-01	  -6.4803770e-01	
   7.7275000e+01	  -3.9845445e-01	   7.0666134e-02	  -8.0951025e-01	
   7.7330000e+01	  -5.9167540e-01	  -2.0604349e-01	  -7.8034079e-01	
   7.7385000e+01	  -4.0356854e-01	   2.1000217e-01	  -9.5418886e-01	
   7.7440000e+01	  -5.9822410e-01	   1.5107531e-01	  -3.8216856e-01	
   7.7495000e+01	  -7.1350599e-01	  -4.2084264e-01	  -9.7375277e-01	
   7.7550000e+01	  -7.1389516e-01	  -1.2004473e-01	  -9.5787592e-01	
   7.7605000e+01	  -6.9356597e-01	  -7.6840332e-02	  -7.0019376e-01	
   7.7660000e+01	  -7.9176383e-01	  -2.0712351e-01	  -9.2300576e-01	
   7.7715000e+01	  -1.0402507e+00	  -5.7585598e-01	  -1.0546204e+00	
   7.7770000e+01	  -9.4506905e-01	  -4.8000193e-01	  -9.3828247e-01	
   7.7825000e+01	  -1.0214433e+00	  -3.0664367e-01	  -6.8884976e-01	
   7.7880000e+01	  -9.3644335e-01	  -3.1194725e-01	  -1.0088018e+00	
   7.7935000e+01	  -7.1403096e-01	  -1.9589359e-02	  -6.5044206e-01	
   7.7990000e+01	  -7.3951388e-01	  -2.2032937e-01	  -8.6364034e-01	
   7.8045000e+01	  -3.3927721e-01	   2.3317501e-01	  -4.3791312e-01	
   7.8100000e+01	  -4.0477199e-01	   2.5147550e-01	  -4.7720012e-01	
   7.8155000e+01	  -6.9308248e-01	   3.5897784e-01	  -7.1014864e-01	
   7.8210000e+01	  -4.5906102e-01	   8.0066885e-02	  -6.5620537e-01	
   7.8265000e+01	  -5.2193014e-01	   2.0341216e-01	  -1.0539890e+00	
   7.8320000e+01	  -4.9942744e-01	  -1.6063018e-01	  -4.2113806e-01	
   7.8375000e+01	  -6.7521324e-01	  -4.3819150e-02	  -6.1514878e-01	
   7.8430000e+01	  -8.7403626e-01	  -3.9063966e-01	  -7.7779399e-01	
   7.8485000e+01	  -5.8560219e-01	   1.4608776e-01	  -8.1533976e-01	
   7.8540000e+01	  -9.4287055e-01	  -3.6071769e-01	  -6.3175141e-01	
   7.8595000e+01	  -1.0050042e+00	  -5.0888109e-01	  -1.2220241e+00	
   7.8650000e+01	  -9.6295207e-01	  -2.4685028e-01	  -4.8888129e-01	
   7.8705000e+01	  -1.0277807e+00	  -4.4415776e-01	  -8.9095508e-01	
   7.8760000e+01	  -1.1273383e+00	  -8.9738945e-01	  -1.2992217e+00	
   7.8815000e+01	  -9.1798718e-01	  -3.8117384e-01	  -9.1896055e-01	
   7.8870000e+01	  -6.1818065e-01	  -1.5265863e-01	  -7.8415886e-01	
   7.8925000e+01	  -4.9684669e-01	   3.4239683e-01	  -9.5454447e-02	
   7.8980000e+01	  -3.7423062e-01	   4.9229413e-01	  -9.3586287e-02	
   7.9035000e+01	  -4.9298525e-01	  -9.5318436e-03	  -6.3398794e-01	
   7.9090000e+01	  -5.7346906e-01	   4.8088450e-02	  -8.4908479e-01	
   7.9145000e+01	  -5.6878558e-01	  -1.6579743e-02	  -3.9223200e-01	
   7.9200000e+01	  -5.4325013e-01	   3.2864135e-01	  -2.9925098e-01	
   7.9255000e+01	  -6.7106509e-01	  -2.7368199e-01	  -7.6990635e-01	
   7.9310000e+01	  -7.6226637e-01	  -4.6897444e-01	  -1.0110627e+00	
   7.9365000e+01	  -6.7638897e-01	  -1.2591260e-01	  -5.4214880e-01	
   7.9420000e+01	  -7.4476414e-01	   9.9877904e-02	  -3.7545366e-01	
   7.9475000e+01	  -9.5027937e-01	  -2.8946590e-01	  -2.4251322e-01	
   7.9530000e+01	  -1.0791707e+00	  -6.0615666e-01	  -8.5242596e-01	
   7.9585000e+01	  -1.0895664e+00	  -5.2042347e-01	  -4.9006621e-01	
   7.9640000e+01	  -5.8296636e-01	  -3.0947625e-02	  -3.0135105e-01	
   7.9695000e+01	  -7.0195438e-01	   2.3104546e-01	  -3.7514548e-01	
   7.9750000e+01	  -6.5844414e-01	  -2.4150874e-01	  -6.2027378e-01	
   7.9805000e+01	  -5.4717052e-01	   1.7039503e-01	  -2.9288813e-01	
   7.9860000e+01	  -4.5337544e-01	   4.3315288e-02	  -2.7165385e-01	
   7.9915000e+01	  -7.2262068e-01	  -1.3466098e-01	  -5.7188127e-01	
   7.9970000e+01	  -8.2998430e-01	  -1.1429944e-01	  -6.9169294e-01	
   8.0025000e+01	  -7.3171495e-01	  -1.3940837e-01	  -4.0650050e-01	
   8.0080000e+01	  -6.7101457e-01	  -3.7039050e-03	  -2.5730587e-01	
   8.0135000e+01	  -9.3687889e-01	  -4.1950126e-01	  -7.1596925e-01	
   8.0190000e+01	  -1.0120102e+00	  -3.9851421e-01	  -1.1241114e+00	
   8.0245000e+01	  -9.2210917e-01	  -2.1827539e-01	  -7.3005421e-01	
   8.0300000e+01	  -1.0308725e+00	  -5.1717593e-01	  -2.1494653e-01	
   8.0355000e+01	  -1.2001422e+00	  -6.4066442e-01	  -6.0469594e-01	
   8.0410000e+01	  -1.1029325e+00	  -6.9816816e-01	  -8.4034505e-01	
   8.0465000e+01	  -8.1695660e-01	  -4.9048436e-02	   7.1267778e-02	
   8.0520000e+01	  -6.7230006e-01	  -1.9724658e-01	  -6.5526454e-01	
   8.0575000e+01	  -4.6514395e-01	  -1.1912501e-02	  -3.0619500e-01	
   8.0630000e+01	  -5.9939488e-01	   2.3128061e-01	  -5.4558973e-01	
   8.0685000e+01	  -6.9506420e-01	  -1.4252874e-01	  -1.2042997e-01	
   8.0740000e+01	  -4.8419690e-01	   1.1954869e-01	  -3.6425164e-01	
   8.0795000e+01	  -6.6232798e-01	  -3.0151280e-01	  -7.2235633e-01	
   8.0850000e+01	  -5.9866318e-01	  -6.2882254e-02	  -3.2371940e-01	
   8.0905000e+01	  -7.9579395e-01	  -1.9426486e-01	  -2.7165385e-01	
   8.0960000e+01	  -6.9378199e-01	  -3.2784072e-01	  -2.0910672e-01	
   8.1015000e+01	  -7.5163451e-01	  -1.1395928e-01	  -3.3428891e-01	
   8.1070000e+01	  -1.0957149e+00	  -3.2633849e-01	  -6.3489900e-01	
   8.1125000e+01	  -1.0924740e+00	  -8.3046468e-01	  -4.3240286e-01	
   8.1180000e+01	  -9.7654361e-01	  -3.1530664e-01	  -5.3947278e-01	
   8.1235000e+01	  -8.5002665e-01	  -3.3784314e-02	  -2.9184842e-01	
   8.1290000e+01	  -6.2094022e-01	  -7.4090324e-02	  -9.7628458e-02	
   8.1345000e+01	  -5.0573285e-01	  -7.9945550e-02	  -7.5520352e-02	
   8.1400000e+01	  -1.7652270e-01	   2.9831728e-01	  -6.4756505e-02	
   8.1455000e+01	  -4.4300765e-01	   3.1593019e-01	  -2.0118542e-01	
   8.1510000e+01	  -7.1789157e-01	  -1.4044555e-01	  -3.1441269e-01	
   8.1565000e+01	  -4.7161825e-01	   2.5340253e-01	  -3.5345998e-01	
   8.1620000e+01	  -5.2547149e-01	   2.4028615e-01	   1.1486417e-01	
   8.1675000e+01	  -3.3592321e-01	   3.3129645e-01	  -4.6276435e-01	
   8.1730000e+01	  -4.2606631e-01	   1.0465260e-01	  -1.7298004e-01	
   8.1785000e+01	  -6.8540098e-01	  -1.7017889e-01	  -1.9426354e-01	
   8.1840000e+01	  -5.8823293e-01	   2.6260280e-01	  -2.6800183e-01	
   8.1895000e+01	  -8.3197858e-01	  -2.8133178e-01	  -7.4843486e-01	
   8.1950000e+01	  -8.7080531e-01	  -2.0138214e-01	  -6.5247644e-01	
   8.2005000e+01	  -1.1123743e+00	  -4.2936387e-01	  -3.7776069e-01	
   8.2060000e+01	  -8.3070556e-01	   1.8213868e-01	  -1.5631461e-01	
   8.2115000e+01	  -5.0221252e-01	   4.0416754e-01	   2.7828583e-01	
   8.2170000e+01	  -5.7218416e-01	   2.4050137e-02	   5.0635313e-01	
   8.2225000e+01	  -4.7128594e-01	   2.0534976e-01	   2.1610214e-01	
   8.2280000e+01	  -3.5953061e-01	   2.8793010e-01	  -6.7050180e-02	
   8.2335000e+01	  -8.7816747e-02	   1.2261259e-01	   9.4013917e-02	
   8.2390000e+01	  -3.0239313e-01	   1.1680693e-01	  -9.5967490e-02	
   8.2445000e+01	  -1.7781438e-01	   1.3192603e-01	   4.3295504e-01	
   8.2500000e+01	  -5.4146065e-01	   4.4720775e-01	   1.0435971e-01	
   8.2555000e+01	  -2.6278705e-01	   3.4011209e-01	   5.0655882e-01	
   8.2610000e+01	  -3.1094592e-01	   1.6172144e-01	  -4.8845974e-01	
   8.2665000e+01	  -6.0184371e-01	   2.2424530e-02	   1.8320886e-02	
   8.2720000e+01	  -3.4545387e-01	   2.2960520e-01	   4.4220981e-02	
   8.2775000e+01	  -5.8686717e-01	  -2.0156935e-01	  -6.0108503e-02	
   8.2830000e+01	  -6.4875275e-01	  -2.7167695e-01	   1.4170720e-01	
   8.2885000e+01	  -8.1097734e-01	  -2.1655351e-01	  -2.0930063e-01	
   8.2940000e+01	  -2.8182282e-01	   2.3591308e-01	   2.7828583e-01	
   8.2995000e+01	  -2.0789030e-01	   4.6338126e-01	   5.1649144e-01	
   8.3050000e+01	  -2.8790841e-01	   1.1682790e-01	   3.6470069e-01	
   8.3105000e+01	  -2.7686275e-01	   5.6791055e-02	   3.9022499e-01	
   8.3160000e+01	  -2.7352044e-01	   1.5663848e-01	  -3.0917920e-02	
   8.3215000e+01	  -2.4474313e-01	   4.3026594e-01	   3.4103187e-01	
   8.3270000e+01	  -3.0172965e-01	   1.6849229e-02	   2.4672213e-02	
   8.3325000e+01	  -3.9092713e-01	   5.6772625e-02	  -3.7041213e-02	
   8.3380000e+01	  -3.6819556e-01	   5.7029388e-01	   2.0011564e-01	
   8.3435000e+01	  -4.8840088e-01	  -4.1993414e-02	   3.2404562e-01	
   8.3490000e+01	  -4.8696587e-01	  -7.1491668e-02	   8.2134284e-02	
   8.3545000e+01	  -6.1802902e-01	  -1.0441468e-01	  -3.8159466e-01	
   8.3600000e+01	  -6.1302606e-01	  -1.7088474e-02	  -2.2431428e-02	
   8.3655000e+01	  -7.6324911e-01	   3.3517791e-02	   2.2269510e-02	
   8.3710000e+01	  -6.8385839e-01	  -1.4996137e-01	  -2.0817099e-01	
   8.3765000e+01	  -4.7308028e-01	   6.9389281e-02	   6.3093487e-01	
   8.3820000e+01	  -1.7948318e-01	   3.4033231e-01	   3.6855016e-01	
   8.3875000e+01	  -5.2549745e-02	   5.1529366e-01	   4.9406463e-01	
   8.3930000e+01	  -1.4198924e-01	   3.2279716e-01	   2.5258185e-01	
   8.3985000e+01	  -3.5895437e-01	   4.4677098e-01	   2.4369842e-01	
   8.4040000e+01	  -2.2892237e-01	   2.0173940e-01	   1.7108828e-01	
   8.4095000e+01	  -3.3306095e-01	   4.2551402e-01	   3.1515036e-01	
   8.4150000e+01	  -2.2975755e-01	   2.9770932e-01	   6.0853951e-02	
   8.4205000e+01	  -5.1193077e-01	   1.4021848e-01	  -1.5371050e-01	
   8.4260000e+01	  -5.1155292e-01	  -7.8819737e-02	   1.7108828e-01	
   8.4315000e+01	  -5.5495028e-01	   1.3068899e-01	   1.3975705e-01	
   8.4370000e+01	  -8.0286039e-01	  -8.8183523e-02	  -4.7875110e-02	
   8.4425000e+01	  -7.5491692e-01	  -2.2105817e-01	  -2.5619172e-01	
   8.4480000e+01	  -9.4538049e-01	  -1.8329125e-01	  -1.1433800e-01	
   8.4535000e+01	  -7.1419865e-01	  -5.7748321e-02	   3.2369948e-01	
   8.4590000e+01	  -3.3646285e-01	   4.0162080e-01	   1.0561663e+00	
   8.4645000e+01	  -3.6857645e-01	   1.0513350e-01	   7.0060232e-01	
   8.4700000e+01	  -1.7111971e-01	   4.4211249e-01	   7.8040676e-01	
   8.4755000e+01	  -2.6714817e-01	   5.0053159e-01	   7.3080404e-01	
   8.4810000e+01	  -1.2069415e-01	   5.4905787e-01	   9.5467166e-01	
   8.4865000e+01	  -2.4877885e-01	   3.2572133e-01	   7.4478224e-01	
   8.4920000e+01	  -3.8864106e-01	   7.6105628e-02	   1.3318739e-01	
   8.4975000e+01	  -3.3476969e-01	   3.8942184e-01	   3.2975370e-02	
   8.5030000e+01	  -1.4874099e-01	   1.2253947e-01	  -2.0252173e-02	
   8.5085000e+01	  -3.7236230e-01	   1.7125633e-01	   1.3318739e-01	
   8.5140000e+01	  -4.9045316e-01	   1.3631577e-01	   3.3082488e-01	
   8.5195000e+01	  -4.8277019e-01	   3.2482763e-01	   1.1177288e-01	
   8.5250000e+01	  -5.9099902e-01	  -1.8288039e-01	   3.6193434e-01	
   8.5305000e+01	  -7.1373206e-01	  -2.2422604e-02	  -8.9491021e-02	
   8.5360000e+01	  -9.6986159e-01	  -3.4877138e-01	  -1.7015699e-01	
   8.5415000e+01	  -1.0258656e+00	  -2.9077898e-01	   1.2377882e-01	
   8.5470000e+01	  -6.1925032e-01	   8.1115741e-02	   5.2696750e-01	
   8.5525000e+01	  -3.0199181e-01	  -4.2356580e-02	   9.2352176e-01	
   8.5580000e+01	  -2.7741673e-01	   3.6396585e-01	   5.5646929e-01	
   8.5635000e+01	  -1.6491752e-01	   1.9908749e-01	   7.2410662e-01	
   8.5690000e+01	  -3.2524300e-01	   1.5948781e-01	   4.7073038e-01	
   8.5745000e+01	  -3.3590058e-01	   3.4165978e-01	   4.3318270e-01	
   8.5800000e+01	  -2.9312691e-01	   1.4176010e-01	   3.2972516e-01	
   8.5855000e+01	  -2.8527452e-01	   1.9849005e-01	   2.7677175e-01	
   8.5910000e+01	  -4.2094347e-01	   4.6893880e-01	  -2.0252173e-02	
   8.5965000e+01	  -3.1789012e-01	   2.0428702e-01	  -9.4902955e-02	
   8.6020000e+01	  -5.6924302e-01	   1.2375491e-01	   3.6193434e-01	
   8.6075000e+01	  -4.4472463e-01	   2.7030800e-01	   1.4573203e-01	
   8.6130000e+01	  -6.1297343e-01	   1.0029441e-02	   2.2718156e-01	
   8.6185000e+01	  -7.6219691e-01	  -3.6095604e-01	   9.3102874e-02	
   8.6240000e+01	  -8.7045679e-01	  -2.7692800e-01	   5.6482399e-02	
   8.6295000e+01	  -8.0150025e-01	  -2.4369492e-01	  -1.2344956e-01	
   8.6350000e+01	  -4.9716564e-01	   3.7274976e-01	   8.3695049e-01	
   8.6405000e+01	  -2.7409575e-01	   2.8097152e-01	   8.2382622e-01	
   8.6460000e+01	  -4.7577417e-01	   1.0746656e-01	   7.6591596e-01	
   8.6515000e+01	  -2.2851215e-01	   1.7725013e-01	   6.7176285e-01	
   8.6570000e+01	  -2.1893313e-01	   6.3943301e-01	   2.7754910e-01	
   8.6625000e+01	  -3.4699161e-01	   2.9738695e-01	   1.8052985e-01	
   8.6680000e+01	  -3.1701083e-01	   1.2485110e-01	   4.8881603e-01	
   8.6735000e+01	  -3.0334446e-01	   1.8729889e-01	   1.2865438e-01	
   8.6790000e+01	  -4.2054854e-01	   1.3222085e-01	   3.2404562e-01	
   8.6845000e+01	  -5.6222810e-01	  -2.7474128e-02	  -8.4145463e-02	
   8.6900000e+01	  -6.5857449e-01	   1.8520706e-02	  -2.4316569e-01	
   8.6955000e+01	  -4.9803518e-01	   1.8742896e-01	   1.0101405e-01	
   8.7010000e+01	  -5.6469754e-01	   1.5787565e-01	  -6.1358105e-02	
   8.7065000e+01	  -7.6066972e-01	   3.9112476e-02	   6.1874166e-02	
   8.7120000e+01	  -8.5913268e-01	  -3.0365216e-01	  -5.3976054e-03	
   8.7175000e+01	  -7.9963078e-01	  -2.5220545e-01	   1.9206259e-01	
   8.7230000e+01	  -6.0427766e-01	   2.4454736e-01	   6.7390810e-01	
   8.7285000e+01	  -4.0145759e-01	   1.5489190e-01	   9.3000649e-01	
   8.7340000e+01	  -5.3612571e-01	   1.4448355e-01	   4.0067851e-01	
   8.7395000e+01	  -3.7588826e-01	   4.0474359e-01	   3.4879216e-01	
   8.7450000e+01	  -2.3166731e-01	   4.4170779e-01	   1.4376752e-01	
   8.7505000e+01	  -1.7284560e-01	   4.3222443e-01	   2.3560503e-01	
   8.7560000e+01	  -2.8960651e-01	   1.9766002e-01	   6.9176545e-02	
   8.7615000e+01	  -5.2903676e-01	   4.6141820e-03	   1.2456424e-01	
   8.7670000e+01	  -4.6872492e-01	   3.6759388e-01	   1.5200182e-01	
   8.7725000e+01	  -7.5878938e-01	   6.3898137e-02	  -1.1752876e-01	
   8.7780000e+01	  -6.7985663e-01	   5.0615764e-02	  -6.5121046e-01	
   8.7835000e+01	  -7.1991586e-01	  -5.4648853e-02	   6.6888262e-02	
   8.7890000e+01	  -7.0604319e-01	  -3.6710187e-02	  -2.0140083e-01	
   8.7945000e+01	  -8.3624762e-01	  -4.1975206e-01	   1.7735807e-01	
   8.8000000e+01	  -1.1900945e+00	  -7.6491578e-01	  -3.4747048e-01	
   8.8055000e+01	  -9.9039688e-01	   1.2119758e-02	   1.6157667e-01	
   8.8110000e+01	  -6.5429879e-01	   5.8763042e-02	   5.1251576e-01	
   8.8165000e+01	  -3.9806759e-01	   3.1560269e-01	   6.5532605e-01	
   8.8220000e+01	  -3.4659616e-01	  -1.5607930e-01	   2.6762379e-01	
   8.8275000e+01	  -3.9360400e-01	   6.2195522e-01	   8.2988350e-02	
   8.8330000e+01	  -3.3156832e-01	  -7.2123658e-02	   6.7772826e-02	
   8.8385000e+01	  -4.0634949e-01	   2.8970474e-01	  -2.3913881e-01	
   8.8440000e+01	  -3.9303670e-01	   4.1323775e-02	  -3.5046389e-01	
   8.8495000e+01	  -2.8216845e-01	   3.0530917e-01	  -1.8970549e-01	
   8.8550000e+01	  -4.4027169e-01	   3.5636223e-01	  -5.2726768e-01	
   8.8605000e+01	  -4.6495535e-01	   1.4418861e-01	  -3.3107493e-01	
   8.8660000e+01	  -5.6582748e-01	   1.4816553e-02	  -4.8029322e-01	
   8.8715000e+01	  -4.5589307e-01	  -1.0463441e-01	  -4.6226754e-01	
   8.8770000e+01	  -4.9524473e-01	   1.0989120e-01	  -2.5371633e-01	
   8.8825000e+01	  -6.1832410e-01	  -6.9297605e-02	  -5.2470941e-02	
   8.8880000e+01	  -1.0294660e+00	  -4.6788988e-01	  -7.7217221e-01	
   8.8935000e+01	  -1.0518878e+00	  -3.9256169e-01	  -4.6158386e-01	
   8.8990000e+01	  -9.2044422e-01	  -1.5310478e-01	  -3.6677843e-01	
   8.9045000e+01	  -5.8841597e-01	   3.6847473e-01	  -1.5333095e-01	
   8.9100000e+01	  -5.1244682e-01	   1.2425165e-01	   4.0067851e-01	
   8.9155000e+01	  -5.3836195e-01	  -3.9781265e-02	   2.2547216e-01	
   8.9210000e+01	  -3.4663999e-01	   2.1121896e-01	  -1.9908519e-01	
   8.9265000e+01	  -4.3965034e-01	   4.0947611e-01	  -4.3766430e-01	
   8.9320000e+01	  -5.0090831e-01	   1.0458111e-01	  -6.2706989e-01	
   8.9375000e+01	  -4.6351919e-01	   3.0851574e-01	  -2.8378891e-01	
   8.9430000e+01	  -5.3338691e-01	   2.4264708e-01	  -4.0785238e-01	
   8.9485000e+01	  -6.5078329e-01	   3.3993274e-01	  -5.6982316e-01	
   8.9540000e+01	  -6.0644623e-01	  -4.8330511e-02	  -8.3143815e-01	
   8.9595000e+01	  -7.1644686e-01	   9.0201898e-02	  -1.0263677e+00	
   8.9650000e+01	  -7.4230174e-01	   1.0210731e-01	  -6.6686183e-01	
   8.9705000e+01	  -8.4742226e-01	  -1.1113229e-01	  -5.3865798e-01	
   8.9760000e+01	  -9.4730414e-01	  -3.7311886e-01	  -9.1962289e-01	
   8.9815000e+01	  -1.0356792e+00	  -2.5821695e-01	  -8.2751013e-01	
   8.9870000e+01	  -1.2480164e+00	  -1.7049618e-01	  -1.1292006e+00	
   8.9925000e+01	  -9.4538782e-01	  -2.8596290e-01	  -4.9415855e-01	
   8.9980000e+01	  -7.4845811e-01	   4.3314911e-02	  -5.5984195e-01	
   9.0035000e+01	  -5.9574480e-01	   6.5143388e-02	  -4.1644837e-01	
   9.0090000e+01	  -4.4262383e-01	   1.2697950e-01	  -4.6499009e-01	
   9.0145000e+01	  -4.6404079e-01	   5.5355012e-02	  -8.7175557e-01	
   9.0200000e+01	  -8.4257946e-01	  -5.0009211e-01	  -1.1785957e+00	
   9.0255000e+01	  -6.9324232e-01	  -2.3121289e-02	  -1.0303265e+00	
   9.0310000e+01	  -6.8064827e-01	   1.6052698e-01	  -7.0465198e-01	
   9.0365000e+01	  -6.0689282e-01	  -2.9933861e-01	  -5.3398033e-01	
   9.0420000e+01	  -8.5151910e-01	  -3.2184702e-01	  -9.1132510e-01	
   9.0475000e+01	  -9.9446955e-01	  -1.5999526e-01	  -1.2093528e+00	
   9.0530000e+01	  -8.6031073e-01	  -4.0946198e-01	  -4.3821537e-01	
   9.0585000e+01	  -1.0602527e+00	  -2.4774759e-03	  -7.7167821e-01	
   9.0640000e+01	  -1.2681796e+00	  -6.7034483e-01	  -1.1946204e+00	
   9.0695000e+01	  -1.2833811e+00	  -7.3538774e-01	  -1.4299543e+00	
   9.0750000e+01	  -1.0070687e+00	  -2.4760716e-01	  -7.6791335e-01	
   9.0805000e+01	  -7.4147438e-01	  -2.4491023e-01	  -5.9931877e-01	
   9.0860000e+01	  -1.0125205e+00	   1.0208646e-01	  -7.9819500e-01	
   9.0915000e+01	  -6.4063677e-01	   4.5625219e-02	  -8.5102145e-01	
   9.0970000e+01	  -7.8270482e-01	  -2.8512908e-02	  -1.0525922e+00	
   9.1025000e+01	  -8.7481936e-01	  -2.0739103e-01	  -9.5093288e-01	
   9.1080000e+01	  -7.6026751e-01	  -1.4328184e-01	  -1.2282733e+00	
   9.1135000e+01	  -9.4271073e-01	  -1.7235404e-01	  -1.3739559e+00	
   9.1190000e+01	  -7.8583932e-01	  -4.7838740e-02	  -1.0574576e+00	
   9.1245000e+01	  -8.0334865e-01	  -2.7975837e-02	  -1.2071869e+00	
   9.1300000e+01	  -7.5713646e-01	   7.6137947e-02	  -8.9134727e-01	
   9.1355000e+01	  -1.3205963e+00	  -4.0885485e-01	  -1.5364287e+00	
   9.1410000e+01	  -1.1347647e+00	  -5.6828572e-01	  -1.4252157e+00	
   9.1465000e+01	  -1.1436647e+00	  -1.6637215e-01	  -7.4017519e-01	
   9.1520000e+01	  -1.4914632e+00	  -7.3066325e-01	  -1.6147427e+00	
   9.1575000e+01	  -1.5328724e+00	  -1.0474399e+00	  -1.6073220e+00	
   9.1630000e+01	  -1.3658562e+00	  -3.6357991e-01	  -1.2048230e+00	
   9.1685000e+01	  -7.7362800e-01	   1.1012370e-02	  -4.4872601e-01	
   9.1740000e+01	  -7.4582495e-01	  -1.3428932e-01	  -8.5328140e-01	
   9.1795000e+01	  -8.6924770e-01	  -1.1508299e-01	  -1.1070306e+00	
   9.1850000e+01	  -6.9335544e-01	  -1.2657162e-01	  -1.0166653e+00	
   9.1905000e+01	  -5.7472650e-01	   2.6467213e-01	  -1.1763221e+00	
   9.1960000e+01	  -7.4944657e-01	  -1.2327942e-01	  -1.1883035e+00	
   9.2015000e+01	  -7.8825497e-01	  -2.9794507e-02	  -1.4045199e+00	
   9.2070000e+01	  -7.0061523e-01	  -1.1636154e-01	  -1.2221405e+00	
   9.2125000e+01	  -7.4294370e-01	  -1.0622318e-01	  -1.1044125e+00	
   9.2180000e+01	  -9.3084262e-01	  -3.9498556e-01	  -1.3600801e+00	
   9.2235000e+01	  -9.3060223e-01	  -3.2750670e-01	  -1.4909984e+00	
   9.2290000e+01	  -1.2127670e+00	  -6.0422812e-01	  -1.2349643e+00	
   9.2345000e+01	  -1.0588231e+00	  -3.8463157e-01	  -1.3691452e+00	
   9.2400000e+01	  -1.2934886e+00	  -3.2851210e-01	  -1.5189716e+00	
   9.2455000e+01	  -1.2931618e+00	  -5.1779043e-01	  -1.2073969e+00	
   9.2510000e+01	  -1.1734926e+00	  -2.8173745e-01	  -1.1334552e+00	
   9.2565000e+01	  -8.4720341e-01	  -2.3825412e-01	  -8.9702210e-01	
   9.2620000e+01	  -7.4140255e-01	  -1.5459174e-01	  -8.8988114e-01	
   9.2675000e+01	  -7.5646942e-01	   8.2014031e-02	  -7.2744127e-01	
   9.2730000e+01	  -5.4445247e-01	  -1.3893548e-02	  -1.0055777e+00	
   9.2785000e+01	  -4.0456965e-01	   8.1667682e-02	  -9.5907737e-01	
   9.2840000e+01	  -6.1771696e-01	  -3.0359304e-02	  -9.7444307e-01	
   9.2895000e+01	  -4.9703156e-01	  -1.2584727e-01	  -1.1475721e+00	
   9.2950000e+01	  -7.3476509e-01	   1.1754042e-01	  -1.8017224e+00	
   9.3005000e+01	  -7.4175913e-01	   1.3046766e-01	  -1.4137305e+00	
   9.3060000e+01	  -7.6885708e-01	  -9.3593337e-02	  -1.5164078e+00	
   9.3115000e+01	  -9.4260616e-01	  -3.7349124e-01	  -1.5321811e+00	
   9.3170000e+01	  -1.0218330e+00	  -5.6354385e-01	  -1.7440453e+00	
   9.3225000e+01	  -9.0179665e-01	  -5.2224719e-01	  -1.3832723e+00	
   9.3280000e+01	  -1.1878518e+00	  -5.1158151e-01	  -1.7179728e+00	
   9.3335000e+01	  -1.4251023e+00	  -6.0128551e-01	  -1.9184229e+00	
   9.3390000e+01	  -1.2794882e+00	  -5.1986247e-01	  -1.6689994e+00	
   9.3445000e+01	  -9.2127694e-01	  -2.4983640e-01	  -1.0551233e+00	
   9.3500000e+01	  -7.2293615e-01	  -7.2695232e-02	  -8.4845656e-01	
   9.3555000e+01	  -5.6227287e-01	  -9.1613434e-02	  -1.5104103e+00	
   9.3610000e+01	  -7.3830498e-01	   1.4695148e-01	  -1.3087030e+00	
   9.3665000e+01	  -4.4857643e-01	   1.1050367e-01	  -1.1044125e+00	
   9.3720000e+01	  -6.4575207e-01	   1.4538854e-02	  -1.6881693e+00	
   9.3775000e+01	  -5.1519476e-01	  -4.3131955e-02	  -1.7463218e+00	
   9.3830000e+01	  -7.4004708e-01	  -2.2374115e-01	  -1.5972499e+00	
   9.3885000e+01	  -6.3945045e-01	  -1.3367491e-01	  -1.1274050e+00	
   9.3940000e+01	  -7.4153171e-01	  -3.0215118e-03	  -1.2250890e+00	
   9.3995000e+01	  -1.0745594e+00	  -3.9231380e-01	  -1.4282739e+00	
   9.4050000e+01	  -1.0528366e+00	  -1.7621646e-01	  -1.6478782e+00	
   9.4105000e+01	  -1.0556163e+00	  -2.8933112e-01	  -1.2766297e+00	
   9.4160000e+01	  -1.0611179e+00	  -3.5422776e-01	  -1.8313539e+00	
   9.4215000e+01	  -1.1599572e+00	  -5.6226038e-01	  -1.5092052e+00	
   9.4270000e+01	  -8.4444592e-01	  -2.5343582e-01	  -1.2751270e+00	
   9.4325000e+01	  -6.4221703e-01	  -4.6920696e-02	  -1.0908970e+00	
   9.4380000e+01	  -8.3823645e-01	   1.9690782e-02	  -1.5364287e+00	
   9.4435000e+01	  -5.2093261e-01	  -2.6223695e-01	  -1.3530630e+00	
   9.4490000e+01	  -7.3303563e-01	  -1.1358954e-01	  -1.5282607e+00	
   9.4545000e+01	  -6.1656149e-01	  -2.1560931e-01	  -1.2490436e+00	
   9.4600000e+01	  -5.8060447e-01	   1.0923856e-01	  -1.2300676e+00	
   9.4655000e+01	  -7.4363588e-01	  -1.8817049e-01	  -1.3819340e+00	
   9.4710000e+01	  -9.4974952e-01	  -3.2717775e-01	  -1.4023706e+00	
   9.4765000e+01	  -6.5598572e-01	  -1.4637583e-01	  -1.4487307e+00	
   9.4820000e+01	  -8.7452852e-01	   5.2986371e-02	  -1.4443935e+00	
   9.4875000e+01	  -8.8783843e-01	  -2.3442053e-01	  -1.7596218e+00	
   9.4930000e+01	  -8.5317419e-01	  -5.7546719e-01	  -1.4137317e+00	
   9.4985000e+01	  -8.8373897e-01	  -1.7379715e-01	  -1.7056130e+00	
   9.5040000e+01	  -8.1909355e-01	  -4.3277192e-01	  -1.7861577e+00	
   9.5095000e+01	  -7.5527096e-01	  -3.3356872e-01	  -1.1440489e+00	
   9.5150000e+01	  -5.9297464e-01	  -4.4013639e-02	  -8.6323413e-01	
   9.5205000e+01	  -4.1991297e-01	   3.6841024e-01	  -1.2162848e+00	
   9.5260000e+01	  -3.8146716e-01	   1.6349173e-01	  -9.0764465e-01	
   9.5315000e+01	  -5.0939741e-01	   1.6714029e-01	  -1.5321811e+00	
   9.5370000e+01	  -6.0272013e-01	  -1.0979720e-01	  -1.3157810e+00	
   9.5425000e+01	  -3.8816570e-01	   1.9319571e-01	  -1.1558979e+00	
   9.5480000e+01	  -4.7386177e-01	   4.5789092e-01	  -9.6317679e-01	
   9.5535000e+01	  -7.0552382e-01	  -3.8319542e-02	  -1.3667005e+00	
