
0 3 6	
   0.0000000e+00	   8.8410127e+00	   4.4899080e-01	
   5.5000000e-02	   8.1925021e+00	   2.6437415e-01	
   1.1000000e-01	   8.4858659e+00	   4.9345261e-01	
   1.6500000e-01	   8.5005550e+00	   3.8536367e-01	
   2.2000000e-01	   8.2736631e+00	   4.5681150e-01	
   2.7500000e-01	   7.8524999e+00	   1.7934036e-01	
   3.3000000e-01	   8.7668348e+00	   2.0171424e-01	
   3.8500000e-01	   8.5638409e+00	   1.2044350e-01	
   4.4000000e-01	   8.6526717e+00	   6.6410906e-02	
   4.9500000e-01	   8.0620487e+00	   2.4841905e-01	
   5.5000000e-01	   8.3211292e+00	   3.8883208e-01	
   6.0500000e-01	   8.8113488e+00	   5.5113734e-01	
   6.6000000e-01	   8.2786028e+00	   1.5954898e-01	
   7.1500000e-01	   8.6463736e+00	   4.2048222e-01	
   7.7000000e-01	   8.2603624e+00	   3.1018298e-01	
   8.2500000e-01	   8.5209365e+00	   2.6956377e-01	
   8.8000000e-01	   7.6941764e+00	   2.6444050e-01	
   9.3500000e-01	   8.4564759e+00	   8.1480391e-02	
   9.9000000e-01	   8.1941343e+00	   4.7286832e-02	
   1.0450000e+00	   8.5742537e+00	  -1.5508868e-01	
   1.1000000e+00	   8.6347421e+00	   1.9474554e-01	
   1.1550000e+00	   8.4059158e+00	   5.4747923e-01	
   1.2100000e+00	   8.7545666e+00	   3.1163584e-01	
   1.2650000e+00	   8.3690725e+00	   4.2469508e-01	
   1.3200000e+00	   8.1977069e+00	   5.0336556e-01	
   1.3750000e+00	   8.2949922e+00	   4.2196859e-01	
   1.4300000e+00	   8.2330248e+00	   2.6059227e-01	
   1.4850000e+00	   8.5064091e+00	   3.7979466e-01	
   1.5400000e+00	   8.6347421e+00	   3.1602921e-01	
   1.5950000e+00	   7.9325357e+00	   7.0095157e-02	
   1.6500000e+00	   8.1101483e+00	  -9.0382656e-02	
   1.7050000e+00	   8.0008498e+00	  -2.7757987e-02	
   1.7600000e+00	   8.4894035e+00	   4.5141749e-01	
   1.8150000e+00	   8.7499161e+00	   4.5767756e-01	
   1.8700000e+00	   8.8613520e+00	   4.5423425e-01	
   1.9250000e+00	   8.8235525e+00	   6.8910992e-01	
   1.9800000e+00	   8.4536921e+00	   6.4748558e-01	
   2.0350000e+00	   8.7688241e+00	   4.0886119e-01	
   2.0900000e+00	   7.9493313e+00	   3.7837299e-01	
   2.1450000e+00	   8.3201152e+00	   3.9514468e-01	
   2.2000000e+00	   8.4165152e+00	   2.9384901e-01	
   2.2550000e+00	   7.7821457e+00	   1.6590662e-01	
   2.3100000e+00	   8.0563509e+00	   1.7783743e-01	
   2.3650000e+00	   7.9510122e+00	   3.4225147e-01	
   2.4200000e+00	   8.1521586e+00	   3.7730239e-01	
   2.4750000e+00	   8.5491258e+00	   5.1068945e-01	
   2.5300000e+00	   8.4247791e+00	   6.0002795e-01	
   2.5850000e+00	   8.9356372e+00	   8.6395907e-01	
   2.6400000e+00	   8.4746481e+00	   7.9583577e-01	
   2.6950000e+00	   8.8763914e+00	   6.8986153e-01	
   2.7500000e+00	   8.7625852e+00	   5.8051657e-01	
   2.8050000e+00	   8.5372470e+00	   5.5842091e-01	
   2.8600000e+00	   8.2257095e+00	   7.5445105e-01	
   2.9150000e+00	   8.8756018e+00	   3.7430865e-01	
   2.9700000e+00	   8.3360298e+00	   2.1373723e-01	
   3.0250000e+00	   7.9199054e+00	   4.1190987e-01	
   3.0800000e+00	   8.7911558e+00	   4.0517303e-01	
   3.1350000e+00	   8.2523677e+00	   1.7171101e-01	
   3.1900000e+00	   8.0922416e+00	   6.5082381e-01	
   3.2450000e+00	   8.9965342e+00	   8.9841909e-01	
   3.3000000e+00	   8.3852821e+00	   9.5237400e-01	
   3.3550000e+00	   8.7336406e+00	   7.8410016e-01	
   3.4100000e+00	   8.6896343e+00	   6.6592181e-01	
   3.4650000e+00	   8.6342425e+00	   9.1847886e-01	
   3.5200000e+00	   8.9057877e+00	   9.2522651e-01	
   3.5750000e+00	   8.5354132e+00	   5.4063442e-01	
   3.6300000e+00	   8.3134009e+00	   7.4135030e-01	
   3.6850000e+00	   8.2985819e+00	   5.5519565e-01	
   3.7400000e+00	   8.2869193e+00	   3.0829173e-01	
   3.7950000e+00	   7.9376344e+00	   3.1874937e-01	
   3.8500000e+00	   8.3301001e+00	   5.0373296e-01	
   3.9050000e+00	   8.4824763e+00	   8.1716482e-01	
   3.9600000e+00	   8.4022813e+00	   7.4481605e-01	
   4.0150000e+00	   8.5955008e+00	   6.8016265e-01	
   4.0700000e+00	   8.8047175e+00	   7.6629674e-01	
   4.1250000e+00	   8.0565599e+00	   8.1410435e-01	
   4.1800000e+00	   8.6577848e+00	   6.9059614e-01	
   4.2350000e+00	   8.2603331e+00	   7.2886122e-01	
   4.2900000e+00	   8.5456767e+00	   4.8781135e-01	
   4.3450000e+00	   7.5491318e+00	   6.3449759e-01	
   4.4000000e+00	   8.7453835e+00	   6.9169017e-01	
   4.4550000e+00	   7.6666505e+00	   2.5317392e-01	
   4.5100000e+00	   7.3418857e+00	   1.6243214e-01	
   4.5650000e+00	   8.6063974e+00	   8.4544059e-01	
   4.6200000e+00	   8.1088856e+00	   8.9039860e-01	
   4.6750000e+00	   8.3719204e+00	   7.5808185e-01	
   4.7300000e+00	   7.9694180e+00	   6.3995869e-01	
   4.7850000e+00	   8.5002172e+00	   8.5530493e-01	
   4.8400000e+00	   8.1618086e+00	   8.4668892e-01	
   4.8950000e+00	   7.9369180e+00	   6.3004774e-01	
   4.9500000e+00	   8.1470961e+00	   7.1220540e-01	
   5.0050000e+00	   8.3488962e+00	   7.2591608e-01	
   5.0600000e+00	   8.1727235e+00	   6.2888636e-01	
   5.1150000e+00	   8.1682828e+00	   4.4133805e-01	
   5.1700000e+00	   7.5025977e+00	   3.6936356e-01	
   5.2250000e+00	   7.5496582e+00	   3.0984327e-01	
   5.2800000e+00	   8.1144863e+00	   6.9765677e-01	
   5.3350000e+00	   7.8511570e+00	   7.4064147e-01	
   5.3900000e+00	   8.4716986e+00	   8.7917758e-01	
   5.4450000e+00	   8.2548156e+00	   8.6868352e-01	
   5.5000000e+00	   8.8640276e+00	   8.7077006e-01	
   5.5550000e+00	   8.6647554e+00	   8.6092788e-01	
   5.6100000e+00	   8.1739906e+00	   7.0582983e-01	
   5.6650000e+00	   8.1687696e+00	   7.8749134e-01	
   5.7200000e+00	   8.4987453e+00	   8.3910582e-01	
   5.7750000e+00	   8.1314463e+00	   3.6506721e-01	
   5.8300000e+00	   7.4971276e+00	   5.0199598e-01	
   5.8850000e+00	   8.2104822e+00	   5.5128133e-01	
   5.9400000e+00	   7.9351582e+00	   3.9671991e-01	
   5.9950000e+00	   7.7436552e+00	   4.6208690e-01	
   6.0500000e+00	   8.2463811e+00	   6.1916063e-01	
   6.1050000e+00	   8.4639652e+00	   1.0432277e+00	
   6.1600000e+00	   8.5478543e+00	   6.9168309e-01	
   6.2150000e+00	   8.4553343e+00	   7.5168358e-01	
   6.2700000e+00	   8.1091572e+00	   6.3490494e-01	
   6.3250000e+00	   8.0177527e+00	   7.0679417e-01	
   6.3800000e+00	   8.7762159e+00	   6.9356095e-01	
   6.4350000e+00	   8.2612147e+00	   6.9619938e-01	
   6.4900000e+00	   7.7139482e+00	   5.0547568e-01	
   6.5450000e+00	   7.9541096e+00	   2.5217458e-01	
   6.6000000e+00	   8.7472054e+00	   3.7445081e-01	
   6.6550000e+00	   8.1270512e+00	   2.9053863e-01	
   6.7100000e+00	   7.8524972e+00	   1.9689316e-01	
   6.7650000e+00	   8.3878170e+00	   5.0433735e-01	
   6.8200000e+00	   8.5651130e+00	   6.5983742e-01	
   6.8750000e+00	   8.6787398e+00	   6.2100912e-01	
   6.9300000e+00	   7.9726554e+00	   2.2407337e-01	
   6.9850000e+00	   8.3142295e+00	   6.9572332e-01	
   7.0400000e+00	   8.2225348e+00	   5.1818967e-01	
   7.0950000e+00	   1.0937906e+00	   5.9662082e-01	
   7.1500000e+00	   8.2177954e-01	   2.3768188e-01	
   7.2050000e+00	   8.2991372e+00	   3.8493153e-01	
   7.2600000e+00	   7.7041408e+00	   2.7760402e-01	
   7.3150000e+00	   7.6978087e+00	   1.1207511e-01	
   7.3700000e+00	   7.7190322e+00	   5.3268166e-03	
   7.4250000e+00	   8.2751146e+00	   5.2467250e-01	
   7.4800000e+00	   8.1265121e+00	   5.0151275e-01	
   7.5350000e+00	   8.3768927e+00	   5.2710258e-01	
   7.5900000e+00	   7.8691727e+00	   3.6708229e-01	
   7.6450000e+00	   8.2962081e+00	   6.8464975e-01	
   7.7000000e+00	   8.4106124e+00	   6.0552861e-01	
   7.7550000e+00	   8.1853135e+00	   3.2621508e-01	
   7.8100000e+00	   8.0480314e+00	   3.9923172e-01	
   7.8650000e+00	   7.3919668e+00	   3.1250453e-01	
   7.9200000e+00	   7.6784769e+00	   3.8716028e-01	
   7.9750000e+00	   8.1659452e+00	   1.1787834e-01	
   8.0300000e+00	   7.5496751e+00	   3.0761353e-01	
   8.0850000e+00	   8.2296097e+00	   6.5955875e-01	
   8.1400000e+00	   8.4416950e+00	   6.8819753e-01	
   8.1950000e+00	   8.1871559e+00	   6.6845906e-01	
   8.2500000e+00	   8.1249388e+00	   6.5268129e-01	
   8.3050000e+00	   8.0922114e+00	   8.0598772e-01	
   8.3600000e+00	   7.5397108e+00	   5.7469375e-01	
   8.4150000e+00	   8.0678872e+00	   4.0319210e-01	
   8.4700000e+00	   4.8627056e-01	   3.1276723e-01	
   8.5250000e+00	   2.8004047e-01	   5.7544739e-01	
   8.5800000e+00	   5.2457489e-01	   4.7179817e-01	
   8.6350000e+00	   1.5581373e-01	   1.0580014e-01	
   8.6900000e+00	   2.5404335e-01	   3.7907919e-01	
   8.7450000e+00	   2.4533164e-01	   6.1785511e-01	
   8.8000000e+00	   7.1021208e-01	   6.9835926e-01	
   8.8550000e+00	   1.2585998e+00	   6.2159260e-01	
   8.9100000e+00	   2.5330582e-01	   4.7567247e-01	
   8.9650000e+00	   5.7283050e-01	   6.1365759e-01	
   9.0200000e+00	   7.5436385e-01	   8.1370937e-01	
   9.0750000e+00	   1.3671868e-01	   5.4845286e-01	
   9.1300000e+00	   8.1676436e+00	   6.2523950e-01	
   9.1850000e+00	   6.9136839e+00	   3.7530214e-01	
   9.2400000e+00	   8.0315723e+00	   5.8291639e-01	
   9.2950000e+00	   7.2510255e+00	   3.2430552e-01	
   9.3500000e+00	   7.5622597e+00	   7.4333905e-01	
   9.4050000e+00	   7.5871151e+00	   8.1311492e-01	
   9.4600000e+00	   8.5055972e+00	   9.8313958e-01	
   9.5150000e+00	   8.0213619e+00	   8.9141920e-01	
   9.5700000e+00	   7.2466856e+00	   7.0271235e-01	
   9.6250000e+00	   7.7827202e+00	   7.9473245e-01	
   9.6800000e+00	   7.4267522e+00	   8.0288848e-01	
   9.7350000e+00	   8.0641737e+00	   8.8689521e-01	
   9.7900000e+00	   7.8109883e+00	   6.7518268e-01	
   9.8450000e+00	   8.0644578e+00	   6.6583080e-01	
   9.9000000e+00	   8.0339872e+00	   5.5008656e-01	
   9.9550000e+00	   7.4457250e+00	   5.1077315e-01	
   1.0010000e+01	   7.9124885e+00	   8.8563880e-01	
   1.0065000e+01	   7.5583963e+00	   8.9759039e-01	
   1.0120000e+01	   7.7474482e+00	   1.1089423e+00	
   1.0175000e+01	   8.4627597e+00	   1.0645579e+00	
   1.0230000e+01	   8.0814260e+00	   1.0355316e+00	
   1.0285000e+01	   7.8154158e+00	   9.1296110e-01	
   1.0340000e+01	   2.5114099e-01	   8.6765544e-01	
   1.0395000e+01	   4.2343051e-01	   7.1336654e-01	
   1.0450000e+01	   7.6168429e+00	   6.6080217e-01	
   1.0505000e+01	   7.5852075e+00	   5.9734603e-01	
   1.0560000e+01	   7.7243799e+00	   6.1292350e-01	
   1.0615000e+01	   7.7361368e+00	   9.4830003e-01	
   1.0670000e+01	   7.9050016e+00	   1.1100107e+00	
   1.0725000e+01	   7.5564314e+00	   1.0001814e+00	
   1.0780000e+01	   7.9415266e+00	   1.2647417e+00	
   1.0835000e+01	   3.2596276e-01	   9.8395324e-01	
   1.0890000e+01	  -1.2560114e-01	   8.9049001e-01	
   1.0945000e+01	   4.6101013e+00	   9.3953695e-01	
   1.1000000e+01	   7.4061125e+00	   8.7064715e-01	
   1.1055000e+01	   7.5595301e+00	   8.1214831e-01	
   1.1110000e+01	   7.8294322e+00	   5.7719787e-01	
   1.1165000e+01	   7.3192628e+00	   5.8038253e-01	
   1.1220000e+01	   7.5270850e+00	   9.2761671e-01	
   1.1275000e+01	   8.5015312e+00	   1.2000662e+00	
   1.1330000e+01	   7.9532058e+00	   1.0273265e+00	
   1.1385000e+01	   7.6156153e+00	   1.0325518e+00	
   1.1440000e+01	   7.4695087e+00	   1.1306220e+00	
   1.1495000e+01	   8.1866778e-01	   8.9061943e-01	
   1.1550000e+01	  -8.2629153e-02	   5.9263905e-01	
   1.1605000e+01	   6.3861219e+00	   8.0656266e-01	
   1.1660000e+01	   7.4079936e+00	   7.6979368e-01	
   1.1715000e+01	   7.8168278e+00	   6.5359382e-01	
   1.1770000e+01	   7.1827217e+00	   5.4212814e-01	
   1.1825000e+01	   8.2069099e+00	   8.6535058e-01	
   1.1880000e+01	   7.9332041e+00	   1.1176797e+00	
   1.1935000e+01	   7.6118271e+00	   8.9031767e-01	
   1.1990000e+01	   7.8448342e+00	   1.0407443e+00	
   1.2045000e+01	   3.9988981e-01	   1.0646647e+00	
   1.2100000e+01	   2.9329249e-01	   1.0284255e+00	
   1.2155000e+01	   1.7020536e-01	   8.7998118e-01	
   1.2210000e+01	  -1.6736708e-01	   9.4852461e-01	
   1.2265000e+01	   9.8969902e-02	   7.9240281e-01	
   1.2320000e+01	   1.4648049e-01	   7.6582482e-01	
   1.2375000e+01	  -1.8520203e-01	   6.0393749e-01	
   1.2430000e+01	  -3.9824987e-01	   5.3945992e-01	
   1.2485000e+01	   4.4004171e-01	   8.2214417e-01	
   1.2540000e+01	   5.3634880e-01	   9.2109455e-01	
   1.2595000e+01	   4.4447664e-01	   1.0789784e+00	
   1.2650000e+01	   9.1351239e-02	   1.0221874e+00	
   1.2705000e+01	  -1.5912821e-02	   8.8333039e-01	
   1.2760000e+01	   7.4024557e-01	   1.0667508e+00	
   1.2815000e+01	   3.9491703e-01	   9.7373499e-01	
   1.2870000e+01	  -5.0655674e-01	   6.8489161e-01	
   1.2925000e+01	  -3.5467216e-01	   6.4835067e-01	
   1.2980000e+01	   2.0486894e-01	   8.5833273e-01	
   1.3035000e+01	   1.5969295e-02	   5.7392450e-01	
   1.3090000e+01	  -9.4636249e-01	   4.8979675e-01	
   1.3145000e+01	   2.3646042e-01	   7.4192026e-01	
   1.3200000e+01	   2.5779685e-01	   8.1985627e-01	
   1.3255000e+01	   3.2968370e-01	   9.5237615e-01	
   1.3310000e+01	  -3.2746460e-01	   8.6426194e-01	
   1.3365000e+01	   7.0541847e-02	   1.0877489e+00	
   1.3420000e+01	   5.3264517e-02	   8.1014482e-01	
   1.3475000e+01	   1.7464339e-01	   8.4697210e-01	
   1.3530000e+01	  -1.2270741e-01	   5.5329847e-01	
   1.3585000e+01	  -2.6784575e-01	   5.8877798e-01	
   1.3640000e+01	   4.6864477e-01	   7.0895188e-01	
   1.3695000e+01	  -4.5238080e-01	   6.3901111e-01	
   1.3750000e+01	  -2.6163769e-01	   3.9218023e-01	
   1.3805000e+01	  -5.2366321e-01	   5.3706041e-01	
   1.3860000e+01	  -3.3842841e-02	   8.2288652e-01	
   1.3915000e+01	  -2.6501324e-01	   7.6511562e-01	
   1.3970000e+01	  -1.0562225e-01	   8.6916758e-01	
   1.4025000e+01	  -1.3886399e-01	   7.0722241e-01	
   1.4080000e+01	   1.6621832e-01	   8.8987114e-01	
   1.4135000e+01	  -1.4824625e-01	   9.6296861e-01	
   1.4190000e+01	   6.0069866e-02	   8.4804593e-01	
   1.4245000e+01	  -5.7449219e-01	   6.8463980e-01	
   1.4300000e+01	   4.8394567e-01	   7.1559237e-01	
   1.4355000e+01	  -8.7564388e-02	   7.0573248e-01	
   1.4410000e+01	   2.6031665e-01	   4.9015307e-01	
   1.4465000e+01	  -4.8202053e-01	   5.6479726e-01	
   1.4520000e+01	  -2.3602953e-01	   4.3183169e-01	
   1.4575000e+01	  -4.0182790e-01	   3.9935282e-01	
   1.4630000e+01	  -5.1821883e-01	   3.6066167e-01	
   1.4685000e+01	  -4.0266258e-02	   6.8489328e-01	
   1.4740000e+01	   4.5442614e-01	   1.0360869e+00	
   1.4795000e+01	   1.9696338e-01	   7.8184103e-01	
   1.4850000e+01	   8.8586264e-02	   5.0600461e-01	
   1.4905000e+01	   1.9647189e-01	   7.7767473e-01	
   1.4960000e+01	   5.9033151e-01	   7.8431436e-01	
   1.5015000e+01	   6.1783219e-01	   7.0503856e-01	
   1.5070000e+01	  -4.1391715e-02	   5.0968870e-01	
   1.5125000e+01	  -1.2735866e-02	   5.4806372e-01	
   1.5180000e+01	   2.3364611e-01	   5.6563702e-01	
   1.5235000e+01	   2.7457464e-01	   4.2683201e-01	
   1.5290000e+01	  -2.3209217e-02	   1.2710729e-01	
   1.5345000e+01	  -1.8439009e-01	   2.1388173e-01	
   1.5400000e+01	   8.1886770e-01	   2.6081441e-01	
   1.5455000e+01	   9.7607042e-01	   4.9904672e-01	
   1.5510000e+01	  -1.8082718e-01	   2.8634545e-01	
   1.5565000e+01	   9.0834057e-01	   5.6823233e-01	
   1.5620000e+01	   5.9711690e-01	   6.3470314e-01	
   1.5675000e+01	   1.0095953e+00	   5.7955141e-01	
   1.5730000e+01	   8.1252122e-01	   4.9163443e-01	
   1.5785000e+01	  -1.9366114e-02	   5.0727286e-01	
   1.5840000e+01	   7.5377858e-01	   4.3618825e-01	
   1.5895000e+01	   5.0060974e-01	   4.8104230e-01	
   1.5950000e+01	  -4.4478936e-02	   1.9316111e-01	
   1.6005000e+01	   1.1355531e-01	   2.5145812e-01	
   1.6060000e+01	   5.4388588e-01	  -3.1552055e-02	
   1.6115000e+01	   6.0025487e-01	   6.5081566e-02	
   1.6170000e+01	   4.6677102e-01	  -7.7747901e-02	
   1.6225000e+01	   4.0387053e-01	   2.8684997e-01	
   1.6280000e+01	  -7.3919676e-02	   3.4042191e-01	
   1.6335000e+01	   8.8146252e-01	   4.6406939e-01	
   1.6390000e+01	   1.8726728e-01	   4.1595935e-01	
   1.6445000e+01	   2.1548597e-01	   3.3233485e-01	
   1.6500000e+01	   3.3068783e-01	   4.5258484e-01	
   1.6555000e+01	   6.7964129e-01	   3.0419000e-01	
   1.6610000e+01	  -2.4333358e-01	   2.2013504e-01	
   1.6665000e+01	   2.0475166e-01	  -2.9498394e-03	
   1.6720000e+01	   4.5267509e-01	  -8.0592670e-02	
   1.6775000e+01	   4.8449898e-02	   1.1447770e-02	
   1.6830000e+01	  -3.7356819e-03	  -3.5615861e-01	
   1.6885000e+01	   1.6116465e-01	  -1.7883413e-01	
   1.6940000e+01	   4.6927496e-01	   3.0789147e-01	
   1.6995000e+01	   2.2260669e-01	   5.5972273e-02	
   1.7050000e+01	   1.2777659e-01	   1.2536363e-01	
   1.7105000e+01	   2.2905029e-01	   1.7929102e-01	
   1.7160000e+01	   5.6320237e-01	   2.8256981e-01	
   1.7215000e+01	  -5.2610033e-02	  -6.1635110e-02	
   1.7270000e+01	   1.5583316e-02	  -1.9244608e-01	
   1.7325000e+01	   2.0320194e-01	  -1.0268658e-01	
   1.7380000e+01	  -7.3778073e-02	  -6.5495550e-02	
   1.7435000e+01	   1.5055393e-01	  -2.4523416e-01	
   1.7490000e+01	  -6.5789090e-01	  -3.7677581e-01	
   1.7545000e+01	  -2.0135990e-01	  -2.8452334e-01	
   1.7600000e+01	   9.3877683e-02	  -2.9890711e-01	
   1.7655000e+01	   2.7821058e-01	  -4.4332227e-01	
   1.7710000e+01	  -4.8791458e-01	  -4.0808496e-03	
   1.7765000e+01	   1.0293053e-01	  -2.5964820e-02	
   1.7820000e+01	   1.6635318e-01	   6.2201603e-02	
   1.7875000e+01	   4.2039026e-01	   7.8019569e-02	
   1.7930000e+01	  -2.9308806e-01	  -9.0255504e-02	
   1.7985000e+01	   2.7761437e-01	   1.9300765e-01	
   1.8040000e+01	   5.5141706e-01	   1.5423052e-01	
   1.8095000e+01	  -1.3016687e-01	  -3.3704956e-02	
   1.8150000e+01	  -1.9422674e-01	  -2.1322478e-01	
   1.8205000e+01	  -1.2998929e-01	  -3.2791373e-01	
   1.8260000e+01	  -4.4983856e-01	  -3.1370482e-01	
   1.8315000e+01	  -4.4368750e-01	  -2.5283644e-01	
   1.8370000e+01	  -2.8932313e-02	  -6.1579132e-01	
   1.8425000e+01	  -4.2369148e-01	  -5.6824251e-01	
   1.8480000e+01	   4.4675025e-01	  -5.0047380e-01	
   1.8535000e+01	  -4.8364573e-02	  -1.1412871e-01	
   1.8590000e+01	  -6.1928565e-01	  -3.2197561e-01	
   1.8645000e+01	  -2.6353922e-01	   5.9076037e-02	
   1.8700000e+01	   1.4203631e-01	   9.3022320e-03	
   1.8755000e+01	   1.1083460e-01	   6.4927270e-02	
   1.8810000e+01	   1.0653400e-01	  -7.5174970e-02	
   1.8865000e+01	  -2.1949896e-01	  -9.4673866e-02	
   1.8920000e+01	  -3.3779447e-01	  -1.5082684e-02	
   1.8975000e+01	   6.0751505e-02	  -1.4175816e-01	
   1.9030000e+01	   2.4458478e-01	  -3.3770496e-01	
   1.9085000e+01	  -2.6020058e-01	  -4.0926254e-01	
   1.9140000e+01	  -3.6458725e-01	  -3.5604721e-01	
   1.9195000e+01	  -1.2532985e-01	  -6.6546409e-01	
   1.9250000e+01	  -6.9981973e-01	  -5.4386858e-01	
   1.9305000e+01	  -6.6899214e-01	  -4.8077394e-01	
   1.9360000e+01	   5.2585890e-01	   6.7254681e-03	
   1.9415000e+01	   1.8236394e-01	  -2.8858156e-02	
   1.9470000e+01	  -1.0463995e-01	  -1.7085967e-01	
   1.9525000e+01	   4.0797768e-02	  -5.3445287e-02	
   1.9580000e+01	   2.2191930e-01	   1.2119309e-01	
   1.9635000e+01	  -2.4827158e-02	  -2.0216199e-01	
   1.9690000e+01	  -2.9775656e-02	  -3.6647016e-01	
   1.9745000e+01	  -1.4023888e-01	  -2.2079753e-01	
   1.9800000e+01	  -2.0653220e-01	  -3.1752708e-01	
   1.9855000e+01	  -1.3431060e-01	  -8.9441683e-02	
   1.9910000e+01	  -4.1297458e-01	  -4.4036226e-01	
   1.9965000e+01	  -5.4457201e-01	  -4.6599803e-01	
   2.0020000e+01	   1.3845652e-01	  -5.3626330e-01	
   2.0075000e+01	   1.2168304e-01	  -2.1707615e-01	
   2.0130000e+01	  -3.0233644e-01	  -3.2073909e-01	
   2.0185000e+01	  -3.4248883e-01	  -1.9130886e-01	
   2.0240000e+01	  -3.2218550e-01	   3.4446910e-02	
   2.0295000e+01	   1.3369104e-01	  -2.0358575e-01	
   2.0350000e+01	  -1.7029612e-01	  -1.8191216e-01	
   2.0405000e+01	  -4.1227059e-02	  -1.4577227e-01	
   2.0460000e+01	  -5.1455443e-01	  -9.3568460e-02	
   2.0515000e+01	  -1.1600653e-01	  -2.2394656e-01	
   2.0570000e+01	  -8.9606134e-01	  -3.5018521e-01	
   2.0625000e+01	  -5.5137831e-01	  -6.3872642e-01	
   2.0680000e+01	  -2.4864760e-01	  -4.9111580e-01	
   2.0735000e+01	  -7.3887705e-02	  -5.7891494e-01	
   2.0790000e+01	  -7.6700789e-01	  -2.9918406e-01	
   2.0845000e+01	  -2.7788500e-01	  -3.1171835e-01	
   2.0900000e+01	  -1.0447177e-01	  -1.0427381e-01	
   2.0955000e+01	   6.1160108e-02	   2.1034520e-02	
   2.1010000e+01	  -4.3792350e-02	  -2.9930443e-01	
   2.1065000e+01	  -4.9379340e-01	  -1.4072528e-01	
   2.1120000e+01	  -6.8229006e-03	  -1.6704108e-01	
   2.1175000e+01	  -7.4998399e-01	  -1.6579228e-01	
   2.1230000e+01	  -7.7384683e-01	  -4.7543018e-01	
   2.1285000e+01	  -9.3923178e-01	  -4.2844086e-01	
   2.1340000e+01	  -5.4607967e-01	  -5.4689193e-01	
   2.1395000e+01	  -7.1887180e-01	  -4.3425504e-01	
   2.1450000e+01	  -2.7109157e-01	  -4.8434847e-01	
   2.1505000e+01	  -6.4172865e-01	  -1.5509197e-01	
   2.1560000e+01	  -4.0048176e-01	  -1.4656129e-01	
   2.1615000e+01	  -4.3954526e-03	   7.6596711e-03	
   2.1670000e+01	   5.7898655e-02	  -2.5668117e-01	
   2.1725000e+01	  -4.9089375e-01	  -2.3758105e-01	
   2.1780000e+01	  -6.5065748e-01	  -1.8396601e-01	
   2.1835000e+01	   7.4571386e-02	  -1.2663795e-01	
   2.1890000e+01	  -3.5061755e-01	  -3.2279446e-01	
   2.1945000e+01	  -2.7739193e-01	  -3.6791049e-01	
   2.2000000e+01	  -2.7350329e-01	  -2.1084102e-01	
   2.2055000e+01	  -6.0481582e-01	  -3.6042570e-01	
   2.2110000e+01	  -6.6852024e-01	  -5.0379842e-01	
   2.2165000e+01	  -8.7237434e-01	  -7.5864227e-01	
   2.2220000e+01	  -6.4475861e-01	  -3.0488587e-01	
   2.2275000e+01	   9.3942689e-02	  -4.1361599e-02	
   2.2330000e+01	  -1.7675983e-01	   1.3629842e-01	
   2.2385000e+01	  -3.3607818e-01	  -9.1651046e-02	
   2.2440000e+01	   4.3551272e-01	   1.0167288e-01	
   2.2495000e+01	   2.3485733e-01	   4.4075217e-02	
   2.2550000e+01	  -2.1002463e-01	  -2.6880284e-01	
   2.2605000e+01	   3.3537610e-02	  -2.0051662e-01	
   2.2660000e+01	   1.0033300e-01	  -3.1126322e-02	
   2.2715000e+01	   2.4285575e-01	  -1.9927322e-01	
   2.2770000e+01	  -5.2589612e-01	  -3.8655615e-01	
   2.2825000e+01	  -1.4463431e-01	  -2.9751061e-01	
   2.2880000e+01	  -7.3118477e-02	  -2.5478685e-01	
   2.2935000e+01	  -2.4318275e-01	  -2.7749020e-01	
   2.2990000e+01	  -7.2214915e-01	  -2.3425795e-01	
   2.3045000e+01	   3.7115517e-01	   1.7440885e-02	
   2.3100000e+01	   5.3411598e-01	   1.3269026e-01	
   2.3155000e+01	   5.9049992e-01	   6.4663338e-02	
   2.3210000e+01	   8.7452334e-02	  -2.0636427e-02	
   2.3265000e+01	   1.6806051e-01	   1.5727878e-01	
   2.3320000e+01	   8.1739436e-02	   1.5272905e-01	
   2.3375000e+01	  -1.8645535e-01	   7.9054741e-02	
   2.3430000e+01	   2.6684695e-01	  -6.7864822e-02	
   2.3485000e+01	  -2.4683325e-02	  -9.9377294e-02	
   2.3540000e+01	  -1.6568790e-01	   1.7646701e-02	
   2.3595000e+01	  -1.6371565e-02	  -1.6842432e-01	
   2.3650000e+01	  -1.1535096e-01	  -3.3846438e-01	
   2.3705000e+01	  -1.7104727e-01	  -4.1658303e-01	
   2.3760000e+01	  -4.3080209e-01	  -4.2116733e-01	
   2.3815000e+01	   5.8645683e-02	  -1.4854051e-01	
   2.3870000e+01	  -3.8406590e-01	  -5.9609465e-02	
   2.3925000e+01	   1.2334557e-01	  -1.3536871e-01	
   2.3980000e+01	   1.5827235e-01	   1.3663567e-01	
   2.4035000e+01	   6.0556882e-01	   1.3246204e-01	
   2.4090000e+01	   5.4928929e-01	  -1.0453008e-02	
   2.4145000e+01	  -9.9722330e-02	  -1.8629466e-01	
   2.4200000e+01	   1.3445035e-01	  -1.5425878e-01	
   2.4255000e+01	   2.9514215e-01	  -1.7536746e-01	
   2.4310000e+01	  -2.4273781e-01	  -2.3560067e-01	
   2.4365000e+01	  -1.4518488e-01	  -2.8637227e-01	
   2.4420000e+01	   2.6798139e-01	  -2.8652307e-01	
   2.4475000e+01	  -2.7875545e-01	  -1.5751058e-01	
   2.4530000e+01	   2.8952959e-01	  -4.6448738e-01	
   2.4585000e+01	  -1.7986019e-01	  -5.9349698e-01	
   2.4640000e+01	   6.7391222e-02	  -3.7829947e-01	
   2.4695000e+01	   3.0879598e-01	  -2.6276167e-02	
   2.4750000e+01	   4.2927730e-01	   5.3465416e-02	
   2.4805000e+01	  -1.8140827e-02	  -1.4584824e-01	
   2.4860000e+01	   1.8402670e-01	   4.3362955e-02	
   2.4915000e+01	   6.0616901e-01	   2.4641923e-01	
   2.4970000e+01	   1.4355106e-01	  -8.3483479e-02	
   2.5025000e+01	   3.3782576e-01	  -1.7164301e-01	
   2.5080000e+01	   1.9971845e-01	   7.9761830e-03	
   2.5135000e+01	   3.5256086e-01	  -2.3093736e-01	
   2.5190000e+01	   1.1583758e-01	  -6.2425757e-01	
   2.5245000e+01	   2.5494466e-02	  -4.3719600e-01	
   2.5300000e+01	  -5.0115610e-02	  -4.4609597e-01	
   2.5355000e+01	   2.5631722e-01	  -2.0679979e-01	
   2.5410000e+01	   3.0815912e-01	  -1.7102222e-01	
   2.5465000e+01	   3.3484529e-01	  -2.2673588e-01	
   2.5520000e+01	   9.3196851e-01	   1.7627544e-01	
   2.5575000e+01	   4.3164387e-01	  -9.5027456e-02	
   2.5630000e+01	   1.0956621e-01	  -2.4247448e-01	
   2.5685000e+01	   5.3010323e-01	  -2.1703245e-01	
   2.5740000e+01	   5.2053383e-01	  -1.8562392e-01	
   2.5795000e+01	   4.1353027e-01	  -2.4174968e-01	
   2.5850000e+01	   6.4610776e-01	  -3.0414763e-01	
   2.5905000e+01	   2.5894076e-01	  -3.9018185e-01	
   2.5960000e+01	   3.9725003e-01	  -3.7829067e-01	
   2.6015000e+01	   7.4381716e-01	  -5.5427022e-01	
   2.6070000e+01	   4.5800419e-01	  -4.2317670e-01	
   2.6125000e+01	   3.6510592e-01	  -8.8359945e-02	
   2.6180000e+01	   4.7128601e-01	  -7.2900724e-02	
   2.6235000e+01	   9.6966969e-01	   1.3269026e-01	
   2.6290000e+01	   3.1088650e-01	  -5.2832192e-02	
   2.6345000e+01	   6.4423275e-01	  -1.5859734e-01	
   2.6400000e+01	   3.7020892e-01	  -7.3192575e-02	
   2.6455000e+01	   5.2186141e-01	  -9.5152459e-02	
   2.6510000e+01	   3.2063080e-02	  -2.3533368e-01	
   2.6565000e+01	  -2.0840975e-02	  -3.6357541e-01	
   2.6620000e+01	   2.1842603e-01	  -3.1148462e-01	
   2.6675000e+01	   5.2962853e-01	  -1.2222174e-01	
   2.6730000e+01	  -4.5058182e-01	  -6.2391840e-01	
   2.6785000e+01	  -2.5739128e-02	  -7.7493049e-01	
   2.6840000e+01	  -2.6218659e-01	  -5.5634432e-01	
   2.6895000e+01	   7.8073499e-01	  -2.6830200e-01	
   2.6950000e+01	  -9.6007568e-02	  -2.6117828e-01	
   2.7005000e+01	   6.5711571e-01	  -1.5494342e-01	
   2.7060000e+01	   7.1777276e-01	   2.1694909e-01	
   2.7115000e+01	   7.3628748e-01	   3.1466217e-01	
   2.7170000e+01	   4.6412158e-02	   5.3057895e-02	
   2.7225000e+01	   3.5818219e-01	   2.5981450e-02	
   2.7280000e+01	   6.2460254e-01	   1.8115895e-01	
   2.7335000e+01	   8.2195537e-01	   8.9055860e-02	
   2.7390000e+01	   4.3483641e-01	  -1.9455535e-01	
   2.7445000e+01	   3.4171066e-01	  -2.3414059e-01	
   2.7500000e+01	   1.6821192e-01	  -2.2452812e-01	
   2.7555000e+01	  -6.3297439e-03	  -4.3787034e-01	
   2.7610000e+01	  -1.5403627e-01	  -5.4572786e-01	
   2.7665000e+01	  -4.5210792e-01	  -4.2261480e-01	
   2.7720000e+01	   5.3754655e-02	  -4.8434847e-01	
   2.7775000e+01	   2.1065042e-01	  -1.1187776e-01	
   2.7830000e+01	   1.7397643e-01	  -5.5208327e-02	
   2.7885000e+01	   7.2870080e-02	   3.2331185e-02	
   2.7940000e+01	   3.5098884e-01	   1.5608211e-01	
   2.7995000e+01	   7.8639073e-01	   2.1102451e-01	
   2.8050000e+01	   5.9545284e-01	  -5.9226190e-02	
   2.8105000e+01	   5.3881369e-01	   1.4116249e-01	
   2.8160000e+01	   1.9857295e-01	   3.2331185e-02	
   2.8215000e+01	   7.1934086e-01	   1.2795271e-01	
   2.8270000e+01	   3.1062879e-01	   1.6877469e-01	
   2.8325000e+01	   5.6802262e-02	  -1.6020609e-01	
   2.8380000e+01	   8.3059811e-02	   1.8916883e-02	
   2.8435000e+01	   6.4804577e-01	  -2.5613510e-02	
   2.8490000e+01	   2.2040311e-01	  -3.1755877e-01	
   2.8545000e+01	  -2.5322714e-01	  -4.3142622e-01	
   2.8600000e+01	   1.1186553e-01	  -1.5699917e-01	
   2.8655000e+01	  -1.9437414e-01	  -3.4565823e-01	
   2.8710000e+01	  -3.7382250e-01	  -1.6617265e-01	
   2.8765000e+01	  -2.7263948e-01	   1.7432071e-02	
   2.8820000e+01	   5.2669751e-01	   9.5648928e-04	
   2.8875000e+01	   3.5869887e-01	   1.7419639e-01	
   2.8930000e+01	   4.9644831e-01	  -6.5439441e-02	
   2.8985000e+01	   1.4699073e-01	  -6.0804862e-02	
   2.9040000e+01	   6.5977764e-01	   1.1825830e-02	
   2.9095000e+01	   2.8769712e-01	   5.2660365e-03	
   2.9150000e+01	  -7.6645906e-02	   3.0034043e-02	
   2.9205000e+01	   1.6850914e-01	  -2.4685366e-01	
   2.9260000e+01	   3.0675524e-01	  -2.3874452e-01	
   2.9315000e+01	   2.1665423e-02	  -2.7540984e-01	
   2.9370000e+01	  -9.4285829e-02	  -4.4540894e-01	
   2.9425000e+01	  -3.5950537e-01	  -3.8490354e-01	
   2.9480000e+01	   8.7891988e-01	  -3.4049690e-01	
   2.9535000e+01	   1.1130834e+00	   1.8523479e-01	
   2.9590000e+01	   6.5793787e-01	   1.4047245e-01	
   2.9645000e+01	   1.4577488e-02	  -3.8694413e-03	
   2.9700000e+01	  -3.0400641e-01	   2.4134553e-02	
   2.9755000e+01	   3.2743322e-01	  -1.1656260e-01	
   2.9810000e+01	  -2.4825249e-02	   9.8395059e-02	
   2.9865000e+01	   1.2072160e-01	  -1.0212239e-01	
   2.9920000e+01	   1.4133167e-01	  -8.6718000e-02	
   2.9975000e+01	   4.0680344e-01	  -1.5114770e-01	
   3.0030000e+01	   7.5250805e-01	  -2.0412949e-01	
   3.0085000e+01	   2.6065834e-02	  -2.1209386e-01	
   3.0140000e+01	  -2.3868805e-02	  -5.8331194e-01	
   3.0195000e+01	   2.0386812e-01	  -2.4823704e-01	
   3.0250000e+01	   2.0066046e-01	  -9.6785636e-02	
   3.0305000e+01	  -8.5681285e-02	   1.2998403e-02	
   3.0360000e+01	   2.3467970e-01	  -9.0201055e-02	
   3.0415000e+01	   4.6269818e-01	   1.5805068e-01	
   3.0470000e+01	   6.0583249e-01	   3.3735621e-02	
   3.0525000e+01	  -3.4983516e-02	  -4.6864176e-02	
   3.0580000e+01	  -1.4420830e-01	   4.6930394e-02	
   3.0635000e+01	   3.6403585e-01	  -4.6364703e-02	
   3.0690000e+01	  -3.1137521e-02	  -1.2295283e-01	
   3.0745000e+01	  -2.2154179e-01	  -3.9328090e-01	
   3.0800000e+01	  -5.1846425e-01	  -2.4575011e-01	
   3.0855000e+01	  -8.3818884e-02	  -1.9939312e-01	
   3.0910000e+01	  -9.8189658e-02	  -5.3371473e-01	
   3.0965000e+01	  -5.9388056e-01	  -5.1307365e-01	
   3.1020000e+01	  -1.8308376e-01	  -6.4302796e-02	
   3.1075000e+01	   7.7997457e-01	   2.3161776e-01	
   3.1130000e+01	   2.2898710e-01	   1.9309011e-01	
   3.1185000e+01	  -2.1828817e-01	   1.6402400e-01	
   3.1240000e+01	   5.2731049e-01	   9.3288389e-02	
   3.1295000e+01	   1.1955175e-01	   3.1569250e-01	
   3.1350000e+01	   4.9173681e-01	   1.2728823e-01	
   3.1405000e+01	   4.0787484e-02	  -4.8922887e-02	
   3.1460000e+01	   5.7497612e-01	   1.1606842e-01	
   3.1515000e+01	  -3.3364310e-01	   7.3683403e-03	
   3.1570000e+01	  -1.0396785e-01	   3.3194798e-02	
   3.1625000e+01	  -2.2944401e-01	  -1.6586812e-01	
   3.1680000e+01	  -3.4661208e-01	  -2.6927389e-01	
   3.1735000e+01	  -8.8732033e-02	  -3.1677752e-01	
   3.1790000e+01	  -5.0711659e-02	  -4.2696432e-01	
   3.1845000e+01	  -3.6048443e-01	  -4.2250500e-01	
   3.1900000e+01	   5.7124535e-01	  -2.8454326e-01	
   3.1955000e+01	   3.1378707e-01	   5.7019376e-02	
   3.2010000e+01	   2.7497376e-01	   2.6741253e-01	
   3.2065000e+01	   6.8710471e-01	   3.0142917e-01	
   3.2120000e+01	   1.6664192e-01	   1.9895871e-01	
   3.2175000e+01	   7.8010855e-01	   4.1565422e-01	
   3.2230000e+01	   2.6574819e-01	   4.4708972e-01	
   3.2285000e+01	  -8.1207235e-02	   2.7130885e-01	
   3.2340000e+01	   6.1265301e-01	   3.1762320e-01	
   3.2395000e+01	   1.7581607e-02	   3.9803921e-01	
   3.2450000e+01	   4.4373317e-01	   2.3079826e-01	
   3.2505000e+01	  -3.2677713e-01	  -2.5061442e-01	
   3.2560000e+01	  -4.2108831e-01	  -1.3578757e-01	
   3.2615000e+01	   5.5020195e-02	   2.1183671e-02	
   3.2670000e+01	   2.2674369e-01	  -1.3232566e-02	
   3.2725000e+01	  -2.3198349e-01	  -1.6555751e-01	
   3.2780000e+01	  -5.9358681e-01	  -3.2235821e-01	
   3.2835000e+01	   1.6358643e-01	   1.0916240e-01	
   3.2890000e+01	   1.9074342e-01	  -1.4531262e-02	
   3.2945000e+01	  -2.0113515e-02	   2.5320903e-01	
   3.3000000e+01	   1.3381489e-01	   2.4497648e-01	
   3.3055000e+01	  -2.3730695e-01	   4.3513394e-01	
   3.3110000e+01	   2.6429047e-01	   3.9949253e-01	
   3.3165000e+01	   7.7963863e-01	   3.6185327e-01	
   3.3220000e+01	   6.3472750e-01	   2.7911867e-01	
   3.3275000e+01	  -9.5579402e-02	   2.4501034e-01	
   3.3330000e+01	   3.2958866e-01	   2.1633250e-01	
   3.3385000e+01	  -1.1869030e-01	  -2.1402051e-01	
   3.3440000e+01	   1.1815922e-01	   1.8921267e-01	
   3.3495000e+01	   4.1698974e-01	  -5.7601842e-02	
   3.3550000e+01	   6.4879299e-01	   1.2127686e-01	
   3.3605000e+01	  -3.1002747e-01	  -2.0942321e-01	
   3.3660000e+01	  -3.7606217e-01	  -2.6128857e-01	
   3.3715000e+01	   6.3778230e-02	  -1.2607181e-01	
   3.3770000e+01	   1.1056063e-01	   9.1054586e-02	
   3.3825000e+01	   5.4692023e-02	   1.9231170e-01	
   3.3880000e+01	   3.8679016e-01	   2.5716706e-01	
   3.3935000e+01	   2.5256561e-01	   2.5055216e-01	
   3.3990000e+01	   3.0472620e-01	   3.9147792e-01	
   3.4045000e+01	  -4.5987082e-01	   2.0572139e-01	
   3.4100000e+01	   2.1247041e-01	   8.6846362e-02	
   3.4155000e+01	   3.0187275e-01	   3.0078577e-01	
   3.4210000e+01	   5.4602953e-02	   9.3018497e-02	
   3.4265000e+01	   3.9365488e-01	  -5.7828701e-02	
   3.4320000e+01	  -3.2783038e-01	  -1.2572818e-01	
   3.4375000e+01	   8.0405647e-02	   7.2403232e-02	
   3.4430000e+01	  -1.7939916e-01	  -3.5600824e-03	
   3.4485000e+01	  -5.9024233e-01	  -2.9713672e-01	
   3.4540000e+01	  -1.4611830e-01	  -2.7130735e-01	
   3.4595000e+01	  -2.1122956e-01	  -3.7414836e-01	
   3.4650000e+01	  -4.4568203e-01	   7.3393338e-02	
   3.4705000e+01	  -3.0677053e-01	  -1.4165940e-01	
   3.4760000e+01	  -4.6695516e-01	  -7.9858468e-02	
   3.4815000e+01	  -8.7815645e-02	   3.0240965e-01	
   3.4870000e+01	   1.7144621e-01	   2.4647034e-01	
   3.4925000e+01	  -2.5754713e-01	   1.4320338e-01	
   3.4980000e+01	  -4.1967335e-01	   4.0770856e-02	
   3.5035000e+01	  -1.2193746e-01	   2.7261279e-01	
   3.5090000e+01	   1.6807501e-01	  -3.8724986e-02	
   3.5145000e+01	  -3.0159973e-01	   1.8040193e-02	
   3.5200000e+01	  -7.2099254e-01	  -2.4147993e-01	
   3.5255000e+01	  -5.2935032e-01	   1.1254031e-02	
   3.5310000e+01	  -5.7250551e-01	  -1.4425856e-01	
   3.5365000e+01	  -5.6900233e-01	  -3.8895808e-01	
   3.5420000e+01	  -2.1036950e-01	  -3.4467796e-01	
   3.5475000e+01	  -5.2988997e-01	  -1.7206575e-01	
   3.5530000e+01	  -2.2408402e-02	   1.7722428e-01	
   3.5585000e+01	  -2.2366583e-02	   2.3749861e-02	
   3.5640000e+01	  -6.2997058e-01	   1.1260621e-02	
   3.5695000e+01	   8.2618853e-02	   3.0640611e-01	
   3.5750000e+01	  -2.4909296e-01	   9.4889476e-02	
   3.5805000e+01	   1.0132164e-01	   2.3514240e-02	
   3.5860000e+01	  -2.7947106e-01	  -3.8507274e-02	
   3.5915000e+01	  -8.2109884e-01	  -2.1475943e-02	
   3.5970000e+01	  -7.6439745e-01	  -8.7764119e-02	
   3.6025000e+01	  -4.7277596e-01	   2.6788877e-02	
   3.6080000e+01	  -4.2208526e-01	  -2.2621575e-01	
   3.6135000e+01	  -9.5181722e-01	  -3.8385855e-01	
   3.6190000e+01	  -2.9556774e-01	  -3.3507043e-01	
   3.6245000e+01	  -9.5212488e-01	  -2.3759399e-01	
   3.6300000e+01	  -1.1017322e+00	  -1.5487365e-01	
   3.6355000e+01	  -3.3899328e-01	   1.8717700e-01	
   3.6410000e+01	  -3.3892156e-01	   3.6092473e-01	
   3.6465000e+01	  -4.8592067e-01	   1.6311511e-01	
   3.6520000e+01	  -4.8565360e-01	   1.3350876e-01	
   3.6575000e+01	  -2.5498129e-01	   3.3684282e-01	
   3.6630000e+01	  -5.7655570e-01	   4.6930394e-02	
   3.6685000e+01	  -1.5312780e-01	  -4.5558759e-02	
   3.6740000e+01	  -5.2172054e-01	  -7.6946234e-02	
   3.6795000e+01	  -4.6685294e-01	   6.3147701e-02	
   3.6850000e+01	  -1.8137707e-01	  -2.1219760e-02	
   3.6905000e+01	  -5.8915870e-01	  -3.8270771e-01	
   3.6960000e+01	  -7.3407945e-01	  -4.4166809e-01	
   3.7015000e+01	  -1.8035339e-01	  -4.2536846e-01	
   3.7070000e+01	  -5.6593432e-02	  -1.9208562e-01	
   3.7125000e+01	  -3.6679611e-01	  -1.9782627e-03	
   3.7180000e+01	  -3.8921947e-01	   1.2547276e-01	
   3.7235000e+01	  -2.7201320e-01	   1.6626035e-01	
   3.7290000e+01	  -8.0087274e-01	   1.8870448e-01	
   3.7345000e+01	   3.6441488e-02	   3.6540140e-01	
   3.7400000e+01	  -1.8712638e-01	  -2.6393978e-02	
   3.7455000e+01	  -2.5018090e-01	   2.3060274e-01	
   3.7510000e+01	  -2.3411824e-01	   2.1889229e-01	
   3.7565000e+01	  -1.4348341e-01	  -1.3567983e-01	
   3.7620000e+01	   1.2338920e-01	  -4.5179260e-02	
   3.7675000e+01	  -7.1572811e-01	  -1.2002191e-01	
   3.7730000e+01	   1.6521279e-01	  -1.0311969e-02	
   3.7785000e+01	  -4.0940988e-01	  -7.2920440e-02	
   3.7840000e+01	  -1.0019437e+00	  -4.7478373e-01	
   3.7895000e+01	  -2.6921622e-01	  -1.6756875e-02	
   3.7950000e+01	  -2.4477747e-01	   1.0374351e-01	
   3.8005000e+01	   1.4740167e-01	   1.3994498e-01	
   3.8060000e+01	  -1.5304848e-01	   1.5520502e-01	
   3.8115000e+01	  -1.5718834e-01	   2.9463874e-01	
   3.8170000e+01	   4.7484889e-02	   3.4740262e-01	
   3.8225000e+01	   2.4552461e-01	   3.7629462e-01	
   3.8280000e+01	  -2.9872291e-01	  -1.2578000e-02	
   3.8335000e+01	  -5.7257513e-01	   2.6770390e-01	
   3.8390000e+01	  -1.7612425e-01	   2.3518897e-01	
   3.8445000e+01	  -4.0879466e-01	   6.9776875e-02	
   3.8500000e+01	  -4.9207372e-01	  -3.6732674e-02	
   3.8555000e+01	  -3.6658344e-01	  -1.4383015e-01	
   3.8610000e+01	  -5.7796787e-01	  -3.8857815e-01	
   3.8665000e+01	  -5.9971399e-01	  -4.1077294e-01	
   3.8720000e+01	   7.8771477e-02	   1.0740663e-02	
   3.8775000e+01	  -4.9755895e-01	   1.1640816e-01	
   3.8830000e+01	   5.0189995e-02	   3.4244268e-01	
   3.8885000e+01	  -3.4420959e-01	   3.7400487e-01	
   3.8940000e+01	  -5.3566839e-01	   4.0834627e-01	
   3.8995000e+01	  -2.1727438e-01	   1.7213075e-01	
   3.9050000e+01	  -2.4595183e-01	   2.2232782e-01	
   3.9105000e+01	  -2.9630897e-01	   8.3283432e-02	
   3.9160000e+01	  -4.5154292e-01	  -7.1228416e-02	
   3.9215000e+01	  -2.9834067e-01	  -8.7376682e-02	
   3.9270000e+01	  -4.5076150e-01	  -8.0950494e-02	
   3.9325000e+01	  -4.7261798e-01	  -8.9834039e-02	
   3.9380000e+01	  -1.2738162e+00	  -3.8857054e-01	
   3.9435000e+01	  -3.8127668e-01	   1.0379472e-01	
   3.9490000e+01	   3.8011880e-01	   1.8036269e-01	
   3.9545000e+01	   3.8174961e-01	   2.7578358e-01	
   3.9600000e+01	  -2.3609857e-01	   1.8623027e-01	
   3.9655000e+01	  -5.0495670e-01	  -1.5919018e-03	
   3.9710000e+01	  -1.4214546e-01	   2.4204659e-01	
   3.9765000e+01	   4.8672529e-03	   3.5985416e-01	
   3.9820000e+01	  -5.9647766e-02	   1.0603486e-01	
   3.9875000e+01	  -5.5452598e-01	  -6.7037750e-02	
   3.9930000e+01	  -2.9339528e-01	   1.5267275e-02	
   3.9985000e+01	   5.5420138e-01	   1.1432118e-01	
   4.0040000e+01	  -2.2996545e-01	  -2.7092804e-01	
   4.0095000e+01	  -4.2060869e-01	  -1.2963210e-01	
   4.0150000e+01	  -4.3349863e-01	  -7.5452664e-02	
   4.0205000e+01	  -3.3212853e-01	   1.5340549e-03	
   4.0260000e+01	   3.2939628e-01	   1.0106135e-01	
   4.0315000e+01	  -7.0100218e-02	   1.7518071e-01	
   4.0370000e+01	   1.5294652e-01	   5.0898566e-01	
   4.0425000e+01	  -6.3977784e-03	   1.9616493e-01	
   4.0480000e+01	  -3.3536539e-01	   2.6858276e-01	
   4.0535000e+01	   1.9413734e-01	   2.8586738e-01	
   4.0590000e+01	   5.6323310e-01	   3.4605553e-01	
   4.0645000e+01	  -1.1879316e-01	   4.3113361e-02	
   4.0700000e+01	   3.5726292e-02	   6.0102579e-02	
   4.0755000e+01	  -1.8453000e-01	   4.7893325e-02	
   4.0810000e+01	   2.7149306e-01	   5.2612228e-02	
   4.0865000e+01	  -7.2768984e-01	  -1.7161529e-01	
   4.0920000e+01	  -4.5973625e-01	  -2.2094151e-01	
   4.0975000e+01	  -6.6290657e-01	  -2.2585069e-01	
   4.1030000e+01	  -2.1547417e-01	   1.8137236e-01	
   4.1085000e+01	   3.5561223e-01	   2.4793158e-01	
   4.1140000e+01	   1.2487690e-01	   1.5488288e-01	
   4.1195000e+01	   5.5804471e-01	   5.4980428e-01	
   4.1250000e+01	   7.7460286e-01	   3.1784026e-01	
   4.1305000e+01	   6.1728000e-01	   4.9695923e-01	
   4.1360000e+01	   2.8908216e-02	   5.5753329e-01	
   4.1415000e+01	   5.6674396e-01	   2.9677597e-01	
   4.1470000e+01	   1.5682476e-01	   4.0328309e-01	
   4.1525000e+01	   3.7649720e-01	   2.2549737e-01	
   4.1580000e+01	  -2.2076822e-01	  -5.8061281e-04	
   4.1635000e+01	  -9.2720681e-02	  -1.0918798e-01	
   4.1690000e+01	   3.8418661e-01	   1.6904839e-01	
   4.1745000e+01	   3.0021709e-01	   8.8704920e-02	
   4.1800000e+01	  -7.0760571e-01	  -1.9254867e-01	
   4.1855000e+01	  -2.5972664e-01	  -4.3362656e-02	
   4.1910000e+01	   3.2703660e-01	   1.5773237e-01	
   4.1965000e+01	   7.1390188e-01	   4.2282162e-01	
   4.2020000e+01	   7.2242261e-01	   2.6951207e-01	
   4.2075000e+01	   1.5846131e-01	   3.1310912e-01	
   4.2130000e+01	   6.9552275e-01	   4.4054189e-01	
   4.2185000e+01	   8.9797986e-01	   4.7007806e-01	
   4.2240000e+01	   3.7232119e-01	   1.7079468e-01	
   4.2295000e+01	  -6.5625077e-02	   3.6211330e-01	
   4.2350000e+01	   1.4675127e-01	   2.4034702e-01	
   4.2405000e+01	   1.7467334e-01	   1.4100262e-02	
   4.2460000e+01	   3.4514347e-01	   7.2972246e-02	
   4.2515000e+01	  -9.8917423e-02	  -3.6887057e-02	
   4.2570000e+01	   1.7297196e-01	  -2.2220537e-02	
   4.2625000e+01	   7.4908971e-02	  -2.2604324e-01	
   4.2680000e+01	  -1.7767871e-01	  -1.8706350e-01	
   4.2735000e+01	   1.2083181e-01	  -2.9622436e-02	
   4.2790000e+01	   1.9562061e-01	   1.7936771e-01	
   4.2845000e+01	   7.7612210e-01	   3.4548118e-01	
   4.2900000e+01	   7.0802414e-01	   2.8971023e-01	
   4.2955000e+01	   5.5128664e-01	   3.2969465e-01	
   4.3010000e+01	   3.5026797e-01	   1.0294212e-01	
   4.3065000e+01	   1.7180748e-01	   2.4803858e-01	
   4.3120000e+01	   3.0463153e-02	  -1.4505276e-02	
   4.3175000e+01	  -1.1413138e-01	  -1.6106600e-01	
   4.3230000e+01	   1.1510335e-01	   1.7953905e-03	
   4.3285000e+01	   1.2219332e-01	  -7.3735078e-02	
   4.3340000e+01	   3.1227969e-01	  -1.9589845e-01	
   4.3395000e+01	  -2.2127599e-01	  -2.3139778e-01	
   4.3450000e+01	   2.4387692e-01	  -9.9261049e-02	
   4.3505000e+01	   2.9094648e-01	  -7.2075896e-02	
   4.3560000e+01	   3.0893983e-01	   1.1187165e-01	
   4.3615000e+01	  -9.0378996e-03	  -3.3619516e-02	
   4.3670000e+01	   3.5738206e-01	   1.3297128e-01	
   4.3725000e+01	   3.0273697e-01	   2.4456850e-01	
   4.3780000e+01	   1.0111218e-01	   9.9226009e-02	
   4.3835000e+01	   3.0017050e-01	   1.6252553e-01	
   4.3890000e+01	   5.3120880e-01	   1.6630423e-01	
   4.3945000e+01	   1.1852167e-01	   6.7811542e-02	
   4.4000000e+01	   5.0658794e-02	  -1.7110816e-01	
   4.4055000e+01	  -2.6313862e-01	  -2.6341077e-01	
   4.4110000e+01	   2.8800326e-01	  -2.9165420e-01	
   4.4165000e+01	  -3.6737140e-01	  -2.1969160e-01	
   4.4220000e+01	  -3.5950711e-02	  -2.5693941e-01	
   4.4275000e+01	  -6.4830724e-01	  -3.6345398e-01	
   4.4330000e+01	  -3.6110180e-01	  -7.6032484e-02	
   4.4385000e+01	   2.4550847e-01	   8.2934241e-02	
   4.4440000e+01	   2.7548693e-01	   3.1258937e-02	
   4.4495000e+01	   1.7536680e-01	   6.7719678e-02	
   4.4550000e+01	   3.2286999e-01	   1.1800127e-01	
   4.4605000e+01	   3.6736387e-01	   2.3667849e-01	
   4.4660000e+01	   8.8908771e-02	   7.2721562e-02	
   4.4715000e+01	   2.7344801e-01	  -1.0169808e-01	
   4.4770000e+01	  -1.2578532e-01	  -6.8708565e-02	
   4.4825000e+01	   8.9254705e-02	  -5.0059455e-02	
   4.4880000e+01	   8.0002566e-02	  -2.4499751e-01	
   4.4935000e+01	   3.0339867e-01	  -2.3655803e-01	
   4.4990000e+01	   1.4848288e-03	  -3.6947032e-01	
   4.5045000e+01	  -2.3136565e-01	  -2.6729436e-01	
   4.5100000e+01	  -2.3651205e-01	  -3.4775686e-01	
   4.5155000e+01	  -5.6921389e-01	  -1.0878871e-01	
   4.5210000e+01	   6.8416366e-03	   8.6936193e-02	
   4.5265000e+01	   4.3012505e-01	   1.6716157e-01	
   4.5320000e+01	  -9.1442844e-02	   3.0300441e-01	
   4.5375000e+01	  -5.4244464e-01	  -5.6012643e-02	
   4.5430000e+01	   1.1310655e-01	  -5.4574913e-02	
   4.5485000e+01	  -5.5002064e-02	   8.7425816e-02	
   4.5540000e+01	   2.4560039e-01	  -3.6666188e-02	
   4.5595000e+01	  -1.7589883e-01	  -3.5760793e-01	
   4.5650000e+01	   5.7016148e-02	  -1.3259394e-01	
   4.5705000e+01	  -1.6471089e-02	  -1.8314851e-02	
   4.5760000e+01	  -3.8343785e-02	  -2.2724323e-01	
   4.5815000e+01	  -6.8687150e-02	  -5.2322027e-01	
   4.5870000e+01	  -4.7646793e-01	  -6.8467429e-01	
   4.5925000e+01	  -1.9476323e-01	  -1.9189959e-01	
   4.5980000e+01	  -5.5733471e-03	  -1.4078732e-02	
   4.6035000e+01	  -8.9888560e-01	  -1.6012532e-01	
   4.6090000e+01	  -4.9909175e-01	   1.7918727e-01	
   4.6145000e+01	   3.8923000e-01	   4.2260509e-02	
   4.6200000e+01	   8.0802661e-02	   1.2938353e-02	
   4.6255000e+01	  -3.2154889e-01	  -1.8941234e-01	
   4.6310000e+01	   1.8346920e-01	   1.2603590e-02	
   4.6365000e+01	  -1.0491280e-01	  -2.0303809e-03	
   4.6420000e+01	   5.4986911e-02	   1.0627755e-01	
   4.6475000e+01	  -2.7044536e-01	  -1.5491598e-01	
   4.6530000e+01	  -3.1048411e-01	  -3.5242006e-01	
   4.6585000e+01	  -3.2869726e-01	  -4.7704419e-01	
   4.6640000e+01	  -3.2049025e-01	  -3.1601293e-01	
   4.6695000e+01	  -4.1045987e-01	  -4.3420920e-01	
   4.6750000e+01	  -1.6831883e-01	  -3.7424224e-01	
   4.6805000e+01	  -3.2940574e-02	   4.1929039e-02	
   4.6860000e+01	  -4.9924349e-02	   2.3839245e-01	
   4.6915000e+01	  -2.0006113e-01	  -2.6339647e-02	
   4.6970000e+01	  -1.7011679e-01	  -3.5046629e-02	
   4.7025000e+01	   4.9698356e-01	   2.2927490e-01	
   4.7080000e+01	  -4.2886020e-02	   1.5602854e-01	
   4.7135000e+01	  -2.1380021e-01	  -4.0417125e-02	
   4.7190000e+01	  -3.8769553e-01	  -2.3465608e-01	
   4.7245000e+01	   2.1423305e-01	  -8.5862854e-03	
   4.7300000e+01	   5.9427101e-02	  -1.7608909e-01	
   4.7355000e+01	  -4.2503484e-01	  -4.7106055e-01	
   4.7410000e+01	  -2.7473806e-01	  -5.1433486e-01	
   4.7465000e+01	  -1.5189625e-01	  -3.9500942e-01	
   4.7520000e+01	  -8.8724459e-02	  -5.0036868e-01	
   4.7575000e+01	  -3.2118593e-01	  -4.9182201e-01	
   4.7630000e+01	   8.6008090e-02	   1.2116065e-02	
   4.7685000e+01	   2.1190884e-01	   8.5812605e-02	
   4.7740000e+01	   4.4204796e-01	   2.0899971e-02	
   4.7795000e+01	   6.2883105e-02	  -3.9986532e-02	
   4.7850000e+01	  -1.0161606e-01	  -1.2099542e-01	
   4.7905000e+01	   1.0420780e-01	  -2.7147471e-01	
   4.7960000e+01	   3.1559700e-01	  -1.6440501e-01	
   4.8015000e+01	   1.1096312e-01	  -1.0830421e-01	
   4.8070000e+01	  -4.7815918e-01	  -1.1876484e-01	
   4.8125000e+01	   5.1812444e-02	  -3.4231203e-01	
   4.8180000e+01	  -2.1219147e-01	  -2.0366717e-01	
   4.8235000e+01	  -7.3832393e-01	  -4.7341354e-01	
   4.8290000e+01	  -7.3164916e-01	  -5.8790796e-01	
   4.8345000e+01	  -1.2208221e-01	  -4.6993030e-01	
   4.8400000e+01	   4.0722892e-01	  -8.6703227e-02	
   4.8455000e+01	  -5.2738431e-01	  -1.0129427e-01	
   4.8510000e+01	  -3.1945153e-01	  -1.5136935e-01	
   4.8565000e+01	  -4.2608755e-02	   1.9019319e-01	
   4.8620000e+01	   5.5387323e-02	   9.9630130e-02	
   4.8675000e+01	   1.1266107e-01	  -6.0487312e-02	
   4.8730000e+01	  -5.9834971e-01	  -1.4105766e-01	
   4.8785000e+01	  -6.7643898e-01	  -2.6876443e-01	
   4.8840000e+01	  -2.5601385e-01	  -1.5699866e-01	
   4.8895000e+01	  -3.7688504e-01	  -3.7557070e-01	
   4.8950000e+01	  -5.4526961e-01	  -7.0767760e-01	
   4.9005000e+01	  -7.7347600e-01	  -3.9076230e-01	
   4.9060000e+01	  -5.0453377e-01	  -5.8525809e-01	
   4.9115000e+01	  -5.6449076e-01	  -3.8345609e-01	
   4.9170000e+01	  -6.7942602e-01	  -2.5266890e-01	
   4.9225000e+01	   3.2540182e-01	  -4.1839589e-02	
   4.9280000e+01	   1.0782690e-01	   6.5244613e-02	
   4.9335000e+01	   4.1809641e-01	   1.8747172e-01	
   4.9390000e+01	  -3.3148249e-01	   4.8858267e-02	
   4.9445000e+01	   5.1257921e-01	   1.3609004e-01	
   4.9500000e+01	  -2.6448545e-02	   1.9494484e-01	
   4.9555000e+01	  -1.5100972e-01	   1.1743194e-01	
   4.9610000e+01	  -4.0464317e-01	   7.3143372e-02	
   4.9665000e+01	  -3.6505677e-01	  -9.6402499e-02	
   4.9720000e+01	  -5.3653137e-01	  -4.4509872e-02	
   4.9775000e+01	  -2.4668568e-01	  -2.4248116e-02	
   4.9830000e+01	  -4.3566742e-01	  -3.3580576e-01	
   4.9885000e+01	  -6.7003884e-01	  -1.8325157e-01	
   4.9940000e+01	   1.4077584e-01	  -1.1907014e-01	
   4.9995000e+01	  -2.7657138e-02	  -8.9422539e-02	
   5.0050000e+01	   1.5071215e-01	   2.8397442e-02	
   5.0105000e+01	   4.3314070e-01	   4.6039870e-01	
   5.0160000e+01	  -1.1534776e-01	   3.5637030e-01	
   5.0215000e+01	   3.6320162e-01	   2.3791428e-01	
   5.0270000e+01	   4.8001065e-01	   2.1106410e-01	
   5.0325000e+01	  -2.3006509e-02	   8.5009771e-02	
   5.0380000e+01	   6.4243565e-01	   3.4925446e-01	
   5.0435000e+01	  -9.9340178e-02	   1.7261655e-01	
   5.0490000e+01	  -3.3208827e-01	   2.1375676e-01	
   5.0545000e+01	  -2.9005358e-01	   5.8578053e-02	
   5.0600000e+01	  -8.3324300e-02	  -1.6281088e-01	
   5.0655000e+01	   1.3027355e-01	  -1.2468719e-01	
   5.0710000e+01	   4.2984991e-02	  -2.7519135e-01	
   5.0765000e+01	  -8.0529606e-02	   3.9462003e-02	
   5.0820000e+01	   4.1983449e-01	   3.6935721e-01	
   5.0875000e+01	   6.1433974e-01	   2.4114343e-01	
   5.0930000e+01	   1.3316219e-01	   2.1006181e-01	
   5.0985000e+01	   2.2158521e-01	   3.6021821e-01	
   5.1040000e+01	   7.3232336e-01	   4.5044913e-01	
   5.1095000e+01	   2.0056754e-01	   5.4905436e-01	
   5.1150000e+01	   2.4285575e-01	   1.1756944e-01	
   5.1205000e+01	   1.8476075e-01	   2.2966821e-01	
   5.1260000e+01	   1.6824034e-01	   2.1817810e-01	
   5.1315000e+01	   5.4203869e-01	   3.4409434e-01	
   5.1370000e+01	   1.0348044e-01	   2.1211453e-01	
   5.1425000e+01	  -4.7201570e-01	  -8.5249043e-02	
   5.1480000e+01	  -2.1734484e-01	  -1.2342856e-01	
   5.1535000e+01	   3.6634994e-01	   2.5300113e-01	
   5.1590000e+01	   2.2134035e-01	   3.3208116e-01	
   5.1645000e+01	   5.6115489e-01	   4.5429602e-01	
   5.1700000e+01	   6.6608441e-01	   5.3342905e-01	
   5.1755000e+01	   5.5272014e-01	   5.7324694e-01	
   5.1810000e+01	   4.8584007e-01	   6.0851702e-01	
   5.1865000e+01	   5.2640707e-01	   3.5863827e-01	
   5.1920000e+01	   3.0717769e-01	   3.0621235e-01	
   5.1975000e+01	   9.7768671e-01	   2.0808886e-01	
   5.2030000e+01	   2.5205405e-01	   2.0408412e-01	
   5.2085000e+01	   8.1763548e-02	   2.1829116e-01	
   5.2140000e+01	   3.1342993e-01	   1.4994267e-01	
   5.2195000e+01	   1.3641549e-01	   1.6941866e-01	
   5.2250000e+01	   2.1230964e-01	   6.1754136e-02	
   5.2305000e+01	  -3.3986638e-01	   1.0912586e-01	
   5.2360000e+01	   1.0350761e+00	   5.2477353e-01	
   5.2415000e+01	   7.6277851e-01	   5.0047859e-01	
   5.2470000e+01	   3.9174687e-01	   6.0212603e-01	
   5.2525000e+01	   2.7645595e-01	   4.3708106e-01	
   5.2580000e+01	   3.8272618e-01	   7.7019409e-01	
   5.2635000e+01	   8.8514689e-02	   6.2408938e-01	
   5.2690000e+01	   4.0819206e-01	   4.4741444e-01	
   5.2745000e+01	   1.6092804e-01	   3.3386684e-01	
   5.2800000e+01	   8.1076282e-01	   3.6361698e-01	
   5.2855000e+01	   4.1090888e-01	   4.6638337e-01	
   5.2910000e+01	   4.9921625e-01	   3.5020848e-02	
   5.2965000e+01	  -1.7273784e-01	   2.1151727e-01	
   5.3020000e+01	   3.4891552e-01	   7.4041053e-02	
   5.3075000e+01	  -1.5602084e-01	   1.2049649e-01	
   5.3130000e+01	   1.4115681e-01	   4.1295491e-01	
   5.3185000e+01	  -1.1289243e-01	   3.4415850e-01	
   5.3240000e+01	   1.7666171e-01	   6.8198216e-01	
   5.3295000e+01	   8.8853194e-01	   8.2474379e-01	
   5.3350000e+01	   7.2048834e-01	   6.9305932e-01	
   5.3405000e+01	   1.4741537e-01	   7.3821479e-01	
   5.3460000e+01	   1.1511273e-01	   5.6120122e-01	
   5.3515000e+01	   1.8611071e-01	   7.1264470e-01	
   5.3570000e+01	   3.8893550e-01	   5.9026378e-01	
   5.3625000e+01	   2.1152877e-01	   3.9655592e-01	
   5.3680000e+01	   9.4498987e-02	   4.5511096e-01	
   5.3735000e+01	   3.0443604e-01	   4.2142521e-01	
   5.3790000e+01	   4.1806681e-01	   2.6740437e-01	
   5.3845000e+01	  -2.5844111e-01	   1.0709599e-01	
   5.3900000e+01	   3.3049639e-02	   1.7444002e-02	
   5.3955000e+01	   2.3033457e-02	   2.2502688e-01	
   5.4010000e+01	   1.6169372e-01	   2.7204673e-01	
   5.4065000e+01	   6.0384008e-01	   3.5249273e-01	
   5.4120000e+01	   5.3353595e-01	   6.5111833e-01	
   5.4175000e+01	   7.0638519e-01	   8.9569737e-01	
   5.4230000e+01	   6.9294175e-01	   6.8325969e-01	
   5.4285000e+01	   4.7283485e-01	   5.7214586e-01	
   5.4340000e+01	   3.7197794e-01	   5.1844324e-01	
   5.4395000e+01	   1.9341907e-01	   6.0863555e-01	
   5.4450000e+01	   4.3667152e-01	   5.3342767e-01	
   5.4505000e+01	   6.3305454e-02	   3.6181936e-01	
   5.4560000e+01	   7.5823356e-02	   4.4831075e-01	
   5.4615000e+01	   2.4663089e-01	   3.9604483e-01	
   5.4670000e+01	  -1.0671744e-01	   3.6916093e-01	
   5.4725000e+01	   2.7614495e-01	   1.2457890e-01	
   5.4780000e+01	  -2.9740640e-02	   8.4055101e-02	
   5.4835000e+01	  -1.3496853e-01	   1.5461680e-01	
   5.4890000e+01	  -1.5868180e-01	   1.0086600e-01	
   5.4945000e+01	   1.1335050e-01	   5.6794287e-02	
   5.5000000e+01	  -7.2362368e-03	   4.1316121e-01	
   5.5055000e+01	   5.0496242e-01	   6.4003964e-01	
   5.5110000e+01	   6.4761730e-01	   5.3974647e-01	
   5.5165000e+01	   2.3964161e-01	   4.7348364e-01	
   5.5220000e+01	   3.5200415e-01	   6.1383835e-01	
   5.5275000e+01	   2.3585208e-01	   4.9731718e-01	
   5.5330000e+01	   4.3900641e-01	   6.0827723e-01	
   5.5385000e+01	   2.1014339e-01	   3.5921415e-01	
   5.5440000e+01	  -4.8899227e-02	   4.2282896e-01	
   5.5495000e+01	  -5.6429825e-02	   4.5903647e-01	
   5.5550000e+01	   1.6591932e-01	   1.4968924e-01	
   5.5605000e+01	  -2.6087356e-01	   1.2192250e-01	
   5.5660000e+01	  -5.4873141e-01	  -6.0006667e-02	
   5.5715000e+01	  -6.5004987e-01	   5.6675713e-02	
   5.5770000e+01	   1.1482574e-01	  -1.0956312e-01	
   5.5825000e+01	  -2.0411367e-01	   4.4350357e-01	
   5.5880000e+01	   2.6417850e-02	   4.3577695e-01	
   5.5935000e+01	   3.7165103e-01	   5.1852556e-01	
   5.5990000e+01	   7.9502630e-02	   5.2454788e-01	
   5.6045000e+01	   5.4606190e-02	   4.4619145e-01	
   5.6100000e+01	  -4.6529231e-02	   4.5969590e-01	
   5.6155000e+01	   9.5380946e-02	   3.9411870e-01	
   5.6210000e+01	   2.4810880e-01	   5.3505241e-01	
   5.6265000e+01	   6.9980073e-01	   3.4910221e-01	
   5.6320000e+01	  -9.6305208e-02	   3.2380060e-01	
   5.6375000e+01	   2.9662313e-01	   3.2733807e-01	
   5.6430000e+01	  -3.3530170e-01	   2.5388358e-01	
   5.6485000e+01	  -3.4920853e-01	  -8.8764807e-02	
   5.6540000e+01	  -2.9996384e-01	  -1.4809078e-01	
   5.6595000e+01	  -9.4833631e-02	  -1.5179277e-01	
   5.6650000e+01	  -4.4482918e-01	  -1.7165700e-01	
   5.6705000e+01	  -7.0216277e-02	   2.5123050e-01	
   5.6760000e+01	   4.0932352e-02	   4.5977886e-01	
   5.6815000e+01	  -1.1552091e-01	   3.6716368e-01	
   5.6870000e+01	  -4.7820513e-02	   4.1163854e-01	
   5.6925000e+01	   1.0783155e-01	   4.3540546e-01	
   5.6980000e+01	  -4.2886020e-02	   4.5900766e-01	
   5.7035000e+01	   1.0745656e-01	   3.9925303e-01	
   5.7090000e+01	   2.2147974e-02	   3.0435919e-01	
   5.7145000e+01	  -4.7270597e-01	   1.3681266e-01	
   5.7200000e+01	  -4.0324210e-01	   1.3935222e-01	
   5.7255000e+01	   2.7478516e-01	   1.7576215e-01	
   5.7310000e+01	   2.7237800e-01	   7.6782099e-02	
   5.7365000e+01	  -1.9130565e-01	  -2.2999453e-02	
   5.7420000e+01	  -5.3489039e-01	  -2.8580275e-01	
   5.7475000e+01	  -4.5917886e-01	  -1.4117817e-03	
   5.7530000e+01	   4.8379926e-01	   5.5523562e-01	
   5.7585000e+01	   3.2322954e-01	   3.2918478e-01	
   5.7640000e+01	  -1.6469040e-01	   2.4323553e-01	
   5.7695000e+01	  -1.6988462e-01	   4.8430304e-01	
   5.7750000e+01	   2.3419805e-01	   5.6424197e-01	
   5.7805000e+01	   2.9482516e-01	   6.3627073e-01	
   5.7860000e+01	  -5.8023484e-02	   1.6692856e-01	
   5.7915000e+01	   2.5223896e-01	   4.2176370e-01	
   5.7970000e+01	   1.3312873e-01	   3.6542407e-01	
   5.8025000e+01	   1.5120818e-01	   3.3263721e-01	
   5.8080000e+01	  -4.6198736e-01	   1.0596447e-01	
   5.8135000e+01	  -4.6459396e-01	   4.6639101e-02	
   5.8190000e+01	  -3.6360122e-01	  -7.6628067e-02	
   5.8245000e+01	  -2.2957235e-01	   1.2434987e-01	
   5.8300000e+01	  -2.7311134e-01	  -5.7078943e-02	
   5.8355000e+01	   1.5990813e-01	   2.1954429e-01	
   5.8410000e+01	  -4.2245285e-02	   5.8064203e-01	
   5.8465000e+01	   4.1069409e-01	   7.9657713e-01	
   5.8520000e+01	  -1.1086540e-01	   4.3031281e-01	
   5.8575000e+01	  -4.2017005e-02	   5.8568328e-01	
   5.8630000e+01	  -1.3484208e-01	   6.0495878e-01	
   5.8685000e+01	   3.1646205e-01	   5.9791363e-01	
   5.8740000e+01	  -1.1479341e-01	   4.2272665e-01	
   5.8795000e+01	   4.6344043e-01	   3.2871141e-01	
   5.8850000e+01	   1.7151322e-01	   4.0349508e-01	
   5.8905000e+01	  -1.9783722e-01	   4.7630972e-01	
   5.8960000e+01	  -1.9883790e-01	   2.6593597e-01	
   5.9015000e+01	  -1.6781668e-01	   5.7642830e-02	
   5.9070000e+01	  -4.2766575e-01	   3.0635037e-02	
   5.9125000e+01	   1.0723985e-01	   1.0301460e-01	
   5.9180000e+01	  -3.6743670e-01	   1.3272750e-01	
   5.9235000e+01	   2.9660498e-01	   2.8259337e-01	
   5.9290000e+01	   2.4018927e-01	   5.8346483e-01	
   5.9345000e+01	   2.4620646e-01	   6.6150700e-01	
   5.9400000e+01	   4.8932426e-01	   7.3128596e-01	
   5.9455000e+01	  -3.4161772e-01	   7.3737063e-01	
   5.9510000e+01	   3.0494932e-01	   6.5592814e-01	
   5.9565000e+01	   5.5892651e-01	   6.5168983e-01	
   5.9620000e+01	   2.8005169e-01	   7.5489293e-01	
   5.9675000e+01	   2.1429557e-01	   3.3667313e-01	
   5.9730000e+01	  -2.3218604e-01	   4.0576873e-01	
   5.9785000e+01	   2.8129200e-02	   6.2699078e-01	
   5.9840000e+01	   2.0795462e-01	   3.0579497e-01	
   5.9895000e+01	  -1.3574177e-01	   1.1944161e-01	
   5.9950000e+01	  -2.2124908e-01	   1.8619900e-01	
   6.0005000e+01	   3.4105039e-01	   2.1221702e-01	
   6.0060000e+01	  -3.2466038e-01	   2.6268994e-01	
   6.0115000e+01	   1.9605566e-01	   5.0007644e-01	
   6.0170000e+01	   4.7753042e-01	   7.3554598e-01	
   6.0225000e+01	   3.6862701e-01	   8.3034621e-01	
   6.0280000e+01	   3.1702893e-01	   7.7796269e-01	
   6.0335000e+01	   2.8268203e-01	   6.4546114e-01	
   6.0390000e+01	   7.3873533e-01	   7.4455855e-01	
   6.0445000e+01	   3.3036163e-01	   6.4424678e-01	
   6.0500000e+01	   5.1775455e-01	   6.4898733e-01	
   6.0555000e+01	   4.7575703e-01	   5.3136503e-01	
   6.0610000e+01	   6.0466962e-01	   5.8608237e-01	
   6.0665000e+01	   3.5992665e-01	   3.5910774e-01	
   6.0720000e+01	  -1.7501241e-01	   3.2073943e-01	
   6.0775000e+01	  -1.9578733e-03	   2.8710729e-01	
   6.0830000e+01	  -7.7318231e-02	   8.4613966e-02	
   6.0885000e+01	  -1.0867165e-01	   1.7482116e-01	
   6.0940000e+01	   6.8612318e-01	   3.0939278e-01	
   6.0995000e+01	  -1.6867330e-01	   6.2524457e-01	
   6.1050000e+01	   9.4211114e-02	   7.1437007e-01	
   6.1105000e+01	   4.4522565e-01	   8.5887221e-01	
   6.1160000e+01	   3.1086424e-01	   6.6408789e-01	
   6.1215000e+01	   6.2752779e-01	   5.7169392e-01	
   6.1270000e+01	   5.5962719e-01	   3.9961432e-01	
   6.1325000e+01	   6.5735555e-01	   6.1300420e-01	
   6.1380000e+01	   2.6139747e-01	   5.3271424e-01	
   6.1435000e+01	   7.0603358e-01	   5.5756163e-01	
   6.1490000e+01	  -2.3179053e-02	   3.3827911e-01	
   6.1545000e+01	   1.4158857e-01	   4.5203759e-01	
   6.1600000e+01	   1.2703327e-01	   4.4555095e-01	
   6.1655000e+01	   1.5277592e-01	   2.1514384e-01	
   6.1710000e+01	   9.7823046e-02	   1.8588472e-01	
   6.1765000e+01	   7.5729350e-01	   3.8646438e-01	
   6.1820000e+01	   5.6803998e-01	   7.4203308e-01	
   6.1875000e+01	   7.3476231e-02	   5.7384673e-01	
   6.1930000e+01	   2.9585416e-01	   7.5315028e-01	
   6.1985000e+01	   5.2574496e-01	   6.1962467e-01	
   6.2040000e+01	   4.8163555e-01	   9.7307364e-01	
   6.2095000e+01	   1.0816898e+00	   5.7835425e-01	
   6.2150000e+01	  -1.7732247e-01	   2.7027226e-01	
   6.2205000e+01	   3.9756320e-01	   4.8337277e-01	
   6.2260000e+01	   3.7446235e-01	   6.2693485e-01	
   6.2315000e+01	   3.2751709e-01	   4.2078515e-01	
   6.2370000e+01	  -5.4673789e-02	   6.2891263e-02	
   6.2425000e+01	   5.8863146e-01	   1.5637870e-01	
   6.2480000e+01	   2.4923199e-01	   3.2523018e-01	
   6.2535000e+01	   2.8657220e-01	   1.3085813e-01	
   6.2590000e+01	  -4.8239022e-03	   2.8721299e-01	
   6.2645000e+01	  -1.5383590e-01	   3.6934059e-01	
   6.2700000e+01	   5.1533833e-01	   9.7761845e-01	
   6.2755000e+01	   9.8463768e-01	   8.9053782e-01	
   6.2810000e+01	   7.7833378e-01	   6.0036119e-01	
   6.2865000e+01	   4.9864002e-01	   8.0804786e-01	
   6.2920000e+01	   4.7103977e-01	   7.6119473e-01	
   6.2975000e+01	   7.9242759e-01	   4.4407018e-01	
   6.3030000e+01	   3.2105175e-01	   5.0716725e-01	
   6.3085000e+01	   1.1850438e-02	   6.2439913e-01	
   6.3140000e+01	   5.3363399e-01	   5.4256710e-01	
   6.3195000e+01	   3.3864888e-01	   5.5195629e-01	
   6.3250000e+01	   6.6816910e-01	   5.3453830e-01	
   6.3305000e+01	   3.6302109e-01	   2.4016908e-01	
   6.3360000e+01	   4.9925301e-01	   3.5589929e-01	
   6.3415000e+01	   4.8092187e-02	   4.7686414e-01	
   6.3470000e+01	   2.9058291e-01	   6.6206611e-01	
   6.3525000e+01	   7.0576055e-01	   6.7009294e-01	
   6.3580000e+01	   7.1394920e-01	   8.1453417e-01	
   6.3635000e+01	   1.4401726e+00	   1.0027538e+00	
   6.3690000e+01	   5.4809816e-01	   1.1155355e+00	
   6.3745000e+01	  -1.0523389e-01	   6.8305414e-01	
   6.3800000e+01	   5.4529550e-01	   6.8136045e-01	
   6.3855000e+01	   7.4223328e-01	   8.9349857e-01	
   6.3910000e+01	   7.2157256e-01	   6.9790385e-01	
   6.3965000e+01	   8.7929202e-01	   7.3255715e-01	
   6.4020000e+01	   9.8067687e-01	   6.6420906e-01	
   6.4075000e+01	   8.4376277e-01	   7.4759047e-01	
   6.4130000e+01	   2.5331147e-01	   4.1816387e-01	
   6.4185000e+01	   1.1392708e+00	   4.4857226e-01	
   6.4240000e+01	   8.0405624e-01	   3.5413225e-01	
   6.4295000e+01	   9.4798361e-01	   7.1394239e-01	
   6.4350000e+01	   1.1764030e+00	   6.2123234e-01	
   6.4405000e+01	   4.6061146e-01	   8.2606232e-01	
   6.4460000e+01	   1.1708917e+00	   8.7017967e-01	
   6.4515000e+01	   1.1856048e+00	   8.1826281e-01	
   6.4570000e+01	   9.6234358e-01	   8.2409906e-01	
   6.4625000e+01	   6.7073413e-01	   8.7362904e-01	
   6.4680000e+01	   8.3680709e-01	   8.1763162e-01	
   6.4735000e+01	   9.2520270e-01	   9.2709235e-01	
   6.4790000e+01	   7.2176759e-01	   7.4266895e-01	
   6.4845000e+01	   7.9025360e-01	   7.2447715e-01	
   6.4900000e+01	   9.7808092e-01	   5.7448368e-01	
   6.4955000e+01	   4.9496673e-01	   4.2070273e-01	
   6.5010000e+01	   7.7540566e-01	   5.1136203e-01	
   6.5065000e+01	   1.4065432e-01	   4.4748959e-01	
   6.5120000e+01	   9.6723052e-01	   7.6196312e-01	
   6.5175000e+01	   7.4017180e-01	   8.6653489e-01	
   6.5230000e+01	   1.2408003e+00	   9.9078403e-01	
   6.5285000e+01	   1.3076046e+00	   9.0701342e-01	
   6.5340000e+01	   8.0993549e-01	   9.4671393e-01	
   6.5395000e+01	   6.5163595e-01	   9.2331608e-01	
   6.5450000e+01	   9.5728352e-01	   9.8765733e-01	
   6.5505000e+01	   1.1709227e+00	   7.1924104e-01	
   6.5560000e+01	   7.4403908e-02	   5.1079708e-01	
   6.5615000e+01	   6.8038251e-01	   7.6194839e-01	
   6.5670000e+01	   1.4311239e+00	   6.8477493e-01	
   6.5725000e+01	   6.2853191e-01	   3.6973922e-01	
   6.5780000e+01	   3.5482867e-01	   2.5160012e-01	
   6.5835000e+01	   2.9457512e-01	   4.2206687e-01	
   6.5890000e+01	   7.5649675e-01	   5.7664401e-01	
   6.5945000e+01	   5.3917620e-01	   8.2486905e-01	
   6.6000000e+01	   5.2537200e-01	   5.9541056e-01	
   6.6055000e+01	   1.2041641e+00	   9.2116699e-01	
   6.6110000e+01	   8.0969188e-01	   9.6683359e-01	
   6.6165000e+01	   1.0739714e+00	   8.2687547e-01	
   6.6220000e+01	   6.8114132e-01	   7.3316460e-01	
   6.6275000e+01	   6.3642112e-01	   8.2021190e-01	
   6.6330000e+01	   5.7680949e-01	   8.0397187e-01	
   6.6385000e+01	   4.4667780e-01	   5.6397075e-01	
   6.6440000e+01	   8.5829307e-01	   4.1855623e-01	
   6.6495000e+01	   9.4284708e-01	   6.1111728e-01	
   6.6550000e+01	   8.7281412e-01	   6.1181102e-01	
   6.6605000e+01	   8.1699564e-01	   4.7578727e-01	
   6.6660000e+01	   2.3879098e-01	   3.0751738e-01	
   6.6715000e+01	   3.4648005e-01	   2.7449416e-01	
   6.6770000e+01	   5.1768439e-01	   1.9973073e-01	
   6.6825000e+01	   1.3387670e-01	   3.3871030e-01	
   6.6880000e+01	   1.0730341e+00	   6.3070658e-01	
   6.6935000e+01	   6.8354765e-01	   6.6855540e-01	
   6.6990000e+01	   1.1270981e+00	   1.0102576e+00	
   6.7045000e+01	   1.4046933e+00	   7.2437042e-01	
   6.7100000e+01	   8.8338566e-01	   6.6236195e-01	
   6.7155000e+01	   8.8283620e-01	   6.2552384e-01	
   6.7210000e+01	   7.0795080e-01	   7.1125865e-01	
   6.7265000e+01	   7.3630920e-01	   6.7188540e-01	
   6.7320000e+01	   5.1341697e-01	   5.6557054e-01	
   6.7375000e+01	   7.7594502e-01	   4.6154964e-01	
   6.7430000e+01	   7.4332521e-01	   4.9425623e-01	
   6.7485000e+01	   4.2333297e-01	   3.8668231e-01	
   6.7540000e+01	   4.0739402e-01	  -6.0455897e-02	
   6.7595000e+01	  -1.5599436e-02	   3.0529793e-01	
   6.7650000e+01	   2.9684874e-01	   1.8554434e-01	
   6.7705000e+01	  -8.4310467e-02	   2.9042233e-02	
   6.7760000e+01	   7.2913524e-01	   1.6912131e-01	
   6.7815000e+01	   5.4982442e-02	   4.3836065e-01	
   6.7870000e+01	   1.1771997e+00	   5.1118876e-01	
   6.7925000e+01	   7.5813177e-01	   4.9241307e-01	
   6.7980000e+01	   6.7445650e-01	   4.3796532e-01	
   6.8035000e+01	   5.9795701e-01	   4.4131512e-01	
   6.8090000e+01	   1.0639670e+00	   6.7660017e-01	
   6.8145000e+01	   1.3571944e+00	   5.7937988e-01	
   6.8200000e+01	   3.1456005e-01	   2.7738637e-01	
   6.8255000e+01	   4.2186049e-01	   1.9294061e-01	
   6.8310000e+01	  -2.8573510e-02	   3.1520730e-02	
   6.8365000e+01	   8.1066447e-01	   1.8801097e-01	
   6.8420000e+01	   2.5965313e-01	   2.9323678e-02	
   6.8475000e+01	   6.2850130e-01	  -5.6657782e-02	
   6.8530000e+01	   1.7958886e-01	  -7.5609123e-02	
   6.8585000e+01	   6.2520021e-01	   1.7726225e-01	
   6.8640000e+01	   6.5390607e-01	   2.8811092e-01	
   6.8695000e+01	   1.5440379e-01	   4.9584735e-01	
   6.8750000e+01	   7.5422322e-01	   4.4440293e-01	
   6.8805000e+01	   1.2028099e+00	   2.0840896e-01	
   6.8860000e+01	   7.3162928e-01	   2.0821174e-01	
   6.8915000e+01	   1.8246153e-01	   2.4525386e-01	
   6.8970000e+01	   8.3490763e-01	   2.2460321e-01	
   6.9025000e+01	   7.3190605e-01	   2.5337552e-01	
   6.9080000e+01	  -5.2975271e-01	   9.8573838e-03	
   6.9135000e+01	   6.7902252e-01	   2.4663450e-02	
   6.9190000e+01	   4.2800502e-01	  -4.5230314e-02	
   6.9245000e+01	   4.2995973e-01	  -9.1908191e-02	
   6.9300000e+01	   5.7858003e-02	  -3.8770499e-02	
   6.9355000e+01	   7.8086182e-02	  -2.8997691e-01	
   6.9410000e+01	   3.9117708e-01	  -2.7226034e-02	
   6.9465000e+01	   4.7947036e-01	   1.4205226e-01	
   6.9520000e+01	   6.2835646e-01	   2.8671300e-01	
   6.9575000e+01	  -6.8223906e-02	   1.9681102e-01	
   6.9630000e+01	   3.2234877e-01	   2.4759948e-01	
   6.9685000e+01	   7.1937758e-01	   3.8990727e-01	
   6.9740000e+01	   4.1496261e-01	   4.8306246e-01	
   6.9795000e+01	   2.6936927e-01	  -7.8678916e-02	
   6.9850000e+01	   3.4752054e-01	  -9.3014464e-03	
   6.9905000e+01	   4.3922115e-01	   1.7785509e-01	
   6.9960000e+01	   6.4284503e-01	   5.1426312e-02	
   7.0015000e+01	   4.5902527e-01	  -1.6140112e-01	
   7.0070000e+01	   3.6932113e-01	  -4.8496446e-02	
   7.0125000e+01	   1.0784502e-01	  -4.2874867e-01	
   7.0180000e+01	   4.2052496e-01	  -2.5182866e-01	
   7.0235000e+01	   3.5800262e-02	  -4.6614648e-01	
   7.0290000e+01	  -1.2375686e-01	  -3.1178699e-01	
   7.0345000e+01	   2.1218937e-01	   3.0047417e-01	
   7.0400000e+01	   7.5938996e-01	   2.5392493e-01	
   7.0455000e+01	   4.6244633e-01	   1.9327187e-01	
   7.0510000e+01	   4.9694964e-02	   5.8281704e-02	
   7.0565000e+01	   2.9281505e-01	   2.4770271e-01	
   7.0620000e+01	   4.3904708e-01	   2.2827361e-01	
   7.0675000e+01	   7.1718197e-02	   7.0019768e-02	
   7.0730000e+01	   6.4003870e-02	   5.1877297e-02	
   7.0785000e+01	  -1.2820851e-01	   1.6793825e-01	
   7.0840000e+01	   6.5618501e-01	  -5.2703555e-03	
   7.0895000e+01	  -1.1527262e-01	  -3.6532994e-01	
   7.0950000e+01	  -7.3769250e-01	  -3.3170228e-01	
   7.1005000e+01	  -1.2989274e-01	  -2.4876987e-01	
   7.1060000e+01	  -9.5265787e-02	  -2.1137222e-01	
   7.1115000e+01	  -4.4794943e-01	  -5.5127346e-01	
   7.1170000e+01	  -7.1291632e-01	  -6.1308384e-01	
   7.1225000e+01	   4.3451115e-01	   5.1147656e-02	
   7.1280000e+01	   1.0244114e-01	  -1.4751884e-01	
   7.1335000e+01	   2.7998897e-01	   1.8970115e-01	
   7.1390000e+01	   1.8229782e-01	  -2.8509417e-02	
   7.1445000e+01	   3.8578835e-01	   2.5528801e-01	
   7.1500000e+01	   5.5867018e-01	   1.7813764e-01	
   7.1555000e+01	   2.8668777e-01	  -1.6693047e-01	
   7.1610000e+01	  -2.0580805e-02	   2.5645107e-02	
   7.1665000e+01	   3.7864394e-01	  -5.5148768e-02	
   7.1720000e+01	   9.3281319e-02	  -8.4744271e-02	
   7.1775000e+01	  -4.3339678e-01	  -1.4042595e-01	
   7.1830000e+01	  -8.0690281e-03	  -3.8880614e-01	
   7.1885000e+01	  -1.9648969e-01	  -5.9029823e-01	
   7.1940000e+01	  -4.7988368e-01	  -5.8978102e-01	
   7.1995000e+01	  -1.8926360e-01	  -4.3222063e-01	
   7.2050000e+01	  -3.1945615e-01	  -3.9695983e-01	
   7.2105000e+01	  -1.5455183e-01	  -3.1657071e-01	
   7.2160000e+01	   7.4496393e-01	   4.5363054e-02	
   7.2215000e+01	   2.1049204e-01	   3.6736828e-03	
   7.2270000e+01	  -1.5078430e-01	  -1.3705746e-01	
   7.2325000e+01	   3.8821562e-01	  -1.5672372e-01	
   7.2380000e+01	  -1.9169703e-02	  -7.5070730e-03	
   7.2435000e+01	  -2.7451050e-01	  -1.1306389e-01	
   7.2490000e+01	  -6.2393967e-01	  -4.3008725e-01	
   7.2545000e+01	  -3.3909394e-01	  -2.9984364e-01	
   7.2600000e+01	  -1.3958390e-01	  -3.0948806e-01	
   7.2655000e+01	  -2.1941973e-01	  -3.0821457e-01	
   7.2710000e+01	  -1.4433381e-01	  -5.8703373e-01	
   7.2765000e+01	  -5.0448436e-01	  -4.8161767e-01	
   7.2820000e+01	  -2.8573881e-01	  -4.8609534e-01	
   7.2875000e+01	   1.8117075e-01	  -2.1480166e-01	
   7.2930000e+01	  -9.5999868e-02	  -1.6758089e-01	
   7.2985000e+01	  -5.8703128e-02	  -1.6281088e-01	
   7.3040000e+01	   3.2344060e-01	  -1.0280828e-01	
   7.3095000e+01	   1.0289741e-01	   1.7205401e-01	
   7.3150000e+01	  -2.1606597e-01	   4.3236451e-02	
   7.3205000e+01	  -1.5335224e-01	  -1.0849990e-01	
   7.3260000e+01	   1.3286090e-01	  -2.1615664e-01	
   7.3315000e+01	   2.4501676e-01	  -2.3019329e-01	
   7.3370000e+01	  -3.1104083e-01	  -3.0054319e-01	
   7.3425000e+01	  -2.2251747e-01	  -5.8097672e-01	
   7.3480000e+01	   2.5558205e-01	  -2.4021242e-01	
   7.3535000e+01	   1.6652855e-01	  -3.9925304e-01	
   7.3590000e+01	  -6.6480678e-01	  -7.1872765e-01	
   7.3645000e+01	  -1.1548117e-01	  -6.0574353e-01	
   7.3700000e+01	   1.1781515e-01	   3.7620996e-02	
   7.3755000e+01	   4.6911002e-03	   5.7108115e-02	
   7.3810000e+01	  -2.1663378e-01	  -3.9548468e-02	
   7.3865000e+01	  -3.8129023e-01	   6.3367874e-02	
   7.3920000e+01	   2.1677923e-01	   2.5300520e-01	
   7.3975000e+01	   1.5127340e-01	   2.2143332e-01	
   7.4030000e+01	  -1.7496162e-01	  -5.6103373e-02	
   7.4085000e+01	  -7.2626940e-02	   6.3737411e-02	
   7.4140000e+01	  -2.6328662e-01	  -3.5074864e-02	
   7.4195000e+01	  -1.0172701e-01	   4.0877786e-02	
   7.4250000e+01	   3.8443477e-01	  -1.3461314e-01	
   7.4305000e+01	  -8.1548220e-02	  -2.8915627e-01	
   7.4360000e+01	  -1.0490523e-01	  -1.9329587e-01	
   7.4415000e+01	  -4.3817438e-01	  -3.4802186e-01	
   7.4470000e+01	  -4.8719091e-01	  -4.1418020e-01	
   7.4525000e+01	  -2.2595466e-02	  -1.3058555e-01	
   7.4580000e+01	   1.0768320e-01	   1.4927341e-01	
   7.4635000e+01	   4.2073220e-01	   3.4415634e-01	
   7.4690000e+01	   5.0012607e-01	   4.5713265e-01	
   7.4745000e+01	   6.9267015e-01	   3.3474710e-01	
   7.4800000e+01	  -6.0056195e-04	   2.5458174e-01	
   7.4855000e+01	   6.1914127e-01	   4.3996296e-01	
   7.4910000e+01	   5.0699082e-01	   2.2320952e-01	
   7.4965000e+01	  -4.1901417e-02	   2.1213547e-01	
   7.5020000e+01	   1.8401350e-01	   1.1740613e-01	
   7.5075000e+01	   1.1222772e-01	   4.7706846e-02	
   7.5130000e+01	  -1.0649501e-01	   1.3521483e-01	
   7.5185000e+01	  -2.6276056e-01	   1.6098733e-02	
   7.5240000e+01	  -4.2029775e-01	  -1.0165212e-01	
   7.5295000e+01	   1.3646031e-01	   1.0434459e-01	
   7.5350000e+01	  -6.2521335e-01	  -3.5011499e-01	
   7.5405000e+01	   1.8566630e-01	   3.4480861e-02	
   7.5460000e+01	   4.2056060e-01	   2.0908343e-01	
   7.5515000e+01	   2.4069228e-01	   4.3787763e-01	
   7.5570000e+01	   6.2075385e-01	   5.0035757e-01	
   7.5625000e+01	   3.6197774e-01	   3.3859742e-01	
   7.5680000e+01	   6.4223054e-01	   3.2356988e-01	
   7.5735000e+01	   3.2437190e-01	   2.9744024e-01	
   7.5790000e+01	   1.0422372e+00	   5.4461568e-01	
   7.5845000e+01	  -6.8052164e-02	   1.9925765e-01	
   7.5900000e+01	   9.9775446e-02	   2.3930132e-01	
   7.5955000e+01	   6.0411579e-01	   3.5326469e-01	
   7.6010000e+01	   3.2201035e-01	   2.7562989e-01	
   7.6065000e+01	   2.6807293e-02	  -1.5067706e-01	
   7.6120000e+01	   3.6764786e-01	  -4.8496446e-02	
   7.6175000e+01	   3.2134611e-01	   1.4978949e-01	
   7.6230000e+01	   5.2911027e-02	   1.2712838e-01	
   7.6285000e+01	   2.4488529e-01	   1.9424295e-01	
   7.6340000e+01	   2.1543916e-02	   2.1168437e-01	
   7.6395000e+01	   7.4636427e-02	   4.3615890e-01	
   7.6450000e+01	   5.4462973e-01	   4.6505410e-01	
   7.6505000e+01	   6.8569772e-01	   5.0035757e-01	
   7.6560000e+01	   4.5092661e-01	   4.7298414e-01	
   7.6615000e+01	   4.1596329e-03	   2.8443568e-01	
   7.6670000e+01	   3.3565356e-01	   9.5977461e-02	
   7.6725000e+01	   2.1772751e-01	   1.1361429e-01	
   7.6780000e+01	   5.3031515e-02	   1.4091820e-01	
   7.6835000e+01	  -9.2133716e-02	  -8.0679656e-02	
   7.6890000e+01	   2.5777754e-01	   5.8268114e-02	
   7.6945000e+01	   9.1913620e-01	   1.0826841e-02	
   7.7000000e+01	  -6.7485152e-02	  -2.6344821e-01	
   7.7055000e+01	   1.9024283e-01	   4.9555747e-02	
   7.7110000e+01	   4.4616369e-01	   4.5048702e-01	
   7.7165000e+01	   3.8650686e-01	   4.2356206e-01	
   7.7220000e+01	   4.5198560e-01	   6.4042351e-01	
   7.7275000e+01	   1.7972077e-01	   5.5400603e-01	
   7.7330000e+01	   1.1070780e+00	   8.0871843e-01	
   7.7385000e+01	   2.4357597e-01	   2.7099204e-01	
   7.7440000e+01	   3.0853169e-01	   2.7977357e-01	
   7.7495000e+01	   4.0534032e-01	   3.0386702e-01	
   7.7550000e+01	   4.9271465e-01	   3.9854347e-01	
   7.7605000e+01	   1.3722775e-01	   2.4330131e-01	
   7.7660000e+01	  -9.1022232e-02	   9.4065114e-02	
   7.7715000e+01	  -1.1385246e-01	  -3.6948539e-03	
   7.7770000e+01	   3.4261238e-01	   1.2547877e-01	
   7.7825000e+01	  -1.5050644e-01	  -9.4871984e-02	
   7.7880000e+01	  -4.8675875e-02	  -2.5376431e-01	
   7.7935000e+01	   1.9452496e-01	   4.2756745e-01	
   7.7990000e+01	   5.5012961e-01	   7.4536558e-01	
   7.8045000e+01	   7.8776455e-01	   7.3414663e-01	
   7.8100000e+01	   3.1889382e-01	   5.7978649e-01	
   7.8155000e+01	   3.5072645e-01	   3.9622450e-01	
   7.8210000e+01	   4.4204703e-01	   5.4046593e-01	
   7.8265000e+01	   4.9018012e-01	   6.6234611e-01	
   7.8320000e+01	   4.4769766e-01	   3.2207965e-01	
   7.8375000e+01	   3.5762952e-01	   2.9199704e-01	
   7.8430000e+01	   3.0900490e-01	   5.5148295e-01	
   7.8485000e+01	   5.3236750e-01	   3.9861607e-01	
   7.8540000e+01	  -3.7249379e-01	   2.6549547e-01	
   7.8595000e+01	   5.7988601e-01	   9.1101747e-02	
   7.8650000e+01	  -2.6536349e-01	   1.7437364e-01	
   7.8705000e+01	  -4.5342926e-02	   1.4514086e-01	
   7.8760000e+01	   1.1131074e-02	   1.7267896e-02	
   7.8815000e+01	   4.1605851e-01	   3.2384957e-01	
   7.8870000e+01	   3.6141055e-01	   6.2081552e-01	
   7.8925000e+01	   2.9316106e-01	   7.4956064e-01	
   7.8980000e+01	   3.8272860e-01	   5.1336868e-01	
   7.9035000e+01	   3.7637508e-01	   6.4042351e-01	
   7.9090000e+01	   2.1351731e-01	   6.3875560e-01	
   7.9145000e+01	   4.1550033e-01	   7.7525500e-01	
   7.9200000e+01	   1.7491305e-02	   4.7298414e-01	
   7.9255000e+01	  -1.1298935e-02	   3.4818943e-01	
   7.9310000e+01	  -3.3768597e-01	   4.7242765e-01	
   7.9365000e+01	   3.6806163e-01	   3.9085893e-01	
   7.9420000e+01	  -1.0829685e-01	   2.5877677e-01	
   7.9475000e+01	  -3.4483653e-01	   1.0410020e-01	
   7.9530000e+01	  -6.0757172e-02	   2.5955480e-01	
   7.9585000e+01	  -2.4761497e-01	   5.1231552e-02	
   7.9640000e+01	   3.8809398e-01	   3.2135870e-01	
   7.9695000e+01	   4.9608819e-01	   5.3579065e-01	
   7.9750000e+01	  -3.9002835e-01	   5.3636273e-01	
   7.9805000e+01	   3.3723825e-01	   6.6016704e-01	
   7.9860000e+01	  -1.7332636e-01	   5.0005678e-01	
   7.9915000e+01	  -5.2601030e-01	   5.2966107e-01	
   7.9970000e+01	  -3.8781419e-03	   4.9476395e-01	
   8.0025000e+01	   2.9405910e-02	   5.4641724e-01	
   8.0080000e+01	   1.8997440e-01	   3.9097006e-01	
   8.0135000e+01	   8.4195102e-02	   1.8077452e-01	
   8.0190000e+01	  -2.1490823e-02	   1.6328344e-01	
   8.0245000e+01	  -3.6160275e-01	   5.5242302e-01	
   8.0300000e+01	  -2.5543121e-01	   2.2862473e-02	
   8.0355000e+01	  -8.2348280e-01	  -1.5648388e-01	
   8.0410000e+01	  -7.1175512e-01	  -6.2273838e-02	
   8.0465000e+01	   1.7107572e-01	   4.4674491e-01	
   8.0520000e+01	  -8.5856339e-01	   3.0527185e-01	
   8.0575000e+01	  -2.3093374e-01	   5.9200506e-01	
   8.0630000e+01	  -3.8868851e-01	   6.2883296e-01	
   8.0685000e+01	   5.7126476e-01	   8.1759032e-01	
   8.0740000e+01	  -1.1232817e-02	   6.9143953e-01	
   8.0795000e+01	  -3.1747578e-01	   5.2128696e-01	
   8.0850000e+01	  -2.9519338e-01	   4.1412297e-01	
   8.0905000e+01	  -2.9738327e-01	   4.2160905e-01	
   8.0960000e+01	  -5.2856174e-02	   5.6044918e-01	
   8.1015000e+01	  -4.5873158e-01	   2.6109302e-01	
   8.1070000e+01	  -4.4396592e-01	   2.1891815e-01	
   8.1125000e+01	  -4.9072770e-01	   3.0696977e-01	
   8.1180000e+01	  -6.8524927e-01	   8.1625298e-04	
   8.1235000e+01	  -5.3822687e-01	   3.3923812e-01	
   8.1290000e+01	  -4.2831794e-01	   5.5786943e-01	
   8.1345000e+01	   5.1480537e-01	   8.2113200e-01	
   8.1400000e+01	  -1.8058860e-01	   7.6706582e-01	
   8.1455000e+01	  -3.2842307e-01	   6.5288956e-01	
   8.1510000e+01	   2.4581375e-01	   5.9934980e-01	
   8.1565000e+01	   1.1412010e-01	   8.5781719e-01	
   8.1620000e+01	  -2.6385064e-01	   7.5635628e-01	
   8.1675000e+01	  -1.5107904e-01	   7.4045973e-01	
   8.1730000e+01	  -1.4818425e-01	   6.0953782e-01	
   8.1785000e+01	   6.5496911e-01	   6.0342933e-01	
   8.1840000e+01	   2.1906992e-01	   2.4274462e-01	
   8.1895000e+01	  -4.2538756e-01	   1.5308552e-01	
   8.1950000e+01	  -4.4517170e-01	   3.0733761e-01	
   8.2005000e+01	  -6.7337008e-01	   2.3349182e-01	
   8.2060000e+01	  -3.9290356e-01	   1.3843593e-01	
   8.2115000e+01	  -4.5930080e-01	   6.6600887e-01	
   8.2170000e+01	  -3.2016262e-01	   4.8982665e-01	
   8.2225000e+01	  -2.0384430e-01	   9.4956114e-01	
   8.2280000e+01	  -3.9665395e-03	   8.0546696e-01	
   8.2335000e+01	  -1.0515540e-01	   6.8102819e-01	
   8.2390000e+01	   6.1252824e-02	   7.0973429e-01	
   8.2445000e+01	  -1.9576651e-01	   7.4635401e-01	
   8.2500000e+01	  -3.4936731e-02	   5.8889549e-01	
   8.2555000e+01	   1.5253049e-02	   5.2714289e-01	
   8.2610000e+01	  -2.0602174e-01	   6.8050818e-01	
   8.2665000e+01	  -2.8275926e-02	   5.9898617e-01	
   8.2720000e+01	  -5.2806463e-02	   5.3321663e-01	
   8.2775000e+01	  -1.4835908e-01	   4.3233704e-01	
   8.2830000e+01	  -4.2643097e-01	   1.3466144e-01	
   8.2885000e+01	  -4.2243813e-01	   3.2150199e-01	
   8.2940000e+01	   3.0679540e-01	   7.0082359e-01	
   8.2995000e+01	  -1.3463861e-01	   5.3035383e-01	
   8.3050000e+01	  -3.0929436e-01	   8.4695895e-01	
   8.3105000e+01	  -6.1558154e-02	   7.3474036e-01	
   8.3160000e+01	   1.8498149e-01	   7.6155574e-01	
   8.3215000e+01	   3.6191542e-02	   6.7589863e-01	
   8.3270000e+01	   4.7612268e-01	   7.7352713e-01	
   8.3325000e+01	   3.3456761e-02	   7.1293353e-01	
   8.3380000e+01	  -8.5842056e-02	   7.3922863e-01	
   8.3435000e+01	   1.4467183e-01	   5.5398754e-01	
   8.3490000e+01	   2.1813747e-02	   3.8252876e-01	
   8.3545000e+01	  -5.7787386e-01	   3.6243776e-01	
   8.3600000e+01	  -6.8350642e-01	   3.6691589e-01	
   8.3655000e+01	  -6.0532899e-01	   1.5367934e-01	
   8.3710000e+01	  -3.5945690e-01	   9.7174914e-02	
   8.3765000e+01	  -4.5779663e-01	   6.3455217e-01	
   8.3820000e+01	   8.4636369e-02	   9.0820851e-01	
   8.3875000e+01	   2.5771510e-01	   5.7809018e-01	
   8.3930000e+01	  -4.2202608e-01	   6.5903162e-01	
   8.3985000e+01	  -1.3393160e-01	   8.4478037e-01	
   8.4040000e+01	   4.3509730e-01	   6.4941241e-01	
   8.4095000e+01	  -2.1039399e-01	   7.0141833e-01	
   8.4150000e+01	  -2.2631596e-01	   6.3188506e-01	
   8.4205000e+01	  -4.7095029e-01	   5.0259911e-01	
   8.4260000e+01	  -2.3814515e-01	   4.0945168e-01	
   8.4315000e+01	  -2.2026901e-01	   3.8845867e-01	
   8.4370000e+01	  -4.8505104e-01	   3.5068124e-01	
   8.4425000e+01	  -3.0601183e-01	   2.0447237e-01	
   8.4480000e+01	  -6.3054505e-01	   2.6724335e-01	
   8.4535000e+01	  -4.2661697e-01	   2.6481100e-01	
   8.4590000e+01	  -8.6776832e-02	   6.0738647e-01	
   8.4645000e+01	  -1.1854616e-01	   4.0622031e-01	
   8.4700000e+01	  -5.5157133e-02	   8.3325342e-01	
   8.4755000e+01	   2.4296105e-01	   7.4288735e-01	
   8.4810000e+01	  -3.8938480e-01	   5.9759571e-01	
   8.4865000e+01	   2.7458714e-01	   5.8976957e-01	
   8.4920000e+01	  -1.0157452e-01	   6.5207053e-01	
   8.4975000e+01	   2.3167297e-01	   5.0796423e-01	
   8.5030000e+01	   1.6854571e-01	   4.6748759e-01	
   8.5085000e+01	  -2.8362364e-01	   4.2298131e-01	
   8.5140000e+01	  -3.1180502e-01	   4.9221133e-01	
   8.5195000e+01	  -5.3102962e-01	   2.7383421e-01	
   8.5250000e+01	  -1.4448808e-01	   1.6635576e-01	
   8.5305000e+01	  -2.7168412e-01	   2.7487711e-02	
   8.5360000e+01	  -2.8573881e-01	   1.1222483e-01	
   8.5415000e+01	  -7.3192679e-01	   9.3261600e-02	
   8.5470000e+01	  -9.0169442e-01	   1.9627582e-01	
   8.5525000e+01	  -3.3898496e-01	   5.6445003e-01	
   8.5580000e+01	   2.6647123e-03	   4.4628788e-01	
   8.5635000e+01	  -2.9570924e-01	   6.7028691e-01	
   8.5690000e+01	  -2.5878315e-01	   8.1861186e-01	
   8.5745000e+01	  -6.8272728e-01	   3.7245262e-01	
   8.5800000e+01	   1.4821788e-01	   6.7917444e-01	
   8.5855000e+01	   1.5481642e-01	   4.4108401e-01	
   8.5910000e+01	  -7.1887180e-01	   2.6818935e-01	
   8.5965000e+01	  -2.4158075e-01	   1.8081163e-01	
   8.6020000e+01	  -1.2680212e-02	   3.6380860e-01	
   8.6075000e+01	  -2.3560882e-01	   1.6493175e-01	
   8.6130000e+01	  -6.9319832e-01	   2.2847289e-02	
   8.6185000e+01	  -4.8905809e-01	  -1.0109899e-01	
   8.6240000e+01	  -8.2529918e-01	  -2.6973162e-02	
   8.6295000e+01	  -1.1926450e-01	  -1.9238069e-01	
   8.6350000e+01	  -7.7318151e-01	   8.9436989e-03	
   8.6405000e+01	  -3.7529743e-01	   1.2025301e-01	
   8.6460000e+01	  -2.9722608e-01	   4.2074490e-01	
   8.6515000e+01	  -6.8503774e-01	   2.7584379e-01	
   8.6570000e+01	  -5.4087212e-01	   3.1785452e-01	
   8.6625000e+01	  -3.7625523e-01	   3.9894714e-01	
   8.6680000e+01	   3.7045109e-02	   5.7195998e-01	
   8.6735000e+01	  -5.5264474e-01	   3.1537264e-01	
   8.6790000e+01	  -5.4489442e-01	   2.6638815e-01	
   8.6845000e+01	  -6.1248419e-01	   1.7972459e-01	
   8.6900000e+01	   9.9121519e-02	   4.1654763e-02	
   8.6955000e+01	  -2.4850291e-01	  -3.9861643e-02	
   8.7010000e+01	  -7.3491242e-01	  -2.5120737e-01	
   8.7065000e+01	  -6.6650669e-01	  -2.1700602e-01	
   8.7120000e+01	  -1.0692890e+00	  -3.0580736e-01	
   8.7175000e+01	  -5.7843629e-01	  -1.3220799e-01	
   8.7230000e+01	  -4.9462086e-01	   1.0835228e-01	
   8.7285000e+01	  -4.0010324e-01	   1.2965734e-01	
   8.7340000e+01	  -6.9654280e-02	   2.8054984e-01	
   8.7395000e+01	  -2.7804822e-02	   3.5577467e-01	
   8.7450000e+01	  -3.9833766e-01	   6.2571871e-02	
   8.7505000e+01	   1.7918154e-01	   2.5337321e-01	
   8.7560000e+01	  -5.6141104e-01	   1.8160652e-01	
   8.7615000e+01	   2.9357635e-01	   1.1421165e-01	
   8.7670000e+01	  -1.1749804e-01	   3.8634150e-02	
   8.7725000e+01	   6.3401142e-02	  -3.4076395e-01	
   8.7780000e+01	  -4.1589619e-01	  -4.9421606e-02	
   8.7835000e+01	  -3.0629546e-01	  -2.0172006e-01	
   8.7890000e+01	  -9.2349876e-01	  -3.1879340e-01	
   8.7945000e+01	  -9.5423172e-01	  -3.0907318e-01	
   8.8000000e+01	  -8.7126753e-01	  -4.0943079e-01	
   8.8055000e+01	  -6.0281475e-01	  -4.7956026e-01	
   8.8110000e+01	  -8.1451827e-01	  -3.3053595e-01	
   8.8165000e+01	  -7.6747261e-01	  -1.0549785e-01	
   8.8220000e+01	  -3.7338598e-01	   8.6802537e-02	
   8.8275000e+01	  -2.3605621e-01	   3.3273778e-01	
   8.8330000e+01	  -4.8779533e-02	   1.5849196e-01	
   8.8385000e+01	  -1.2312512e-01	   1.6412884e-01	
   8.8440000e+01	  -2.5354768e-01	  -4.2079807e-02	
   8.8495000e+01	  -1.9966115e-01	   8.0781581e-02	
   8.8550000e+01	  -1.7637904e-01	  -3.8329464e-02	
   8.8605000e+01	  -3.7478155e-01	  -1.5810035e-01	
   8.8660000e+01	  -3.2878478e-02	  -3.5138503e-01	
   8.8715000e+01	  -4.0323712e-01	  -2.4092877e-01	
   8.8770000e+01	  -6.1719004e-01	  -5.3606274e-01	
   8.8825000e+01	  -1.0277770e+00	  -6.0365859e-01	
   8.8880000e+01	  -1.1254422e+00	  -3.9740438e-01	
   8.8935000e+01	  -1.1024411e+00	  -6.8296928e-01	
   8.8990000e+01	  -1.0395268e+00	  -6.6462095e-01	
   8.9045000e+01	  -6.6700740e-01	  -2.1323201e-01	
   8.9100000e+01	  -3.6830158e-01	  -8.0925042e-03	
   8.9155000e+01	  -2.1056226e-01	  -1.2996819e-01	
   8.9210000e+01	   1.5132474e-01	   1.9932190e-01	
   8.9265000e+01	  -4.9382870e-01	   7.6618813e-02	
   8.9320000e+01	   2.0283823e-01	  -8.3041212e-02	
   8.9375000e+01	   3.7922967e-02	  -8.7229072e-02	
   8.9430000e+01	   2.7482501e-01	  -8.1721699e-02	
   8.9485000e+01	  -5.4617911e-01	  -2.1962291e-01	
   8.9540000e+01	  -3.5762670e-01	  -1.3504112e-01	
   8.9595000e+01	  -2.2417981e-01	  -3.2985284e-01	
   8.9650000e+01	  -2.9927767e-01	  -4.6038246e-01	
   8.9705000e+01	  -2.2260491e-01	  -7.2163178e-01	
   8.9760000e+01	  -8.9522396e-01	  -7.2590565e-01	
   8.9815000e+01	  -2.6750352e-01	  -5.7012059e-01	
   8.9870000e+01	  -2.1208507e-01	  -5.7912846e-01	
   8.9925000e+01	  -5.5656042e-01	  -6.5582069e-01	
   8.9980000e+01	  -8.6185624e-01	  -2.0779635e-01	
   9.0035000e+01	   1.3422117e-01	  -2.6797193e-01	
   9.0090000e+01	   2.6268085e-01	  -4.3951112e-02	
   9.0145000e+01	  -7.6580189e-02	  -2.7973450e-01	
   9.0200000e+01	  -2.4760983e-01	  -2.5208466e-01	
   9.0255000e+01	  -3.4273732e-01	  -2.3163928e-01	
   9.0310000e+01	  -5.9654444e-02	  -1.8036594e-01	
   9.0365000e+01	  -5.0156136e-01	  -6.3198713e-01	
   9.0420000e+01	  -4.3408744e-01	  -5.5019297e-01	
   9.0475000e+01	  -4.2203989e-01	  -5.1078039e-01	
   9.0530000e+01	  -3.7897673e-02	  -4.3802157e-01	
   9.0585000e+01	  -7.2926508e-01	  -8.4419058e-01	
   9.0640000e+01	  -4.8028636e-01	  -6.1265793e-01	
   9.0695000e+01	  -6.4802910e-01	  -9.2632863e-01	
   9.0750000e+01	  -7.5497916e-01	  -7.1169520e-01	
   9.0805000e+01	  -5.8811672e-01	  -6.2891712e-01	
   9.0860000e+01	  -2.3333793e-01	  -4.0816296e-01	
   9.0915000e+01	  -1.0556094e-01	  -2.6114327e-01	
   9.0970000e+01	  -2.9548290e-01	  -3.4195600e-01	
   9.1025000e+01	  -1.8778168e-01	  -3.9987101e-01	
   9.1080000e+01	  -3.4267390e-01	  -4.1538415e-01	
   9.1135000e+01	   1.0316561e-02	  -2.2852294e-01	
   9.1190000e+01	   2.2361644e-02	  -4.7436516e-01	
   9.1245000e+01	  -1.1480302e-01	  -4.1388820e-01	
   9.1300000e+01	  -3.0049125e-01	  -5.3881669e-01	
   9.1355000e+01	  -5.5515941e-01	  -5.4425827e-01	
   9.1410000e+01	  -5.8225813e-01	  -6.3063109e-01	
   9.1465000e+01	  -1.1915796e+00	  -9.7627581e-01	
   9.1520000e+01	  -4.8492709e-01	  -9.8366269e-01	
   9.1575000e+01	  -7.5506443e-01	  -9.6767914e-01	
   9.1630000e+01	  -5.2275109e-01	  -6.1367002e-01	
   9.1685000e+01	  -2.1536345e-01	  -4.6745644e-01	
   9.1740000e+01	  -2.0558456e-01	  -5.0697497e-01	
   9.1795000e+01	  -3.6935970e-02	  -1.5624364e-01	
   9.1850000e+01	   3.5890562e-02	  -2.1575213e-01	
   9.1905000e+01	   9.4144890e-02	  -2.8289658e-01	
   9.1960000e+01	  -7.9712413e-02	  -2.9377717e-01	
   9.2015000e+01	   9.6680871e-02	  -9.6307429e-02	
   9.2070000e+01	   1.9448798e-02	  -2.7971889e-01	
   9.2125000e+01	  -4.7546118e-01	  -6.4144617e-01	
   9.2180000e+01	  -4.3842887e-01	  -5.5457993e-01	
   9.2235000e+01	  -5.0656704e-01	  -4.1118167e-01	
   9.2290000e+01	   1.4907003e-01	  -6.6157053e-01	
   9.2345000e+01	  -4.6062250e-01	  -7.8806741e-01	
   9.2400000e+01	  -7.2923755e-01	  -7.3080616e-01	
   9.2455000e+01	  -1.8938992e-01	  -8.9022232e-01	
   9.2510000e+01	  -5.3645631e-01	  -7.1964150e-01	
   9.2565000e+01	  -3.6044361e-01	  -3.5511031e-01	
   9.2620000e+01	  -4.0318366e-02	  -2.4487237e-01	
   9.2675000e+01	   4.5473510e-01	  -2.8091949e-01	
   9.2730000e+01	   6.8736471e-02	  -1.6707570e-01	
   9.2785000e+01	   1.3979766e-01	  -3.4598991e-01	
   9.2840000e+01	   9.3041025e-02	  -1.8233757e-01	
   9.2895000e+01	  -1.3019531e-01	  -2.9247395e-01	
   9.2950000e+01	  -1.6582477e-01	  -2.3509277e-01	
   9.3005000e+01	  -4.0980377e-01	  -4.0000732e-01	
   9.3060000e+01	  -7.1788918e-02	  -5.4945537e-01	
   9.3115000e+01	  -3.2204577e-01	  -3.4402339e-01	
   9.3170000e+01	  -8.7747026e-01	  -4.2720295e-01	
   9.3225000e+01	  -3.6834252e-01	  -6.5421650e-01	
   9.3280000e+01	  -7.4913184e-01	  -8.1758339e-01	
   9.3335000e+01	  -5.0258167e-01	  -5.5380676e-01	
   9.3390000e+01	  -7.9816332e-02	  -7.2455034e-01	
   9.3445000e+01	  -2.3324325e-01	  -5.4809149e-01	
   9.3500000e+01	  -2.0480822e-02	  -2.6031038e-01	
   9.3555000e+01	   5.3125203e-01	  -2.4032152e-01	
   9.3610000e+01	   1.7164725e-01	  -3.9691595e-02	
   9.3665000e+01	  -1.2408989e-01	  -1.3555138e-01	
   9.3720000e+01	  -2.6189988e-01	  -3.0717756e-01	
   9.3775000e+01	   5.6192913e-01	  -1.2620212e-01	
   9.3830000e+01	  -2.0033558e-01	  -3.6028259e-01	
   9.3885000e+01	  -1.3492725e-01	  -1.3118325e-01	
   9.3940000e+01	   1.5799256e-01	  -1.6459453e-01	
   9.3995000e+01	  -2.8585333e-01	  -2.6159919e-01	
   9.4050000e+01	   3.1469453e-01	  -4.0045741e-01	
   9.4105000e+01	  -2.2008623e-01	  -7.0950326e-01	
   9.4160000e+01	  -1.1502162e-01	  -5.8822813e-01	
   9.4215000e+01	  -2.5488293e-01	  -7.5758126e-01	
   9.4270000e+01	   1.6617054e-01	  -1.9849115e-01	
   9.4325000e+01	   3.0284244e-01	  -1.2652545e-01	
   9.4380000e+01	  -1.8736625e-01	  -2.6750855e-01	
   9.4435000e+01	   1.1685680e-01	  -3.5018710e-02	
   9.4490000e+01	   1.2159479e-01	   1.1997194e-01	
   9.4545000e+01	   6.2979731e-01	  -2.2305992e-01	
   9.4600000e+01	  -1.3144402e-01	  -3.3982776e-01	
   9.4655000e+01	   1.8271536e-01	  -1.2031484e-01	
   9.4710000e+01	   2.6796006e-01	  -1.9263356e-01	
   9.4765000e+01	   4.8755490e-01	  -3.4701591e-01	
   9.4820000e+01	  -5.3433162e-01	  -5.1555108e-01	
   9.4875000e+01	   5.3778170e-01	  -4.6466566e-01	
   9.4930000e+01	   1.1664387e-02	  -3.8890566e-01	
   9.4985000e+01	  -6.6334007e-02	  -5.4423785e-01	
   9.5040000e+01	  -7.8217085e-01	  -7.6141285e-01	
   9.5095000e+01	  -1.8810259e-01	  -2.7128392e-01	
   9.5150000e+01	   5.8387635e-01	   2.2535620e-02	
   9.5205000e+01	   4.5870611e-01	   1.6473556e-02	
   9.5260000e+01	   1.1493654e-01	   2.0850641e-02	
   9.5315000e+01	   2.5430075e-01	  -6.8754621e-03	
   9.5370000e+01	   2.1141916e-01	   9.0113511e-02	
   9.5425000e+01	   4.4115123e-01	  -1.7482880e-01	
   9.5480000e+01	   3.5588616e-01	  -1.3921985e-02	
   9.5535000e+01	   2.2729120e-01	  -1.3016616e-01	
   9.5590000e+01	   3.1301160e-01	  -1.8107756e-01	
   9.5645000e+01	  -8.0203069e-02	  -3.1899982e-01	
   9.5700000e+01	   2.3004885e-01	  -4.0173986e-01	
   9.5755000e+01	  -2.8234029e-02	  -3.7809825e-01	
   9.5810000e+01	  -7.5836956e-01	  -4.7311829e-01	
   9.5865000e+01	   4.7189553e-02	  -2.5823723e-01	
   9.5920000e+01	  -6.3299093e-02	  -6.0974603e-01	
   9.5975000e+01	   5.6475595e-01	  -1.9143378e-01	
   9.6030000e+01	   1.0347065e-01	  -1.5007641e-01	
   9.6085000e+01	   2.6610152e-01	   1.5352524e-02	
   9.6140000e+01	  -1.3634685e-01	   1.0081345e-01	
   9.6195000e+01	   7.8545221e-01	   9.0242797e-02	
   9.6250000e+01	  -2.1057592e-01	   7.8312784e-02	
   9.6305000e+01	   5.7465480e-01	   1.6921471e-01	
   9.6360000e+01	   7.5747367e-01	  -7.2048948e-02	
   9.6415000e+01	   3.9530052e-01	  -1.8346368e-01	
   9.6470000e+01	   3.6978533e-01	  -2.5659457e-03	
   9.6525000e+01	   3.9488165e-01	   3.7090229e-02	
   9.6580000e+01	   6.0023432e-01	  -1.7241449e-01	
   9.6635000e+01	   1.8676003e-01	  -3.8051804e-01	
   9.6690000e+01	   2.9992095e-01	  -2.9319041e-01	
   9.6745000e+01	  -2.4569824e-01	  -3.0390796e-01	
   9.6800000e+01	  -1.4104235e-01	  -4.8905028e-01	
   9.6855000e+01	   3.0904488e-01	  -3.8506598e-01	
   9.6910000e+01	   4.9656347e-01	   2.0216453e-01	
   9.6965000e+01	   4.6541320e-01	   1.2457890e-01	
   9.7020000e+01	   3.1529902e-01	   6.4055879e-02	
   9.7075000e+01	   1.0384323e-02	  -1.1854033e-01	
   9.7130000e+01	   8.8039537e-01	   1.5395552e-01	
   9.7185000e+01	   5.6289075e-01	   7.2338746e-02	
   9.7240000e+01	   3.1752175e-01	  -4.3798001e-02	
   9.7295000e+01	  -1.9728339e-02	  -2.2950482e-01	
   9.7350000e+01	   3.1543057e-01	   1.1564494e-02	
   9.7405000e+01	   9.4350019e-01	  -1.8065663e-01	
   9.7460000e+01	  -3.1533252e-01	  -3.6370901e-01	
   9.7515000e+01	   2.2389263e-02	  -2.6226708e-01	
   9.7570000e+01	  -1.3596279e-01	  -3.4735118e-01	
   9.7625000e+01	   1.1834939e-01	  -4.7086963e-01	
   9.7680000e+01	   4.0162320e-02	  -1.8579594e-01	
   9.7735000e+01	   1.9078541e-01	  -2.2203482e-01	
   9.7790000e+01	   2.6075920e-01	   1.2844992e-01	
   9.7845000e+01	   4.7224731e-01	   1.3608446e-01	
   9.7900000e+01	   8.2189746e-01	   1.6006860e-01	
   9.7955000e+01	  -5.0265990e-02	   6.7282499e-02	
   9.8010000e+01	   3.5742114e-01	   7.2115757e-02	
   9.8065000e+01	   2.2016262e-01	   2.0510072e-02	
   9.8120000e+01	   2.5637368e-01	  -2.0759455e-01	
   9.8175000e+01	   1.0155559e+00	  -2.5392583e-01	
   9.8230000e+01	  -4.8866848e-02	  -1.5746744e-01	
   9.8285000e+01	   1.9481848e-02	  -1.4713980e-01	
   9.8340000e+01	   2.7065451e-01	  -3.6179885e-01	
   9.8395000e+01	  -3.5445401e-01	  -6.8837564e-01	
   9.8450000e+01	   2.2792490e-01	  -5.0629122e-01	
   9.8505000e+01	   4.1758901e-01	  -5.4196170e-02	
   9.8560000e+01	   4.7004814e-01	   1.6734474e-01	
   9.8615000e+01	   5.1904436e-01	   1.7694792e-01	
   9.8670000e+01	   6.9228808e-01	   2.5277907e-01	
   9.8725000e+01	   8.3892043e-01	   2.1391671e-01	
   9.8780000e+01	   3.8218187e-01	  -1.3443156e-01	
   9.8835000e+01	   2.8111618e-01	   3.2963311e-02	
   9.8890000e+01	   5.8800190e-01	  -3.0607065e-02	
   9.8945000e+01	  -4.8968456e-02	   1.4621568e-02	
   9.9000000e+01	   7.0609326e-01	  -1.6907085e-01	
   9.9055000e+01	  -1.0614404e-01	  -2.7680768e-01	
   9.9110000e+01	   4.1137406e-01	  -1.1730633e-01	
   9.9165000e+01	  -1.3700148e-01	  -2.8873617e-01	
   9.9220000e+01	   1.9710626e-01	  -4.7032320e-01	
   9.9275000e+01	   1.8972695e-01	  -6.3040633e-01	
   9.9330000e+01	   1.3531987e-01	  -2.3520620e-01	
   9.9385000e+01	   5.9557271e-01	   1.1952932e-01	
   9.9440000e+01	   2.6596993e-01	  -9.1962875e-02	
   9.9495000e+01	  -1.2951086e-01	   4.9742873e-02	
   9.9550000e+01	   5.4533757e-01	  -4.1096300e-02	
   9.9605000e+01	  -1.1989644e-01	   1.6050431e-01	
   9.9660000e+01	   4.9029693e-01	   1.9509236e-01	
   9.9715000e+01	  -1.2071451e-01	   6.0849244e-02	
   9.9770000e+01	  -8.9093830e-02	  -2.4496124e-02	
   9.9825000e+01	   4.4919945e-01	   2.5421421e-02	
   9.9880000e+01	   1.5487500e-01	  -2.5178930e-01	
   9.9935000e+01	  -1.7793757e-01	  -3.1836419e-01	
   9.9990000e+01	   5.9720549e-01	  -3.0216332e-01	
   1.0004500e+02	   7.7732154e-02	  -2.1747254e-01	
   1.0010000e+02	  -1.2646920e-01	  -4.8566876e-01	
   1.0015500e+02	  -2.1634994e-01	  -2.8670636e-01	
   1.0021000e+02	   1.6448307e-01	  -9.8917148e-02	
   1.0026500e+02	   2.3879098e-01	   1.0114080e-01	
   1.0032000e+02	   2.8819758e-01	   1.8985074e-01	
   1.0037500e+02	   1.4579588e-01	  -8.0567970e-02	
   1.0043000e+02	   3.8070246e-02	  -1.0875533e-01	
   1.0048500e+02	   1.0239045e-02	   2.1026185e-01	
   1.0054000e+02	  -9.6494431e-02	  -3.7654394e-02	
   1.0059500e+02	  -3.3700400e-01	  -2.9371569e-01	
   1.0065000e+02	   2.2527456e-01	  -2.4855843e-01	
   1.0070500e+02	  -2.7088869e-01	  -9.4082318e-02	
   1.0076000e+02	  -4.6957929e-01	  -4.9178016e-01	
   1.0081500e+02	  -5.4442497e-01	  -4.3769018e-01	
   1.0087000e+02	  -3.1305685e-01	  -4.0070911e-01	
   1.0092500e+02	  -1.5315029e-01	  -3.3054580e-01	
   1.0098000e+02	  -5.5041065e-02	  -2.5081068e-01	
   1.0103500e+02	  -3.2833111e-01	  -1.8745663e-01	
   1.0109000e+02	   1.3060943e-01	   1.0464026e-01	
   1.0114500e+02	   6.0699197e-02	   8.2882339e-02	
   1.0120000e+02	   6.9600522e-02	   9.7820532e-02	
   1.0125500e+02	   4.6192617e-03	  -4.4843105e-02	
   1.0131000e+02	  -1.8383613e-01	  -1.1339066e-01	
   1.0136500e+02	  -1.5356563e-01	  -1.8027084e-01	
   1.0142000e+02	  -3.2376415e-02	  -3.1892357e-01	
   1.0147500e+02	  -2.8098663e-01	  -4.1856211e-01	
   1.0153000e+02	   6.1657719e-02	  -2.4247125e-01	
   1.0158500e+02	  -5.8479990e-01	  -5.7868146e-01	
   1.0164000e+02	  -3.1033961e-01	  -6.0372381e-01	
   1.0169500e+02	  -9.4542101e-01	  -5.6892631e-01	
   1.0175000e+02	  -1.0327696e+00	  -6.4570110e-01	
   1.0180500e+02	  -7.4222920e-01	  -4.4146275e-01	
   1.0186000e+02	  -4.0496502e-01	  -2.6434610e-01	
   1.0191500e+02	  -5.0952830e-01	  -2.5403068e-02	
   1.0197000e+02	  -2.9274281e-01	   3.4019071e-02	
   1.0202500e+02	  -2.2072168e-01	  -4.2336316e-02	
   1.0208000e+02	  -1.9707964e-01	  -9.3458066e-02	
   1.0213500e+02	  -3.5287857e-01	  -3.0876567e-01	
   1.0219000e+02	  -5.5956215e-01	  -3.2539700e-01	
   1.0224500e+02	  -5.7432045e-03	  -1.1418631e-01	
   1.0230000e+02	  -9.8630633e-01	  -4.2373033e-01	
   1.0235500e+02	  -6.1080156e-01	  -4.9772418e-01	
   1.0241000e+02	  -3.2108399e-01	  -4.5705382e-01	
   1.0246500e+02	  -3.8845850e-02	  -2.8339596e-01	
   1.0252000e+02	  -7.5805889e-01	  -4.4517915e-01	
   1.0257500e+02	  -1.0434273e+00	  -8.2622336e-01	
   1.0263000e+02	  -6.6155269e-01	  -6.5824755e-01	
   1.0268500e+02	   1.3105915e-01	  -2.3689402e-01	
   1.0274000e+02	  -2.3966071e-01	  -2.2638594e-01	
   1.0279500e+02	  -3.8168409e-01	  -2.7268025e-01	
   1.0285000e+02	  -9.0091234e-01	  -1.0331123e-01	
   1.0290500e+02	  -6.2169723e-01	  -1.6229786e-01	
   1.0296000e+02	  -2.0580111e-01	  -3.4294282e-01	
   1.0301500e+02	  -4.8857490e-01	  -3.4454187e-01	
   1.0307000e+02	   3.8574816e-02	  -1.4919259e-01	
   1.0312500e+02	  -4.4787861e-01	  -2.5619185e-01	
   1.0318000e+02	  -7.6796520e-01	  -2.6589456e-01	
   1.0323500e+02	  -9.7661302e-01	  -5.1897587e-01	
   1.0329000e+02	  -8.2243236e-01	  -6.2021879e-01	
   1.0334500e+02	  -1.1154126e+00	  -7.3977590e-01	
   1.0340000e+02	  -1.2215754e+00	  -8.3039749e-01	
   1.0345500e+02	  -6.2990322e-01	  -1.0756057e+00	
   1.0351000e+02	  -9.1132856e-01	  -4.1781524e-01	
   1.0356500e+02	  -6.2641012e-01	  -3.1452736e-01	
   1.0362000e+02	  -2.2220157e-01	  -6.6634883e-02	
   1.0367500e+02	  -3.9353577e-01	  -1.6532492e-01	
   1.0373000e+02	  -2.0177636e-01	  -4.4645801e-02	
   1.0378500e+02	  -7.9527025e-03	  -1.5395589e-01	
   1.0384000e+02	  -9.0638770e-01	  -4.2346753e-01	
   1.0389500e+02	  -1.0631541e+00	  -3.8746271e-01	
   1.0395000e+02	  -3.2521929e-01	  -5.5162497e-01	
   1.0400500e+02	  -7.5214675e-01	  -2.6811992e-01	
   1.0406000e+02	  -9.6798800e-01	  -5.9915708e-01	
   1.0411500e+02	  -1.3974502e+00	  -8.0443002e-01	
   1.0417000e+02	  -9.1542278e-01	  -5.5457058e-01	
   1.0422500e+02	  -1.2252355e+00	  -6.9494459e-01	
   1.0428000e+02	  -4.3178011e-01	  -2.9672178e-01	
   1.0433500e+02	  -9.2052136e-01	  -3.7692394e-01	
   1.0439000e+02	  -3.5106606e-01	  -1.4515557e-01	
   1.0444500e+02	  -1.9924617e-01	  -1.6846638e-01	
   1.0450000e+02	  -9.9401890e-01	  -1.0259412e-01	
   1.0455500e+02	  -3.1698932e-01	  -3.0531620e-01	
   1.0461000e+02	  -4.7126246e-01	  -1.1406444e-01	
   1.0466500e+02	  -9.7412937e-01	  -2.3066954e-01	
   1.0472000e+02	  -5.5661709e-01	  -3.5951627e-01	
   1.0477500e+02	  -4.1104154e-01	  -4.2532709e-01	
   1.0483000e+02	  -1.0496320e+00	  -4.0684502e-01	
   1.0488500e+02	  -7.5540685e-01	  -6.8839406e-01	
   1.0494000e+02	  -7.7326068e-01	  -5.1115856e-01	
   1.0499500e+02	  -6.4954858e-01	  -6.6012436e-01	
   1.0505000e+02	  -6.2265526e-02	  -2.9335192e-01	
   1.0510500e+02	  -1.5756703e-01	  -1.0237809e-01	
   1.0516000e+02	   2.7340614e-01	  -6.3972069e-02	
   1.0521500e+02	  -1.4287643e-01	  -7.4137968e-02	
   1.0527000e+02	  -2.3962909e-01	   1.2583670e-02	
   1.0532500e+02	  -1.9045810e-01	   1.1313795e-02	
   1.0538000e+02	  -3.9172425e-02	   8.5019170e-02	
   1.0543500e+02	  -8.5307762e-01	  -1.5624271e-01	
   1.0549000e+02	  -4.6486598e-01	  -1.9320397e-01	
   1.0554500e+02	  -1.1695775e-01	  -2.2927365e-01	
   1.0560000e+02	  -3.6730318e-01	  -2.5287127e-01	
   1.0565500e+02	  -6.3317408e-01	  -3.9831920e-01	
   1.0571000e+02	  -9.5761038e-01	  -5.4945537e-01	
   1.0576500e+02	  -2.5594565e-01	  -1.9304437e-02	
   1.0582000e+02	  -3.2648611e-01	   2.7307853e-02	
   1.0587500e+02	  -6.3816689e-01	   6.0842019e-02	
   1.0593000e+02	  -2.8707426e-01	   1.9155752e-01	
   1.0598500e+02	   3.9725864e-02	   2.0095360e-01	
   1.0604000e+02	  -3.6276880e-01	   2.3219578e-01	
   1.0609500e+02	  -2.9120460e-01	   5.2705283e-02	
   1.0615000e+02	  -3.1549529e-01	   1.2218290e-01	
   1.0620500e+02	  -1.0292021e-01	   2.3351728e-01	
   1.0626000e+02	   2.2426826e-03	   1.3270995e-01	
   1.0631500e+02	  -3.9731615e-01	  -3.5614386e-01	
   1.0637000e+02	  -2.5912837e-01	  -5.2205530e-02	
   1.0642500e+02	  -2.1104489e-01	  -1.3566245e-01	
   1.0648000e+02	  -2.6557354e-01	  -1.0097235e-01	
   1.0653500e+02	  -3.4260791e-01	   1.6201849e-02	
   1.0659000e+02	  -1.4015639e-01	   3.1332068e-01	
   1.0664500e+02	   3.2489190e-01	   5.6376670e-01	
   1.0670000e+02	   3.9017305e-02	   2.8643012e-01	
   1.0675500e+02	   1.5736212e-01	   2.6570547e-01	
   1.0681000e+02	   1.8901710e-01	   3.1375982e-01	
   1.0686500e+02	  -2.8184078e-01	   3.2899919e-01	
   1.0692000e+02	  -7.0398688e-02	   2.3280797e-01	
   1.0697500e+02	  -2.7984524e-01	   6.3120487e-02	
   1.0703000e+02	   1.9352414e-02	   3.0549500e-01	
   1.0708500e+02	   7.4802426e-01	   2.0941563e-01	
   1.0714000e+02	   7.7732154e-02	  -3.3674837e-02	
   1.0719500e+02	   1.3424859e-01	   7.6738024e-03	
   1.0725000e+02	  -2.5145707e-01	   1.6974713e-01	
   1.0730500e+02	  -7.1499288e-02	   4.2887282e-01	
   1.0736000e+02	   6.1317547e-01	   4.9543497e-01	
   1.0741500e+02	   2.8450927e-01	   5.0572919e-01	
   1.0747000e+02	   3.7001699e-01	   4.0098747e-01	
   1.0752500e+02	   8.5981567e-01	   4.6368873e-01	
   1.0758000e+02	  -1.9777767e-02	   3.7871502e-01	
   1.0763500e+02	  -1.2828806e-01	   2.9188345e-01	
   1.0769000e+02	  -2.8101677e-01	   2.7621857e-01	
   1.0774500e+02	   1.5420061e-01	   1.9836914e-01	
   1.0780000e+02	   4.3098872e-01	   1.8186864e-01	
   1.0785500e+02	  -3.7094969e-01	  -5.3438037e-05	
   1.0791000e+02	   2.5771510e-01	   1.4078333e-01	
   1.0796500e+02	   1.3287342e-01	   5.0718752e-01	
   1.0802000e+02	   3.4590664e-01	   5.9200502e-01	
   1.0807500e+02	   6.4877847e-02	   6.2623155e-01	
   1.0813000e+02	  -4.2971178e-02	   4.1409196e-01	
   1.0818500e+02	   1.9701199e-01	   6.0237207e-01	
   1.0824000e+02	   9.7011626e-02	   6.5722113e-01	
   1.0829500e+02	  -1.2682291e-02	   1.5562678e-01	
   1.0835000e+02	  -1.0552052e-01	   2.9127929e-01	
   1.0840500e+02	   3.5825029e-02	   4.9320686e-01	
   1.0846000e+02	   3.3022770e-01	   2.9390022e-01	
   1.0851500e+02	  -3.6110927e-02	   3.3378741e-02	
   1.0857000e+02	  -1.6064895e-01	  -9.7471195e-02	
   1.0862500e+02	  -2.4308845e-01	   6.7795540e-02	
   1.0868000e+02	   2.7843132e-01	   1.9029500e-01	
   1.0873500e+02	   4.7916214e-01	   4.1891044e-01	
   1.0879000e+02	   3.6983848e-01	   6.2099499e-01	
   1.0884500e+02	   6.2830933e-01	   8.4685872e-01	
   1.0890000e+02	   3.7554959e-01	   5.4501030e-01	
   1.0895500e+02	   5.7725734e-01	   7.8101330e-01	
   1.0901000e+02	   4.9168209e-01	   6.4840615e-01	
   1.0906500e+02	   5.0831784e-01	   6.3424645e-01	
   1.0912000e+02	   2.9349853e-01	   5.7587507e-01	
   1.0917500e+02	   2.1222823e-01	   3.2598008e-01	
   1.0923000e+02	   1.5121491e-02	   1.9635954e-01	
   1.0928500e+02	   5.4709492e-01	   4.9826527e-01	
   1.0934000e+02	   3.3858890e-01	   2.1159849e-01	
   1.0939500e+02	  -2.6202683e-01	  -5.2399948e-02	
   1.0945000e+02	  -3.1709322e-01	  -1.6806479e-01	
   1.0950500e+02	  -2.0015434e-01	   1.4940188e-01	
   1.0956000e+02	  -2.6781310e-01	  -1.5678419e-02	
   1.0961500e+02	   3.9665099e-01	   3.7029995e-01	
   1.0967000e+02	   5.7665751e-02	   5.4310150e-01	
   1.0972500e+02	   1.7018737e-01	   6.0405693e-01	
   1.0978000e+02	   4.3739047e-01	   7.2455695e-01	
   1.0983500e+02	   5.4464314e-01	   4.1849960e-01	
   1.0989000e+02	   3.9646191e-01	   6.7712092e-01	
   1.0994500e+02	   5.2173798e-01	   5.9164747e-01	
   1.1000000e+02	  -1.5814540e-01	   6.5059927e-01	
   1.1005500e+02	  -1.2382410e-01	   6.1366822e-01	
   1.1011000e+02	  -1.2976712e-01	   3.1168443e-01	
   1.1016500e+02	  -9.0303654e-02	   4.4674558e-01	
   1.1022000e+02	   3.6995345e-01	   3.6397118e-01	
   1.1027500e+02	  -2.7192292e-02	   7.2049863e-02	
   1.1033000e+02	  -3.4459699e-01	   2.2990137e-04	
   1.1038500e+02	  -1.3150765e-01	   1.1671707e-01	
   1.1044000e+02	   5.1929372e-01	   4.4187911e-01	
   1.1049500e+02	   2.0219470e-01	   4.4819260e-01	
   1.1055000e+02	   4.0966053e-01	   5.1259006e-01	
   1.1060500e+02	  -2.1213395e-01	   2.8511354e-01	
   1.1066000e+02	   2.8857212e-01	   4.8341108e-01	
   1.1071500e+02	   4.4081844e-01	   3.4890602e-01	
   1.1077000e+02	   5.1728268e-01	   4.1359089e-01	
   1.1082500e+02	  -1.7464532e-01	   3.9172050e-01	
   1.1088000e+02	   3.0375163e-01	   3.2944198e-01	
   1.1093500e+02	  -1.7404636e-01	   2.3554831e-01	
   1.1099000e+02	  -1.7503005e-01	   1.5808164e-01	
   1.1104500e+02	  -4.8878944e-02	   1.4882209e-01	
   1.1110000e+02	  -3.6624712e-01	  -9.2539848e-03	
   1.1115500e+02	   2.5064616e-01	   1.1242858e-01	
   1.1121000e+02	   8.6635184e-02	   3.8007920e-01	
   1.1126500e+02	   3.2149831e-02	   5.0421401e-01	
   1.1132000e+02	   7.1910485e-01	   6.1224279e-01	
   1.1137500e+02	   6.5486683e-01	   3.9050577e-01	
   1.1143000e+02	  -2.1691029e-03	   4.6509764e-01	
   1.1148500e+02	   1.0327957e-01	   5.5319936e-01	
   1.1154000e+02	   5.1450023e-01	   3.7218323e-01	
   1.1159500e+02	   3.0376784e-01	   1.2886502e-01	
   1.1165000e+02	  -4.2417443e-01	   1.8923113e-01	
   1.1170500e+02	   3.4496685e-01	  -9.6675922e-03	
   1.1176000e+02	  -2.4300711e-01	   1.0499461e-01	
   1.1181500e+02	  -5.8937093e-01	  -2.1498396e-01	
   1.1187000e+02	   2.9526236e-01	  -1.2797872e-01	
   1.1192500e+02	  -2.2614947e-01	  -2.2286439e-01	
   1.1198000e+02	  -2.1995393e-02	  -2.1980228e-02	
   1.1203500e+02	   5.9273102e-01	   1.0717374e-01	
   1.1209000e+02	   1.4722021e-01	   2.7266160e-01	
   1.1214500e+02	   3.3871332e-01	   3.8781594e-01	
   1.1220000e+02	   8.6377957e-01	   4.3070197e-01	
   1.1225500e+02	  -4.0422097e-02	   3.0761353e-01	
   1.1231000e+02	   1.9989905e-01	   2.6514737e-01	
   1.1236500e+02	   4.1167361e-01	   3.5993408e-01	
   1.1242000e+02	  -1.6265683e-01	   2.8623638e-01	
   1.1247500e+02	   4.7444362e-02	   1.6409460e-01	
   1.1253000e+02	  -1.8736122e-01	   4.1785100e-02	
   1.1258500e+02	   5.7838302e-01	   3.7861753e-02	
   1.1264000e+02	  -3.1550546e-01	  -4.6836465e-02	
   1.1269500e+02	  -3.9113323e-01	  -1.0619818e-01	
   1.1275000e+02	  -9.2467474e-01	  -2.7626561e-01	
   1.1280500e+02	  -2.4224299e-01	  -2.2675392e-01	
   1.1286000e+02	  -5.2520059e-03	  -1.6191266e-01	
   1.1291500e+02	  -1.5663383e-01	   1.2632981e-01	
   1.1297000e+02	   6.7726188e-02	   1.5205459e-01	
   1.1302500e+02	   2.9550469e-01	   1.6122388e-01	
   1.1308000e+02	   5.0005213e-01	   4.4398979e-01	
   1.1313500e+02	   2.6046473e-01	   2.9439133e-01	
   1.1319000e+02	   1.4416957e-01	   2.0189174e-01	
   1.1324500e+02	  -8.5694853e-04	   3.0604640e-01	
   1.1330000e+02	   2.0971510e-01	   4.2089479e-01	
   1.1335500e+02	  -1.4778590e-01	  -1.0350563e-01	
   1.1341000e+02	  -3.3689388e-01	  -1.1933778e-01	
   1.1346500e+02	  -1.9269450e-01	  -1.0242374e-01	
   1.1352000e+02	  -6.7933896e-02	  -4.3573862e-02	
   1.1357500e+02	  -5.3138456e-01	  -4.7736674e-01	
   1.1363000e+02	  -9.7261268e-02	  -2.6878979e-01	
   1.1368500e+02	   4.4137917e-01	   1.7775697e-01	
   1.1374000e+02	  -4.9896077e-03	   2.5880943e-01	
   1.1379500e+02	  -1.8731024e-02	   2.0348010e-01	
   1.1385000e+02	  -1.0409610e-01	   1.0852631e-01	
   1.1390500e+02	   2.5146833e-01	   2.3392248e-01	
   1.1396000e+02	   4.0699015e-01	   1.2207452e-01	
   1.1401500e+02	  -1.4030047e-01	   1.2264314e-01	
   1.1407000e+02	   2.2436187e-01	  -1.3261377e-01	
   1.1412500e+02	  -1.5248269e-01	  -3.2551665e-02	
   1.1418000e+02	  -3.6132650e-02	  -1.3377689e-01	
   1.1423500e+02	  -9.7256452e-02	  -2.9806477e-01	
   1.1429000e+02	  -3.1866651e-01	  -2.7674099e-01	
   1.1434500e+02	   2.6556950e-01	   1.1976246e-02	
   1.1440000e+02	  -1.4221395e-01	   5.0581507e-02	
   1.1445500e+02	  -2.9182935e-02	   2.4031745e-01	
   1.1451000e+02	   3.7926784e-02	  -7.1727184e-02	
   1.1456500e+02	   5.2460656e-01	   2.4102072e-01	
   1.1462000e+02	   3.4351816e-01	   1.9990050e-01	
   1.1467500e+02	   6.0152303e-02	   3.4984133e-01	
   1.1473000e+02	  -5.6126075e-01	  -3.7416742e-02	
   1.1478500e+02	   2.5555532e-01	  -3.9070189e-02	
   1.1484000e+02	  -2.5279125e-01	   1.3725029e-02	
   1.1489500e+02	  -1.9950229e-01	  -1.0962677e-01	
   1.1495000e+02	  -6.2944367e-01	  -2.7420283e-01	
   1.1500500e+02	  -3.3026077e-01	  -2.4221618e-01	
   1.1506000e+02	  -4.1606540e-01	  -9.7594898e-02	
   1.1511500e+02	  -2.0360742e-01	   1.2519132e-01	
   1.1517000e+02	  -8.9495513e-02	   1.8433291e-01	
   1.1522500e+02	  -6.8223906e-02	   4.9543650e-01	
   1.1528000e+02	   2.6218460e-01	   1.8784937e-01	
   1.1533500e+02	   5.5387323e-02	   3.1054288e-01	
   1.1539000e+02	  -2.7348652e-02	   3.1046703e-01	
   1.1544500e+02	  -5.0833523e-01	   3.6557380e-01	
   1.1550000e+02	   1.9412614e-01	   9.6426233e-02	
   1.1555500e+02	   2.1459951e-02	  -4.1207877e-02	
   1.1561000e+02	  -3.8414631e-01	  -1.6394257e-01	
   1.1566500e+02	   7.0546640e-02	  -2.3401134e-01	
   1.1572000e+02	   1.5747947e-02	  -9.2649702e-02	
   1.1577500e+02	  -4.7301438e-01	  -2.5208308e-01	
   1.1583000e+02	  -2.3109621e-01	  -2.4470284e-01	
   1.1588500e+02	  -3.1935112e-02	   8.0481964e-02	
   1.1594000e+02	  -5.6263078e-02	   3.3776128e-01	
   1.1599500e+02	   2.7965872e-01	   1.5802154e-01	
   1.1605000e+02	  -3.9601669e-01	   1.9718586e-01	
   1.1610500e+02	   3.9458370e-01	   4.2613554e-01	
   1.1616000e+02	   3.3958949e-01	   3.0984659e-01	
   1.1621500e+02	   3.2246588e-01	   2.8523143e-01	
   1.1627000e+02	  -4.0706498e-01	   2.7111971e-01	
   1.1632500e+02	  -2.2770585e-01	   2.2778041e-01	
   1.1638000e+02	   4.4939811e-01	   1.5808164e-01	
   1.1643500e+02	  -2.9709884e-01	  -1.1337132e-01	
   1.1649000e+02	  -8.4856758e-01	  -2.1341490e-02	
   1.1654500e+02	  -3.8871330e-01	   4.1346419e-02	
   1.1660000e+02	  -3.6241017e-02	   2.2315150e-02	
   1.1665500e+02	   8.6325980e-02	  -1.3784947e-01	
   1.1671000e+02	  -8.6135386e-02	   7.5034352e-02	
   1.1676500e+02	   1.8216982e-02	   4.0569603e-01	
   1.1682000e+02	   4.7613979e-02	   4.5885442e-01	
   1.1687500e+02	   5.9000642e-01	   3.5200153e-01	
   1.1693000e+02	   1.7064300e-01	   3.8637254e-01	
   1.1698500e+02	   1.2516326e-01	   5.0953893e-01	
   1.1704000e+02	  -2.3049996e-01	   1.9958764e-01	
   1.1709500e+02	   5.0192102e-01	   6.9636917e-03	
   1.1715000e+02	  -9.5407679e-02	  -2.7200658e-02	
   1.1720500e+02	   1.5983771e-01	  -1.3758788e-01	
   1.1726000e+02	  -1.3507419e-01	  -1.1743885e-01	
   1.1731500e+02	   2.1255393e-01	  -9.2602846e-02	
   1.1737000e+02	  -4.9060012e-01	  -3.2776017e-01	
   1.1742500e+02	  -2.2291437e-01	   1.2421234e-01	
   1.1748000e+02	   3.0380814e-01	   1.3084409e-01	
   1.1753500e+02	   2.8809078e-01	   1.2058251e-01	
   1.1759000e+02	  -2.9690130e-01	   5.0427160e-02	
   1.1764500e+02	   2.2690287e-01	   2.4980042e-01	
   1.1770000e+02	   2.0909178e-01	   3.2603310e-01	
   1.1775500e+02	   2.0044585e-01	   6.8373218e-02	
   1.1781000e+02	  -4.7614279e-01	  -3.6392942e-02	
   1.1786500e+02	  -1.6366801e-01	   8.8189658e-02	
   1.1792000e+02	  -2.4996787e-02	  -4.1455144e-03	
   1.1797500e+02	  -1.0714046e-01	  -6.8956318e-03	
   1.1803000e+02	  -9.3547979e-02	  -3.8968850e-01	
   1.1808500e+02	  -3.5157829e-01	  -1.9648458e-01	
   1.1814000e+02	   1.5306059e-01	  -6.7685731e-02	
   1.1819500e+02	   4.7365660e-01	   1.0565625e-01	
   1.1825000e+02	   1.9255374e-01	   1.9304428e-01	
   1.1830500e+02	   6.8165008e-01	   3.3833859e-01	
   1.1836000e+02	   4.6628974e-01	   1.9511637e-01	
   1.1841500e+02	  -1.3188462e-01	   2.1502728e-01	
   1.1847000e+02	   4.8756792e-01	   2.4500090e-01	
   1.1852500e+02	   2.0812605e-01	   1.0683701e-01	
   1.1858000e+02	   4.7536899e-01	   3.3875480e-02	
   1.1863500e+02	  -2.3478847e-01	   3.7024189e-03	
   1.1869000e+02	  -3.1308374e-01	  -2.3628956e-01	
   1.1874500e+02	   8.0223915e-01	  -1.4835114e-01	
   1.1880000e+02	  -8.9422022e-02	  -9.0410243e-02	
   1.1885500e+02	   3.2110651e-02	   2.0595129e-02	
   1.1891000e+02	  -2.6806206e-01	  -9.8978969e-02	
   1.1896500e+02	   4.1598575e-01	   2.2132982e-01	
   1.1902000e+02	   1.0287180e-02	   1.6822638e-01	
   1.1907500e+02	  -9.7141902e-02	   1.8215146e-01	
   1.1913000e+02	   4.5449026e-01	   8.5162108e-02	
   1.1918500e+02	  -1.2091027e-01	   2.0344984e-01	
   1.1924000e+02	   4.0818995e-01	   4.9672609e-01	
   1.1929500e+02	  -1.5823910e-01	   1.3182559e-01	
   1.1935000e+02	   7.7158855e-02	  -6.7376913e-03	
   1.1940500e+02	   6.5085767e-02	   9.9368367e-02	
   1.1946000e+02	   2.4793386e-01	  -1.3330372e-01	
   1.1951500e+02	  -5.5399912e-01	  -6.9109885e-02	
   1.1957000e+02	  -3.1664043e-01	  -4.1366716e-01	
   1.1962500e+02	  -4.3946860e-01	  -2.3454610e-01	
   1.1968000e+02	   3.5441023e-01	   2.7085885e-01	
   1.1973500e+02	   3.9436879e-01	   2.7770614e-01	
   1.1979000e+02	   1.7069848e-01	   1.6889970e-01	
   1.1984500e+02	  -1.1718868e-02	   2.7322496e-01	
   1.1990000e+02	   2.1966251e-01	   4.1742154e-01	
   1.1995500e+02	   1.7063976e-01	   1.5029300e-01	
   1.2001000e+02	  -1.6042101e-01	   1.8931773e-01	
   1.2006500e+02	  -5.1063089e-01	   1.4154726e-01	
   1.2012000e+02	   2.8696410e-01	   4.6348201e-02	
   1.2017500e+02	  -3.0011182e-01	  -1.5765384e-01	
   1.2023000e+02	   2.2911109e-01	  -1.6149021e-01	
   1.2028500e+02	   2.0695971e-01	  -1.6153902e-01	
   1.2034000e+02	  -3.0315558e-01	  -1.3992819e-01	
   1.2039500e+02	  -3.1800991e-01	  -4.8382819e-01	
   1.2045000e+02	  -9.2088286e-01	  -5.1754072e-01	
   1.2050500e+02	  -9.1412125e-01	  -2.7640145e-01	
   1.2056000e+02	   3.4006497e-01	   9.4217663e-02	
   1.2061500e+02	  -1.6488223e-01	  -2.2242192e-02	
   1.2067000e+02	   3.4673264e-01	   1.4475622e-01	
   1.2072500e+02	   2.7677399e-01	   3.5270952e-01	
   1.2078000e+02	   3.7604454e-01	   3.1273585e-01	
   1.2083500e+02	   2.1338448e-01	   1.8931019e-01	
   1.2089000e+02	  -2.8482884e-01	  -6.1944972e-02	
   1.2094500e+02	   1.4827714e-01	   2.2559504e-02	
   1.2100000e+02	   8.7812561e-02	   1.0807742e-01	
   1.2105500e+02	  -2.1524371e-02	  -1.0887366e-01	
   1.2111000e+02	  -5.2199778e-01	  -8.3472395e-02	
   1.2116500e+02	  -3.5640238e-02	  -3.5461935e-01	
   1.2122000e+02	  -1.2977835e-01	  -3.0645701e-01	
   1.2127500e+02	  -1.8643815e-01	  -4.3182685e-01	
   1.2133000e+02	  -6.1680142e-01	  -2.7893338e-01	
   1.2138500e+02	  -1.2990483e-01	   3.0512606e-02	
   1.2144000e+02	  -1.1462304e-01	   1.7609203e-01	
   1.2149500e+02	   7.9552114e-01	   4.9655717e-02	
   1.2155000e+02	  -5.8265708e-01	  -1.9588262e-01	
   1.2160500e+02	   1.0383643e-01	   1.2174545e-02	
   1.2166000e+02	  -4.5248631e-01	   3.1996518e-02	
   1.2171500e+02	   2.9830807e-01	   9.7010854e-03	
   1.2177000e+02	  -2.1259262e-01	  -2.0188781e-01	
   1.2182500e+02	  -5.1951413e-01	  -3.0411602e-01	
   1.2188000e+02	  -4.8972728e-01	  -1.8764085e-01	
   1.2193500e+02	  -1.1364059e-01	  -3.9844530e-01	
   1.2199000e+02	  -7.1301372e-01	  -5.1465184e-01	
   1.2204500e+02	  -8.1153126e-01	  -3.1901486e-01	
   1.2210000e+02	   1.5745057e-02	   6.2667331e-02	
   1.2215500e+02	   1.7204280e-01	  -5.4647803e-02	
   1.2221000e+02	  -7.0035826e-01	  -3.2426241e-02	
   1.2226500e+02	  -4.1188122e-01	  -1.1140203e-01	
   1.2232000e+02	  -5.0357404e-01	  -4.5937000e-02	
   1.2237500e+02	  -2.5979062e-01	  -1.4535131e-01	
   1.2243000e+02	  -4.3838795e-01	  -4.0980942e-02	
   1.2248500e+02	  -1.7697695e-01	  -2.4996612e-01	
   1.2254000e+02	  -5.0977726e-01	  -1.9417546e-01	
   1.2259500e+02	  -5.1813956e-01	  -4.3937152e-01	
   1.2265000e+02	  -4.7064282e-01	  -4.0244115e-01	
   1.2270500e+02	  -6.1511668e-01	  -7.0215754e-01	
   1.2276000e+02	  -5.9505008e-01	  -3.1296622e-01	
   1.2281500e+02	  -1.6204306e-01	  -4.0144654e-02	
   1.2287000e+02	  -4.3228050e-01	  -2.5400558e-03	
   1.2292500e+02	  -1.1531725e-01	  -2.5231055e-02	
   1.2298000e+02	  -2.2815891e-01	   1.4770550e-01	
   1.2303500e+02	  -5.0910654e-02	   1.8529586e-01	
   1.2309000e+02	  -5.6265452e-01	  -1.1882037e-01	
   1.2314500e+02	  -7.0685408e-01	   3.5517641e-02	
   1.2320000e+02	  -5.7042531e-01	   7.3105367e-02	
   1.2325500e+02	  -2.7373969e-01	  -4.8015941e-02	
   1.2331000e+02	  -7.4693059e-01	  -2.2725958e-01	
   1.2336500e+02	  -6.2255043e-01	  -3.2583350e-01	
   1.2342000e+02	  -6.9273977e-01	  -6.2538691e-03	
   1.2347500e+02	  -9.5239497e-01	  -4.2600807e-01	
   1.2353000e+02	  -1.1721828e+00	  -3.9607970e-01	
   1.2358500e+02	  -6.0621054e-01	   5.9743679e-02	
   1.2364000e+02	  -8.7294473e-02	   1.4005638e-01	
   1.2369500e+02	  -5.9118780e-02	   3.3124314e-01	
   1.2375000e+02	  -5.7145729e-01	   2.4672129e-01	
   1.2380500e+02	  -6.4032565e-01	   2.0807154e-01	
   1.2386000e+02	  -1.8937153e-01	   3.1452114e-01	
   1.2391500e+02	  -1.4501231e-01	   1.1509570e-01	
   1.2397000e+02	  -6.0808083e-01	   4.3039802e-02	
   1.2402500e+02	  -8.3143174e-01	   1.1581838e-01	
   1.2408000e+02	   9.0533355e-03	  -1.5865134e-01	
   1.2413500e+02	  -5.0464871e-01	   1.1009313e-01	
   1.2419000e+02	  -6.5323010e-01	  -2.5660865e-01	
   1.2424500e+02	  -6.7306340e-01	  -2.4424676e-01	
   1.2430000e+02	  -3.0739200e-01	  -1.1861784e-02	
   1.2435500e+02	  -1.9140309e-01	   7.1334132e-02	
   1.2441000e+02	  -3.1967757e-01	   1.3264864e-01	
   1.2446500e+02	  -4.4672512e-01	   2.2206234e-01	
   1.2452000e+02	  -3.9425256e-01	   4.5249012e-01	
   1.2457500e+02	   2.2447248e-01	   4.0187314e-01	
   1.2463000e+02	  -2.0051515e-01	   2.1059718e-01	
   1.2468500e+02	  -2.9477648e-01	   2.2786435e-01	
   1.2474000e+02	  -5.1809370e-01	   2.2747366e-01	
   1.2479500e+02	  -5.4228606e-01	   7.1662384e-02	
   1.2485000e+02	  -7.3832403e-01	  -3.9503169e-02	
   1.2490500e+02	  -6.3917580e-01	  -1.3794681e-01	
   1.2496000e+02	  -7.3298617e-02	  -2.0397299e-01	
   1.2501500e+02	  -1.6620867e-01	   2.1501937e-01	
   1.2507000e+02	  -4.5113138e-01	   1.9908360e-01	
   1.2512500e+02	  -4.7210618e-01	   3.4526650e-01	
   1.2518000e+02	  -2.0766650e-01	   3.1501242e-01	
   1.2523500e+02	  -3.3843714e-01	   4.6742623e-01	
   1.2529000e+02	  -7.4365273e-01	   2.4512610e-01	
   1.2534500e+02	  -7.1957976e-01	   2.5834023e-01	
   1.2540000e+02	  -4.2273725e-01	   3.0211640e-01	
   1.2545500e+02	  -4.0033699e-01	   7.5017186e-02	
   1.2551000e+02	  -4.3624625e-01	  -6.1363234e-02	
   1.2556500e+02	  -8.5201223e-01	  -6.7462874e-02	
   1.2562000e+02	  -2.9038151e-01	   1.4115726e-01	
   1.2567500e+02	  -4.5679792e-01	   2.5716665e-01	
   1.2573000e+02	  -3.3340847e-03	   2.8743303e-01	
   1.2578500e+02	  -5.1484828e-01	   1.9780917e-01	
   1.2584000e+02	  -2.4873106e-02	   3.6500861e-01	
   1.2589500e+02	  -3.6370867e-01	   5.4350378e-01	
   1.2595000e+02	  -2.5733180e-01	   3.8768020e-01	
   1.2600500e+02	  -5.1122649e-01	   4.3966341e-01	
   1.2606000e+02	   1.4614569e-01	   4.1187105e-01	
   1.2611500e+02	   5.0537014e-01	   4.0464236e-01	
   1.2617000e+02	  -4.8942673e-01	   5.5719281e-02	
   1.2622500e+02	  -5.0251532e-01	   2.7642218e-01	
   1.2628000e+02	  -1.2826605e-01	  -1.5573522e-01	
   1.2633500e+02	  -1.0093050e-01	  -1.2432394e-01	
   1.2639000e+02	  -4.6031406e-01	   2.7919667e-01	
   1.2644500e+02	  -5.4428792e-01	   3.7078652e-01	
   1.2650000e+02	   2.3816065e-02	   5.9718457e-01	
   1.2655500e+02	   7.6710001e-01	   6.7672968e-01	
   1.2661000e+02	  -3.7628612e-02	   4.5247184e-01	
   1.2666500e+02	  -5.5782180e-01	   5.0589091e-01	
   1.2672000e+02	   5.9490222e-01	   4.8746664e-01	
   1.2677500e+02	   2.4543539e-01	   4.9271120e-01	
   1.2683000e+02	   5.7650152e-02	   3.5256679e-01	
