	
   0.0000000e+00	  -2.4690259e-01	   5.1653915e-02	   5.0436191e-02	
   5.5000000e-02	  -2.6884900e-01	   4.4209162e-02	   1.2413261e-02	
   1.1000000e-01	  -2.8921334e-01	   3.8247542e-02	  -2.4663664e-02	
   1.6500000e-01	  -3.0778699e-01	   3.3806215e-02	  -6.0203812e-02	
   2.2000000e-01	  -3.2439294e-01	   3.0903936e-02	  -9.3669709e-02	
   2.7500000e-01	  -3.3888959e-01	   2.9541456e-02	  -1.2459676e-01	
   3.3000000e-01	  -3.5117694e-01	   2.9698866e-02	  -1.5260797e-01	
   3.8500000e-01	  -3.6120344e-01	   3.1331523e-02	  -1.7742349e-01	
   4.4000000e-01	  -3.6897141e-01	   3.4366493e-02	  -1.9886513e-01	
   4.9500000e-01	  -3.7453899e-01	   3.8700966e-02	  -2.1685523e-01	
   5.5000000e-01	  -3.7801552e-01	   4.4203656e-02	  -2.3141003e-01	
   6.0500000e-01	  -3.7954944e-01	   5.0719856e-02	  -2.4262842e-01	
   6.6000000e-01	  -3.7931098e-01	   5.8079964e-02	  -2.5067741e-01	
   7.1500000e-01	  -3.7747461e-01	   6.6109801e-02	  -2.5577570e-01	
   7.7000000e-01	  -3.7420521e-01	   7.4640364e-02	  -2.5817668e-01	
   8.2500000e-01	  -3.6964962e-01	   8.3515431e-02	  -2.5815340e-01	
   8.8000000e-01	  -3.6393455e-01	   9.2596505e-02	  -2.5598713e-01	
   9.3500000e-01	  -3.5717046e-01	   1.0176480e-01	  -2.5196022e-01	
   9.9000000e-01	  -3.4945921e-01	   1.1092021e-01	  -2.4635252e-01	
   1.0450000e+00	  -3.4090211e-01	   1.1997820e-01	  -2.3944045e-01	
   1.1000000e+00	  -3.3160692e-01	   1.2886621e-01	  -2.3149703e-01	
   1.1550000e+00	  -3.2169305e-01	   1.3752042e-01	  -2.2279065e-01	
   1.2100000e+00	  -3.1129355e-01	   1.4588358e-01	  -2.1358114e-01	
   1.2650000e+00	  -3.0055146e-01	   1.5390476e-01	  -2.0411301e-01	
   1.3200000e+00	  -2.8961102e-01	   1.6154175e-01	  -1.9460650e-01	
   1.3750000e+00	  -2.7860878e-01	   1.6876520e-01	  -1.8524781e-01	
   1.4300000e+00	  -2.6766887e-01	   1.7556278e-01	  -1.7618069e-01	
   1.4850000e+00	  -2.5690210e-01	   1.8194197e-01	  -1.6750171e-01	
   1.5400000e+00	  -2.4640509e-01	   1.8793110e-01	  -1.5926065e-01	
   1.5950000e+00	  -2.3625792e-01	   1.9357776e-01	  -1.5146605e-01	
   1.6500000e+00	  -2.2652190e-01	   1.9894407e-01	  -1.4409523e-01	
   1.7050000e+00	  -2.1724060e-01	   2.0409960e-01	  -1.3710677e-01	
   1.7600000e+00	  -2.0844517e-01	   2.0911309e-01	  -1.3045390e-01	
   1.8150000e+00	  -2.0016206e-01	   2.1404422e-01	  -1.2409677e-01	
   1.8700000e+00	  -1.9241992e-01	   2.1893621e-01	  -1.1801159e-01	
   1.9250000e+00	  -1.8525351e-01	   2.2381111e-01	  -1.1219524e-01	
   1.9800000e+00	  -1.7870374e-01	   2.2867001e-01	  -1.0666347e-01	
   2.0350000e+00	  -1.7281337e-01	   2.3349890e-01	  -1.0144282e-01	
   2.0900000e+00	  -1.6761892e-01	   2.3827840e-01	  -9.6558472e-02	
   2.1450000e+00	  -1.6314095e-01	   2.4299444e-01	  -9.2022560e-02	
   2.2000000e+00	  -1.5937683e-01	   2.4764664e-01	  -8.7826185e-02	
   2.2550000e+00	  -1.5629864e-01	   2.5225231e-01	  -8.3936166e-02	
   2.3100000e+00	  -1.5385575e-01	   2.5684554e-01	  -8.0296311e-02	
   2.3650000e+00	  -1.5198039e-01	   2.6147231e-01	  -7.6832637e-02	
   2.4200000e+00	  -1.5059505e-01	   2.6618305e-01	  -7.3461551e-02	
   2.4750000e+00	  -1.4961989e-01	   2.7102331e-01	  -7.0099415e-02	
   2.5300000e+00	  -1.4897863e-01	   2.7602389e-01	  -6.6672503e-02	
   2.5850000e+00	  -1.4860321e-01	   2.8119196e-01	  -6.3127220e-02	
   2.6400000e+00	  -1.4843789e-01	   2.8650447e-01	  -5.9439918e-02	
   2.6950000e+00	  -1.4844107e-01	   2.9190519e-01	  -5.5623441e-02	
   2.7500000e+00	  -1.4858082e-01	   2.9730697e-01	  -5.1727001e-02	
   2.8050000e+00	  -1.4882294e-01	   3.0260040e-01	  -4.7828846e-02	
   2.8600000e+00	  -1.4911593e-01	   3.0766763e-01	  -4.4024439e-02	
   2.9150000e+00	  -1.4937937e-01	   3.1239783e-01	  -4.0413123e-02	
   2.9700000e+00	  -1.4949931e-01	   3.1670017e-01	  -3.7085338e-02	
   3.0250000e+00	  -1.4933120e-01	   3.2051245e-01	  -3.4112556e-02	
   3.0800000e+00	  -1.4871028e-01	   3.2380462e-01	  -3.1541754e-02	
   3.1350000e+00	  -1.4746849e-01	   3.2657733e-01	  -2.9394421e-02	
   3.1900000e+00	  -1.4545531e-01	   3.2885601e-01	  -2.7668978e-02	
   3.2450000e+00	  -1.4255922e-01	   3.3068176e-01	  -2.6346063e-02	
   3.3000000e+00	  -1.3872685e-01	   3.3210085e-01	  -2.5396175e-02	
   3.3550000e+00	  -1.3397647e-01	   3.3315378e-01	  -2.4788018e-02	
   3.4100000e+00	  -1.2840169e-01	   3.3386512e-01	  -2.4495801e-02	
   3.4650000e+00	  -1.2216304e-01	   3.3423610e-01	  -2.4504481e-02	
   3.5200000e+00	  -1.1546938e-01	   3.3424194e-01	  -2.4811745e-02	
   3.5750000e+00	  -1.0855389e-01	   3.3383478e-01	  -2.5425113e-02	
   3.6300000e+00	  -1.0164862e-01	   3.3295181e-01	  -2.6354363e-02	
   3.6850000e+00	  -9.4961541e-02	   3.3152668e-01	  -2.7602064e-02	
   3.7400000e+00	  -8.8660071e-02	   3.2950153e-01	  -2.9155503e-02	
   3.7950000e+00	  -8.2863466e-02	   3.2683669e-01	  -3.0981977e-02	
   3.8500000e+00	  -7.7643456e-02	   3.2351709e-01	  -3.3028259e-02	
   3.9050000e+00	  -7.3030666e-02	   3.1955509e-01	  -3.5224460e-02	
   3.9600000e+00	  -6.9024646e-02	   3.1498982e-01	  -3.7491526e-02	
   4.0150000e+00	  -6.5606128e-02	   3.0988319e-01	  -3.9750465e-02	
   4.0700000e+00	  -6.2750229e-02	   3.0431376e-01	  -4.1931202e-02	
   4.1250000e+00	  -6.0438756e-02	   2.9837000e-01	  -4.3979617e-02	
   4.1800000e+00	  -5.8669047e-02	   2.9214409e-01	  -4.5861865e-02	
   4.2350000e+00	  -5.7456876e-02	   2.8572685e-01	  -4.7565292e-02	
   4.2900000e+00	  -5.6831963e-02	   2.7920515e-01	  -4.9095803e-02	
   4.3450000e+00	  -5.6826323e-02	   2.7266253e-01	  -5.0472224e-02	
   4.4000000e+00	  -5.7458640e-02	   2.6618209e-01	  -5.1718657e-02	
   4.4550000e+00	  -5.8720333e-02	   2.5984905e-01	  -5.2855973e-02	
   4.5100000e+00	  -6.0568092e-02	   2.5375112e-01	  -5.3894377e-02	
   4.5650000e+00	  -6.2924535e-02	   2.4797660e-01	  -5.4829390e-02	
   4.6200000e+00	  -6.5686301e-02	   2.4261087e-01	  -5.5642336e-02	
   4.6750000e+00	  -6.8737588e-02	   2.3773114e-01	  -5.6304503e-02	
   4.7300000e+00	  -7.1966472e-02	   2.3339961e-01	  -5.6783535e-02	
   4.7850000e+00	  -7.5281948e-02	   2.2965539e-01	  -5.7050838e-02	
   4.8400000e+00	  -7.8630074e-02	   2.2650657e-01	  -5.7088849e-02	
   4.8950000e+00	  -8.2006139e-02	   2.2392403e-01	  -5.6897142e-02	
   4.9500000e+00	  -8.5458454e-02	   2.2183911e-01	  -5.6496413e-02	
   5.0050000e+00	  -8.9081267e-02	   2.2014713e-01	  -5.5928956e-02	
   5.0600000e+00	  -9.2997775e-02	   2.1871667e-01	  -5.5254056e-02	
   5.1150000e+00	  -9.7336093e-02	   2.1740307e-01	  -5.4538378e-02	
   5.1700000e+00	  -1.0220160e-01	   2.1606333e-01	  -5.3844045e-02	
   5.2250000e+00	  -1.0765013e-01	   2.1456994e-01	  -5.3218157e-02	
   5.2800000e+00	  -1.1366767e-01	   2.1282169e-01	  -5.2686242e-02	
   5.3350000e+00	  -1.2016179e-01	   2.1074993e-01	  -5.2250173e-02	
   5.3900000e+00	  -1.2696687e-01	   2.0832016e-01	  -5.1890221e-02	
   5.4450000e+00	  -1.3386227e-01	   2.0553025e-01	  -5.1571122e-02	
   5.5000000e+00	  -1.4059957e-01	   2.0240609e-01	  -5.1251651e-02	
   5.5550000e+00	  -1.4693298e-01	   1.9899444e-01	  -5.0896110e-02	
   5.6100000e+00	  -1.5264808e-01	   1.9535313e-01	  -5.0485855e-02	
   5.6650000e+00	  -1.5758608e-01	   1.9154036e-01	  -5.0029388e-02	
   5.7200000e+00	  -1.6166200e-01	   1.8760462e-01	  -4.9569466e-02	
   5.7750000e+00	  -1.6487377e-01	   1.8357697e-01	  -4.9185071e-02	
   5.8300000e+00	  -1.6729964e-01	   1.7946735e-01	  -4.8986244e-02	
   5.8850000e+00	  -1.6908375e-01	   1.7526624e-01	  -4.9101503e-02	
   5.9400000e+00	  -1.7041255e-01	   1.7095159e-01	  -4.9660304e-02	
   5.9950000e+00	  -1.7148556e-01	   1.6649854e-01	  -5.0774853e-02	
   6.0500000e+00	  -1.7248589e-01	   1.6188912e-01	  -5.2525172e-02	
   6.1050000e+00	  -1.7355643e-01	   1.5712000e-01	  -5.4949239e-02	
   6.1600000e+00	  -1.7478585e-01	   1.5220715e-01	  -5.8038498e-02	
   6.2150000e+00	  -1.7620525e-01	   1.4718661e-01	  -6.1738727e-02	
   6.2700000e+00	  -1.7779321e-01	   1.4211121e-01	  -6.5956611e-02	
   6.3250000e+00	  -1.7948587e-01	   1.3704389e-01	  -7.0571711e-02	
   6.3800000e+00	  -1.8118981e-01	   1.3204879e-01	  -7.5452084e-02	
   6.4350000e+00	  -1.8279698e-01	   1.2718113e-01	  -8.0470936e-02	
   6.4900000e+00	  -1.8420095e-01	   1.2247786e-01	  -8.5522231e-02	
   6.5450000e+00	  -1.8531303e-01	   1.1795041e-01	  -9.0533909e-02	
   6.6000000e+00	  -1.8607646e-01	   1.1358009e-01	  -9.5476997e-02	
   6.6550000e+00	  -1.8647756e-01	   1.0931616e-01	  -1.0036803e-01	
   6.7100000e+00	  -1.8655083e-01	   1.0507786e-01	  -1.0526301e-01	
   6.7650000e+00	  -1.8637560e-01	   1.0076200e-01	  -1.1024381e-01	
   6.8200000e+00	  -1.8606494e-01	   9.6255228e-02	  -1.1539996e-01	
   6.8750000e+00	  -1.8575170e-01	   9.1448392e-02	  -1.2081027e-01	
   6.9300000e+00	  -1.8557606e-01	   8.6249768e-02	  -1.2652807e-01	
   6.9850000e+00	  -1.8567686e-01	   8.0595469e-02	  -1.3257267e-01	
   7.0400000e+00	  -1.8618714e-01	   7.4456062e-02	  -1.3892724e-01	
   7.0950000e+00	  -1.8723333e-01	   6.7838725e-02	  -1.4554121e-01	
   7.1500000e+00	  -1.8893658e-01	   6.0785009e-02	  -1.5233639e-01	
   7.2050000e+00	  -1.9141423e-01	   5.3365167e-02	  -1.5921626e-01	
   7.2600000e+00	  -1.9478038e-01	   4.5670291e-02	  -1.6607754e-01	
   7.3150000e+00	  -1.9914496e-01	   3.7803011e-02	  -1.7282180e-01	
   7.3700000e+00	  -2.0461049e-01	   2.9867437e-02	  -1.7936561e-01	
   7.4250000e+00	  -2.1126637e-01	   2.1959786e-02	  -1.8564803e-01	
   7.4800000e+00	  -2.1918068e-01	   1.4161759e-02	  -1.9163340e-01	
   7.5350000e+00	  -2.2838951e-01	   6.5385086e-03	  -1.9730751e-01	
   7.5900000e+00	  -2.3888517e-01	  -8.5798131e-04	  -2.0266779e-01	
   7.6450000e+00	  -2.5060699e-01	  -7.9812520e-03	  -2.0771122e-01	
   7.7000000e+00	  -2.6343773e-01	  -1.4781456e-02	  -2.1242413e-01	
   7.7550000e+00	  -2.7720665e-01	  -2.1198149e-02	  -2.1677654e-01	
   7.8100000e+00	  -2.9169699e-01	  -2.7156279e-02	  -2.2072194e-01	
   7.8650000e+00	  -3.0665613e-01	  -3.2565653e-02	  -2.2420157e-01	
   7.9200000e+00	  -3.2180674e-01	  -3.7323791e-02	  -2.2715112e-01	
   7.9750000e+00	  -3.3685757e-01	  -4.1321643e-02	  -2.2950827e-01	
   8.0300000e+00	  -3.5151304e-01	  -4.4451092e-02	  -2.3121968e-01	
   8.0850000e+00	  -3.6548264e-01	  -4.6612835e-02	  -2.3224655e-01	
   8.1400000e+00	  -3.7849165e-01	  -4.7723549e-02	  -2.3256777e-01	
   8.1950000e+00	  -3.9029252e-01	  -4.7721356e-02	  -2.3217920e-01	
   8.2500000e+00	  -4.0067382e-01	  -4.6568027e-02	  -2.3108870e-01	
   8.3050000e+00	  -4.0946492e-01	  -4.4246655e-02	  -2.2930872e-01	
   8.3600000e+00	  -4.1653664e-01	  -4.0755795e-02	  -2.2684889e-01	
   8.4150000e+00	  -4.2179877e-01	  -3.6103248e-02	  -2.2371087e-01	
   8.4700000e+00	  -4.2519470e-01	  -3.0302236e-02	  -2.1988637e-01	
   8.5250000e+00	  -4.2669488e-01	  -2.3370714e-02	  -2.1535923e-01	
   8.5800000e+00	  -4.2629295e-01	  -1.5333213e-02	  -2.1011057e-01	
   8.6350000e+00	  -4.2400565e-01	  -6.2245770e-03	  -2.0412562e-01	
   8.6900000e+00	  -4.1987394e-01	   3.9052925e-03	  -1.9740054e-01	
   8.7450000e+00	  -4.1396240e-01	   1.4987061e-02	  -1.8994913e-01	
   8.8000000e+00	  -4.0635696e-01	   2.6929209e-02	  -1.8180857e-01	
   8.8550000e+00	  -3.9716121e-01	   3.9617630e-02	  -1.7304188e-01	
   8.9100000e+00	  -3.8649052e-01	   5.2918090e-02	  -1.6373489e-01	
   8.9650000e+00	  -3.7446377e-01	   6.6682060e-02	  -1.5398737e-01	
   9.0200000e+00	  -3.6119483e-01	   8.0755504e-02	  -1.4390047e-01	
   9.0750000e+00	  -3.4678569e-01	   9.4988924e-02	  -1.3356399e-01	
   9.1300000e+00	  -3.3132244e-01	   1.0924659e-01	  -1.2304672e-01	
   9.1850000e+00	  -3.1487399e-01	   1.2341355e-01	  -1.1239224e-01	
   9.2400000e+00	  -2.9749474e-01	   1.3739933e-01	  -1.0162131e-01	
   9.2950000e+00	  -2.7923235e-01	   1.5113796e-01	  -9.0739525e-02	
   9.3500000e+00	  -2.6013994e-01	   1.6458456e-01	  -7.9747971e-02	
   9.4050000e+00	  -2.4029084e-01	   1.7770987e-01	  -6.8655044e-02	
   9.4600000e+00	  -2.1979259e-01	   1.9049343e-01	  -5.7488071e-02	
   9.5150000e+00	  -1.9879767e-01	   2.0291575e-01	  -4.6302805e-02	
   9.5700000e+00	  -1.7750803e-01	   2.1495061e-01	  -3.5188840e-02	
   9.6250000e+00	  -1.5617037e-01	   2.2655986e-01	  -2.4269390e-02	
   9.6800000e+00	  -1.3506161e-01	   2.3769295e-01	  -1.3694391e-02	
   9.7350000e+00	  -1.1446706e-01	   2.4829168e-01	  -3.6273309e-03	
   9.7900000e+00	  -9.4655753e-02	   2.5829931e-01	   5.7716777e-03	
   9.8450000e+00	  -7.5857783e-02	   2.6767164e-01	   1.4362834e-02	
   9.9000000e+00	  -5.8247853e-02	   2.7638721e-01	   2.2040237e-02	
   9.9550000e+00	  -4.1937074e-02	   2.8445393e-01	   2.8739792e-02	
   1.0010000e+01	  -2.6972165e-02	   2.9191047e-01	   3.4440465e-02	
   1.0065000e+01	  -1.3339932e-02	   2.9882253e-01	   3.9159603e-02	
   1.0120000e+01	  -9.7640404e-04	   3.0527486e-01	   4.2944561e-02	
   1.0175000e+01	   1.0219763e-02	   3.1136014e-01	   4.5863117e-02	
   1.0230000e+01	   2.0372023e-02	   3.1716668e-01	   4.7994073e-02	
   1.0285000e+01	   2.9611714e-02	   3.2276712e-01	   4.9418175e-02	
   1.0340000e+01	   3.8065690e-02	   3.2821008e-01	   5.0209565e-02	
   1.0395000e+01	   4.5845615e-02	   3.3351519e-01	   5.0429281e-02	
   1.0450000e+01	   5.3040366e-02	   3.3867183e-01	   5.0122985e-02	
   1.0505000e+01	   5.9714192e-02	   3.4364203e-01	   4.9324103e-02	
   1.0560000e+01	   6.5911185e-02	   3.4836789e-01	   4.8061638e-02	
   1.0615000e+01	   7.1663831e-02	   3.5278248e-01	   4.6370025e-02	
   1.0670000e+01	   7.7002974e-02	   3.5682210e-01	   4.4297416e-02	
   1.0725000e+01	   8.1967255e-02	   3.6043717e-01	   4.1909455e-02	
   1.0780000e+01	   8.6609697e-02	   3.6359969e-01	   3.9287874e-02	
   1.0835000e+01	   9.0999170e-02	   3.6630622e-01	   3.6525396e-02	
   1.0890000e+01	   9.5216356e-02	   3.6857606e-01	   3.3718706e-02	
   1.0945000e+01	   9.9345482e-02	   3.7044564e-01	   3.0960156e-02	
   1.1000000e+01	   1.0346308e-01	   3.7196093e-01	   2.8328644e-02	
   1.1055000e+01	   1.0762455e-01	   3.7316866e-01	   2.5880560e-02	
   1.1110000e+01	   1.1184992e-01	   3.7410709e-01	   2.3641854e-02	
   1.1165000e+01	   1.1611151e-01	   3.7479742e-01	   2.1602166e-02	
   1.1220000e+01	   1.2032713e-01	   3.7523707e-01	   1.9712321e-02	
   1.1275000e+01	   1.2436134e-01	   3.7539625e-01	   1.7886672e-02	
   1.1330000e+01	   1.2803550e-01	   3.7521873e-01	   1.6011045e-02	
   1.1385000e+01	   1.3114549e-01	   3.7462763e-01	   1.3955418e-02	
   1.1440000e+01	   1.3348347e-01	   3.7353536e-01	   1.1589011e-02	
   1.1495000e+01	   1.3485927e-01	   3.7185481e-01	   8.7952095e-03	
   1.1550000e+01	   1.3511808e-01	   3.6950922e-01	   5.4842519e-03	
   1.1605000e+01	   1.3415306e-01	   3.6643979e-01	   1.6020847e-03	
   1.1660000e+01	   1.3191236e-01	   3.6261100e-01	  -2.8654819e-03	
   1.1715000e+01	   1.2840015e-01	   3.5801299e-01	  -7.8929607e-03	
   1.1770000e+01	   1.2367216e-01	   3.5266026e-01	  -1.3418837e-02	
   1.1825000e+01	   1.1782795e-01	   3.4658754e-01	  -1.9352536e-02	
   1.1880000e+01	   1.1100166e-01	   3.3984436e-01	  -2.5584794e-02	
   1.1935000e+01	   1.0335362e-01	   3.3248859e-01	  -3.2000083e-02	
   1.1990000e+01	   9.5063733e-02	   3.2457957e-01	  -3.8488327e-02	
   1.2045000e+01	   8.6326312e-02	   3.1617189e-01	  -4.4953338e-02	
   1.2100000e+01	   7.7345809e-02	   3.0731156e-01	  -5.1316127e-02	
   1.2155000e+01	   6.8333459e-02	   2.9803561e-01	  -5.7511934e-02	
   1.2210000e+01	   5.9506108e-02	   2.8837488e-01	  -6.3482034e-02	
   1.2265000e+01	   5.1087724e-02	   2.7835955e-01	  -6.9164261e-02	
   1.2320000e+01	   4.3311959e-02	   2.6802608e-01	  -7.4486729e-02	
   1.2375000e+01	   3.6422041e-02	   2.5742358e-01	  -7.9366318e-02	
   1.2430000e+01	   3.0664909e-02	   2.4661775e-01	  -8.3710748e-02	
   1.2485000e+01	   2.6279654e-02	   2.3569177e-01	  -8.7422892e-02	
   1.2540000e+01	   2.3482898e-02	   2.2474410e-01	  -9.0407059e-02	
   1.2595000e+01	   2.2453989e-02	   2.1388333e-01	  -9.2576896e-02	
   1.2650000e+01	   2.3322227e-02	   2.0322110e-01	  -9.3863825e-02	
   1.2705000e+01	   2.6157673e-02	   1.9286471e-01	  -9.4224595e-02	
   1.2760000e+01	   3.0965810e-02	   1.8291065e-01	  -9.3646472e-02	
   1.2815000e+01	   3.7685855e-02	   1.7343925e-01	  -9.2148571e-02	
   1.2870000e+01	   4.6193627e-02	   1.6451088e-01	  -8.9778405e-02	
   1.2925000e+01	   5.6310630e-02	   1.5616594e-01	  -8.6604244e-02	
   1.2980000e+01	   6.7818773e-02	   1.4842930e-01	  -8.2705136e-02	
   1.3035000e+01	   8.0476960e-02	   1.4131779e-01	  -7.8160569e-02	
   1.3090000e+01	   9.4035560e-02	   1.3484738e-01	  -7.3041305e-02	
   1.3145000e+01	   1.0824676e-01	   1.2903793e-01	  -6.7403273e-02	
   1.3200000e+01	   1.2287016e-01	   1.2391456e-01	  -6.1286202e-02	
   1.3255000e+01	   1.3767360e-01	   1.1950552e-01	  -5.4716965e-02	
   1.3310000e+01	   1.5243090e-01	   1.1583699e-01	  -4.7716089e-02	
   1.3365000e+01	   1.6691848e-01	   1.1292589e-01	  -4.0305795e-02	
   1.3420000e+01	   1.8091225e-01	   1.1077220e-01	  -3.2518275e-02	
   1.3475000e+01	   1.9418534e-01	   1.0935205e-01	  -2.4402862e-02	
   1.3530000e+01	   2.0650768e-01	   1.0861247e-01	  -1.6030945e-02	
   1.3585000e+01	   2.1764939e-01	   1.0846937e-01	  -7.4977839e-03	
   1.3640000e+01	   2.2739000e-01	   1.0881013e-01	   1.0799253e-03	
   1.3695000e+01	   2.3553408e-01	   1.0950142e-01	   9.5717263e-03	
   1.3750000e+01	   2.4193123e-01	   1.1040081e-01	   1.7845604e-02	
   1.3805000e+01	   2.4649654e-01	   1.1137020e-01	   2.5782105e-02	
   1.3860000e+01	   2.4922617e-01	   1.1228835e-01	   3.3287411e-02	
   1.3915000e+01	   2.5020293e-01	   1.1306048e-01	   4.0303201e-02	
   1.3970000e+01	   2.4959005e-01	   1.1362343e-01	   4.6811836e-02	
   1.4025000e+01	   2.4761550e-01	   1.1394655e-01	   5.2835466e-02	
   1.4080000e+01	   2.4455057e-01	   1.1402886e-01	   5.8427987e-02	
   1.4135000e+01	   2.4068552e-01	   1.1389291e-01	   6.3660583e-02	
   1.4190000e+01	   2.3630413e-01	   1.1357614e-01	   6.8603692e-02	
   1.4245000e+01	   2.3165871e-01	   1.1312119e-01	   7.3308895e-02	
   1.4300000e+01	   2.2694743e-01	   1.1256682e-01	   7.7793796e-02	
   1.4355000e+01	   2.2229593e-01	   1.1194051e-01	   8.2032185e-02	
   1.4410000e+01	   2.1774636e-01	   1.1125328e-01	   8.5951002e-02	
   1.4465000e+01	   2.1325655e-01	   1.1049820e-01	   8.9434919e-02	
   1.4520000e+01	   2.0870956e-01	   1.0965360e-01	   9.2338567e-02	
   1.4575000e+01	   2.0393126e-01	   1.0869078e-01	   9.4504879e-02	
   1.4630000e+01	   1.9871351e-01	   1.0758387e-01	   9.5786167e-02	
   1.4685000e+01	   1.9283970e-01	   1.0631925e-01	   9.6063841e-02	
   1.4740000e+01	   1.8610872e-01	   1.0490241e-01	   9.5263634e-02	
   1.4795000e+01	   1.7835414e-01	   1.0336117e-01	   9.3364827e-02	
   1.4850000e+01	   1.6945788e-01	   1.0174496e-01	   9.0402952e-02	
   1.4905000e+01	   1.5936058e-01	   1.0012079e-01	   8.6465591e-02	
   1.4960000e+01	   1.4806990e-01	   9.8566422e-02	   8.1681695e-02	
   1.5015000e+01	   1.3566648e-01	   9.7161258e-02	   7.6206592e-02	
   1.5070000e+01	   1.2230693e-01	   9.5975867e-02	   7.0205689e-02	
   1.5125000e+01	   1.0822442e-01	   9.5062310e-02	   6.3839160e-02	
   1.5180000e+01	   9.3727970e-02	   9.4447464e-02	   5.7249223e-02	
   1.5235000e+01	   7.9202484e-02	   9.4130215e-02	   5.0552094e-02	
   1.5290000e+01	   6.5111440e-02	   9.4082371e-02	   4.3836678e-02	
   1.5345000e+01	   5.2003390e-02	   9.4253447e-02	   3.7170486e-02	
   1.5400000e+01	   4.0519998e-02	   9.4579179e-02	   3.0611232e-02	
   1.5455000e+01	   3.1401175e-02	   9.4992344e-02	   2.4221508e-02	
   1.5510000e+01	   2.5483750e-02	   9.5433760e-02	   1.8083235e-02	
   1.5565000e+01	   2.3692892e-02	   9.5861846e-02	   1.2307976e-02	
   1.5620000e+01	   2.7027258e-02	   9.6259636e-02	   7.0400370e-03	
   1.5675000e+01	   3.6538384e-02	   9.6637916e-02	   2.4519689e-03	
   1.5730000e+01	   5.3304087e-02	   9.7033650e-02	  -1.2658169e-03	
   1.5785000e+01	   7.8395413e-02	   9.7504268e-02	  -3.9193921e-03	
   1.5840000e+01	   1.1283669e-01	   9.8119304e-02	  -5.3279295e-03	
   1.5895000e+01	   1.5755961e-01	   9.8950414e-02	  -5.3406727e-03	
   1.5950000e+01	   2.1335458e-01	   1.0006056e-01	  -3.8524274e-03	
   1.6005000e+01	   2.8082325e-01	   1.0149390e-01	  -8.1643111e-04	
   1.6060000e+01	   3.6033472e-01	   1.0326840e-01	   3.7465183e-03	
   1.6115000e+01	   4.5198813e-01	   1.0537224e-01	   9.7447870e-03	
   1.6170000e+01	   5.5558444e-01	   1.0776482e-01	   1.7020529e-02	
   1.6225000e+01	   6.7060882e-01	   1.1038230e-01	   2.5361588e-02	
   1.6280000e+01	   7.9622147e-01	   1.1314673e-01	   3.4517040e-02	
   1.6335000e+01	   9.3125493e-01	   1.1597643e-01	   4.4212534e-02	
   1.6390000e+01	   1.0742206e+00	   1.1879494e-01	   5.4163591e-02	
   1.6445000e+01	   1.2233310e+00	   1.2153717e-01	   6.4086563e-02	
   1.6500000e+01	   1.3765471e+00	   1.2415189e-01	   7.3707690e-02	
   1.6555000e+01	   1.5316535e+00	   1.2660102e-01	   8.2770855e-02	
   1.6610000e+01	   1.6863604e+00	   1.2885675e-01	   9.1044045e-02	
   1.6665000e+01	   1.8384146e+00	   1.3089788e-01	   9.8323607e-02	
   1.6720000e+01	   1.9857001e+00	   1.3270592e-01	   1.0443563e-01	
   1.6775000e+01	   2.1263111e+00	   1.3426086e-01	   1.0923523e-01	
   1.6830000e+01	   2.2585993e+00	   1.3553692e-01	   1.1260556e-01	
   1.6885000e+01	   2.3812020e+00	   1.3649982e-01	   1.1445812e-01	
   1.6940000e+01	   2.4930569e+00	   1.3710733e-01	   1.1473565e-01	
   1.6995000e+01	   2.5934091e+00	   1.3731353e-01	   1.1341755e-01	
   1.7050000e+01	   2.6818104e+00	   1.3707544e-01	   1.1052617e-01	
   1.7105000e+01	   2.7581091e+00	   1.3636028e-01	   1.0613113e-01	
   1.7160000e+01	   2.8224304e+00	   1.3515180e-01	   1.0034996e-01	
   1.7215000e+01	   2.8751459e+00	   1.3345435e-01	   9.3344927e-02	
   1.7270000e+01	   2.9168361e+00	   1.3129392e-01	   8.5316252e-02	
   1.7325000e+01	   2.9482477e+00	   1.2871603e-01	   7.6491244e-02	
   1.7380000e+01	   2.9702495e+00	   1.2578130e-01	   6.7109028e-02	
   1.7435000e+01	   2.9837866e+00	   1.2255894e-01	   5.7402657e-02	
   1.7490000e+01	   2.9898361e+00	   1.1911875e-01	   4.7581987e-02	
   1.7545000e+01	   2.9893703e+00	   1.1552302e-01	   3.7820490e-02	
   1.7600000e+01	   2.9833271e+00	   1.1181988e-01	   2.8247844e-02	
   1.7655000e+01	   2.9725888e+00	   1.0803927e-01	   1.8949131e-02	
   1.7710000e+01	   2.9579713e+00	   1.0419235e-01	   9.9703640e-03	
   1.7765000e+01	   2.9402228e+00	   1.0027513e-01	   1.3284636e-03	
   1.7820000e+01	   2.9200291e+00	   9.6275657e-02	  -6.9770155e-03	
   1.7875000e+01	   2.8980231e+00	   9.2182480e-02	  -1.4952772e-02	
   1.7930000e+01	   2.8747923e+00	   8.7991786e-02	  -2.2603044e-02	
   1.7985000e+01	   2.8508837e+00	   8.3711697e-02	  -2.9924593e-02	
   1.8040000e+01	   2.8268039e+00	   7.9363164e-02	  -3.6905612e-02	
   1.8095000e+01	   2.8030109e+00	   7.4977172e-02	  -4.3527841e-02	
   1.8150000e+01	   2.7799004e+00	   7.0588792e-02	  -4.9771198e-02	
   1.8205000e+01	   2.7577880e+00	   6.6229530e-02	  -5.5620385e-02	
   1.8260000e+01	   2.7368908e+00	   6.1919734e-02	  -6.1072608e-02	
   1.8315000e+01	   2.7173110e+00	   5.7661819e-02	  -6.6144868e-02	
   1.8370000e+01	   2.6990233e+00	   5.3434283e-02	  -7.0879073e-02	
   1.8425000e+01	   2.6818675e+00	   4.9187337e-02	  -7.5343444e-02	
   1.8480000e+01	   2.6655500e+00	   4.4842361e-02	  -7.9628956e-02	
   1.8535000e+01	   2.6496550e+00	   4.0297027e-02	  -8.3839986e-02	
   1.8590000e+01	   2.6336686e+00	   3.5435728e-02	  -8.8080334e-02	
   1.8645000e+01	   2.6170081e+00	   3.0143093e-02	  -9.2438490e-02	
   1.8700000e+01	   2.5990553e+00	   2.4317946e-02	  -9.6976083e-02	
   1.8755000e+01	   2.5791863e+00	   1.7885399e-02	  -1.0172093e-01	
   1.8810000e+01	   2.5567952e+00	   1.0805380e-02	  -1.0666436e-01	
   1.8865000e+01	   2.5313159e+00	   3.0768471e-03	  -1.1176266e-01	
   1.8920000e+01	   2.5022408e+00	  -5.2622637e-03	  -1.1694278e-01	
   1.8975000e+01	   2.4691387e+00	  -1.4139016e-02	  -1.2211102e-01	
   1.9030000e+01	   2.4316709e+00	  -2.3452805e-02	  -1.2716340e-01	
   1.9085000e+01	   2.3896041e+00	  -3.3085054e-02	  -1.3199679e-01	
   1.9140000e+01	   2.3428231e+00	  -4.2910099e-02	  -1.3652136e-01	
   1.9195000e+01	   2.2913428e+00	  -5.2806383e-02	  -1.4067324e-01	
   1.9250000e+01	   2.2353196e+00	  -6.2666934e-02	  -1.4442491e-01	
   1.9305000e+01	   2.1750629e+00	  -7.2407282e-02	  -1.4778951e-01	
   1.9360000e+01	   2.1110491e+00	  -8.1968722e-02	  -1.5081683e-01	
   1.9415000e+01	   2.0439364e+00	  -9.1315803e-02	  -1.5358028e-01	
   1.9470000e+01	   1.9745786e+00	  -1.0042881e-01	  -1.5615772e-01	
   1.9525000e+01	   1.9040322e+00	  -1.0929368e-01	  -1.5861162e-01	
   1.9580000e+01	   1.8335500e+00	  -1.1789205e-01	  -1.6097361e-01	
   1.9635000e+01	   1.7645559e+00	  -1.2619317e-01	  -1.6323582e-01	
   1.9690000e+01	   1.6985968e+00	  -1.3414928e-01	  -1.6534869e-01	
   1.9745000e+01	   1.6372723e+00	  -1.4169530e-01	  -1.6722572e-01	
   1.9800000e+01	   1.5821416e+00	  -1.4875292e-01	  -1.6875561e-01	
   1.9855000e+01	   1.5346080e+00	  -1.5523881e-01	  -1.6982091e-01	
   1.9910000e+01	   1.4957886e+00	  -1.6107587e-01	  -1.7032048e-01	
   1.9965000e+01	   1.4663906e+00	  -1.6620601e-01	  -1.7019179e-01	
   2.0020000e+01	   1.4466192e+00	  -1.7060150e-01	  -1.6942859e-01	
   2.0075000e+01	   1.4361415e+00	  -1.7427272e-01	  -1.6809049e-01	
   2.0130000e+01	   1.4341154e+00	  -1.7727178e-01	  -1.6630269e-01	
   2.0185000e+01	   1.4392792e+00	  -1.7969171e-01	  -1.6424648e-01	
   2.0240000e+01	   1.4500823e+00	  -1.8166117e-01	  -1.6214234e-01	
   2.0295000e+01	   1.4648272e+00	  -1.8333389e-01	  -1.6022785e-01	
   2.0350000e+01	   1.4817993e+00	  -1.8487417e-01	  -1.5873361e-01	
   2.0405000e+01	   1.4993751e+00	  -1.8644075e-01	  -1.5786147e-01	
   2.0460000e+01	   1.5161055e+00	  -1.8817213e-01	  -1.5776812e-01	
   2.0515000e+01	   1.5307730e+00	  -1.9017545e-01	  -1.5855515e-01	
   2.0570000e+01	   1.5424256e+00	  -1.9252013e-01	  -1.6026485e-01	
   2.0625000e+01	   1.5503892e+00	  -1.9523666e-01	  -1.6288073e-01	
   2.0680000e+01	   1.5542617e+00	  -1.9831968e-01	  -1.6633224e-01	
   2.0735000e+01	   1.5538872e+00	  -2.0173448e-01	  -1.7050395e-01	
   2.0790000e+01	   1.5493143e+00	  -2.0542559e-01	  -1.7524849e-01	
   2.0845000e+01	   1.5407393e+00	  -2.0932675e-01	  -1.8040173e-01	
   2.0900000e+01	   1.5284424e+00	  -2.1337104e-01	  -1.8579818e-01	
   2.0955000e+01	   1.5127325e+00	  -2.1750021e-01	  -1.9128350e-01	
   2.1010000e+01	   1.4939228e+00	  -2.2167173e-01	  -1.9672099e-01	
   2.1065000e+01	   1.4723470e+00	  -2.2586143e-01	  -2.0199079e-01	
   2.1120000e+01	   1.4484053e+00	  -2.3006020e-01	  -2.0698422e-01	
   2.1175000e+01	   1.4226147e+00	  -2.3426569e-01	  -2.1159667e-01	
   2.1230000e+01	   1.3956446e+00	  -2.3847240e-01	  -2.1572186e-01	
   2.1285000e+01	   1.3683284e+00	  -2.4266303e-01	  -2.1924924e-01	
   2.1340000e+01	   1.3416472e+00	  -2.4680350e-01	  -2.2206503e-01	
   2.1395000e+01	   1.3166879e+00	  -2.5084286e-01	  -2.2405696e-01	
   2.1450000e+01	   1.2945754e+00	  -2.5471842e-01	  -2.2512259e-01	
   2.1505000e+01	   1.2763817e+00	  -2.5836433e-01	  -2.2518123e-01	
   2.1560000e+01	   1.2630158e+00	  -2.6172152e-01	  -2.2418953e-01	
   2.1615000e+01	   1.2551044e+00	  -2.6474775e-01	  -2.2215806e-01	
   2.1670000e+01	   1.2528841e+00	  -2.6742691e-01	  -2.1916422e-01	
   2.1725000e+01	   1.2561302e+00	  -2.6977581e-01	  -2.1535681e-01	
   2.1780000e+01	   1.2641385e+00	  -2.7184593e-01	  -2.1094949e-01	
   2.1835000e+01	   1.2757647e+00	  -2.7371864e-01	  -2.0620403e-01	
   2.1890000e+01	   1.2895145e+00	  -2.7549438e-01	  -2.0140689e-01	
   2.1945000e+01	   1.3036640e+00	  -2.7727801e-01	  -1.9684448e-01	
   2.2000000e+01	   1.3163849e+00	  -2.7916386e-01	  -1.9278139e-01	
   2.2055000e+01	   1.3258556e+00	  -2.8122359e-01	  -1.8944348e-01	
   2.2110000e+01	   1.3303494e+00	  -2.8349845e-01	  -1.8700658e-01	
   2.2165000e+01	   1.3282974e+00	  -2.8599540e-01	  -1.8559074e-01	
   2.2220000e+01	   1.3183259e+00	  -2.8868662e-01	  -1.8526098e-01	
   2.2275000e+01	   1.2992687e+00	  -2.9151293e-01	  -1.8603419e-01	
   2.2330000e+01	   1.2701594e+00	  -2.9439168e-01	  -1.8789070e-01	
   2.2385000e+01	   1.2302139e+00	  -2.9722800e-01	  -1.9078808e-01	
   2.2440000e+01	   1.1788247e+00	  -2.9992693e-01	  -1.9467410e-01	
   2.2495000e+01	   1.1155812e+00	  -3.0240426e-01	  -1.9949587e-01	
   2.2550000e+01	   1.0403187e+00	  -3.0459480e-01	  -2.0520361e-01	
   2.2605000e+01	   9.5317931e-01	  -3.0645666e-01	  -2.1174879e-01	
   2.2660000e+01	   8.5466593e-01	  -3.0796985e-01	  -2.1907718e-01	
   2.2715000e+01	   7.4567619e-01	  -3.0912932e-01	  -2.2711832e-01	
   2.2770000e+01	   6.2750937e-01	  -3.0993514e-01	  -2.3577474e-01	
   2.2825000e+01	   5.0184063e-01	  -3.1038335e-01	  -2.4491504e-01	
   2.2880000e+01	   3.7065866e-01	  -3.1045943e-01	  -2.5437339e-01	
   2.2935000e+01	   2.3616873e-01	  -3.1013525e-01	  -2.6395509e-01	
   2.2990000e+01	   1.0067412e-01	  -3.0936924e-01	  -2.7344565e-01	
   2.3045000e+01	  -3.3542075e-02	  -3.0810930e-01	  -2.8262221e-01	
   2.3100000e+01	  -1.6431699e-01	  -3.0629787e-01	  -2.9126650e-01	
   2.3155000e+01	  -2.8968453e-01	  -3.0387910e-01	  -2.9917846e-01	
   2.3210000e+01	  -4.0793161e-01	  -3.0080816e-01	  -3.0618927e-01	
   2.3265000e+01	  -5.1763819e-01	  -2.9706162e-01	  -3.1217291e-01	
   2.3320000e+01	  -6.1770291e-01	  -2.9264669e-01	  -3.1705538e-01	
   2.3375000e+01	  -7.0735458e-01	  -2.8760759e-01	  -3.2081974e-01	
   2.3430000e+01	  -7.8614910e-01	  -2.8202735e-01	  -3.2350421e-01	
   2.3485000e+01	  -8.5395052e-01	  -2.7602429e-01	  -3.2519297e-01	
   2.3540000e+01	  -9.1089878e-01	  -2.6974252e-01	  -3.2600196e-01	
   2.3595000e+01	  -9.5736959e-01	  -2.6333785e-01	  -3.2606322e-01	
   2.3650000e+01	  -9.9393213e-01	  -2.5696292e-01	  -3.2551061e-01	
   2.3705000e+01	  -1.0213065e+00	  -2.5075479e-01	  -3.2446836e-01	
   2.3760000e+01	  -1.0403223e+00	  -2.4482609e-01	  -3.2304352e-01	
   2.3815000e+01	  -1.0518798e+00	  -2.3925966e-01	  -3.2132290e-01	
   2.3870000e+01	  -1.0569170e+00	  -2.3410704e-01	  -3.1937401e-01	
   2.3925000e+01	  -1.0563828e+00	  -2.2939094e-01	  -3.1724964e-01	
   2.3980000e+01	  -1.0512158e+00	  -2.2511134e-01	  -3.1499524e-01	
   2.4035000e+01	  -1.0423310e+00	  -2.2125394e-01	  -3.1265777e-01	
   2.4090000e+01	  -1.0306115e+00	  -2.1780017e-01	  -3.1029396e-01	
   2.4145000e+01	  -1.0169032e+00	  -2.1473692e-01	  -3.0797665e-01	
   2.4200000e+01	  -1.0020104e+00	  -2.1206433e-01	  -3.0579867e-01	
   2.4255000e+01	  -9.8669094e-01	  -2.0979987e-01	  -3.0387364e-01	
   2.4310000e+01	  -9.7164761e-01	  -2.0797835e-01	  -3.0233135e-01	
   2.4365000e+01	  -9.5751617e-01	  -2.0664723e-01	  -3.0130668e-01	
   2.4420000e+01	  -9.4484942e-01	  -2.0585759e-01	  -3.0092330e-01	
   2.4475000e+01	  -9.3410004e-01	  -2.0565180e-01	  -3.0127599e-01	
   2.4530000e+01	  -9.2560485e-01	  -2.0605089e-01	  -3.0241562e-01	
   2.4585000e+01	  -9.1957336e-01	  -2.0704475e-01	  -3.0434017e-01	
   2.4640000e+01	  -9.1608324e-01	  -2.0858681e-01	  -3.0699350e-01	
   2.4695000e+01	  -9.1508463e-01	  -2.1059381e-01	  -3.1027120e-01	
   2.4750000e+01	  -9.1641318e-01	  -2.1295089e-01	  -3.1403113e-01	
   2.4805000e+01	  -9.1981058e-01	  -2.1552134e-01	  -3.1810695e-01	
   2.4860000e+01	  -9.2494990e-01	  -2.1815909e-01	  -3.2232380e-01	
   2.4915000e+01	  -9.3146335e-01	  -2.2072145e-01	  -3.2651493e-01	
   2.4970000e+01	  -9.3897026e-01	  -2.2308136e-01	  -3.3053805e-01	
   2.5025000e+01	  -9.4710341e-01	  -2.2513870e-01	  -3.3428997e-01	
   2.5080000e+01	  -9.5553190e-01	  -2.2682961e-01	  -3.3771760e-01	
   2.5135000e+01	  -9.6397883e-01	  -2.2813216e-01	  -3.4082272e-01	
   2.5190000e+01	  -9.7223120e-01	  -2.2906680e-01	  -3.4365770e-01	
   2.5245000e+01	  -9.8013975e-01	  -2.2969119e-01	  -3.4631176e-01	
   2.5300000e+01	  -9.8760859e-01	  -2.3009021e-01	  -3.4889063e-01	
   2.5355000e+01	  -9.9457840e-01	  -2.3036312e-01	  -3.5149448e-01	
   2.5410000e+01	  -1.0010098e+00	  -2.3061050e-01	  -3.5419874e-01	
   2.5465000e+01	  -1.0068708e+00	  -2.3092348e-01	  -3.5704077e-01	
   2.5520000e+01	  -1.0121297e+00	  -2.3137649e-01	  -3.6001401e-01	
   2.5575000e+01	  -1.0167520e+00	  -2.3202364e-01	  -3.6306960e-01	
   2.5630000e+01	  -1.0207017e+00	  -2.3289800e-01	  -3.6612443e-01	
   2.5685000e+01	  -1.0239474e+00	  -2.3401308e-01	  -3.6907372e-01	
   2.5740000e+01	  -1.0264703e+00	  -2.3536584e-01	  -3.7180633e-01	
   2.5795000e+01	  -1.0282726e+00	  -2.3694091e-01	  -3.7422047e-01	
   2.5850000e+01	  -1.0293847e+00	  -2.3871612e-01	  -3.7623774e-01	
   2.5905000e+01	  -1.0298692e+00	  -2.4066882e-01	  -3.7781337e-01	
   2.5960000e+01	  -1.0298216e+00	  -2.4278210e-01	  -3.7894162e-01	
   2.6015000e+01	  -1.0293678e+00	  -2.4504896e-01	  -3.7965552e-01	
   2.6070000e+01	  -1.0286551e+00	  -2.4747288e-01	  -3.8002055e-01	
   2.6125000e+01	  -1.0278375e+00	  -2.5006386e-01	  -3.8012317e-01	
   2.6180000e+01	  -1.0270552e+00	  -2.5283095e-01	  -3.8005666e-01	
   2.6235000e+01	  -1.0264144e+00	  -2.5577366e-01	  -3.7990710e-01	
   2.6290000e+01	  -1.0259716e+00	  -2.5887495e-01	  -3.7974225e-01	
   2.6345000e+01	  -1.0257266e+00	  -2.6209746e-01	  -3.7960489e-01	
   2.6400000e+01	  -1.0256236e+00	  -2.6538366e-01	  -3.7951174e-01	
   2.6455000e+01	  -1.0255599e+00	  -2.6865905e-01	  -3.7945735e-01	
   2.6510000e+01	  -1.0253992e+00	  -2.7183812e-01	  -3.7942159e-01	
   2.6565000e+01	  -1.0249888e+00	  -2.7483177e-01	  -3.7937877e-01	
   2.6620000e+01	  -1.0241772e+00	  -2.7755612e-01	  -3.7930702e-01	
   2.6675000e+01	  -1.0228326e+00	  -2.7994193e-01	  -3.7919684e-01	
   2.6730000e+01	  -1.0208598e+00	  -2.8194399e-01	  -3.7905759e-01	
   2.6785000e+01	  -1.0182133e+00	  -2.8354843e-01	  -3.7892054e-01	
   2.6840000e+01	  -1.0149029e+00	  -2.8477583e-01	  -3.7883773e-01	
   2.6895000e+01	  -1.0109906e+00	  -2.8567919e-01	  -3.7887605e-01	
   2.6950000e+01	  -1.0065782e+00	  -2.8633685e-01	  -3.7910690e-01	
   2.7005000e+01	  -1.0017891e+00	  -2.8684181e-01	  -3.7959374e-01	
   2.7060000e+01	  -9.9674899e-01	  -2.8728879e-01	  -3.8038100e-01	
   2.7115000e+01	  -9.9156835e-01	  -2.8776094e-01	  -3.8148689e-01	
   2.7170000e+01	  -9.8633036e-01	  -2.8831821e-01	  -3.8290067e-01	
   2.7225000e+01	  -9.8108440e-01	  -2.8898953e-01	  -3.8458395e-01	
   2.7280000e+01	  -9.7584467e-01	  -2.8976950e-01	  -3.8647540e-01	
   2.7335000e+01	  -9.7059383e-01	  -2.9061971e-01	  -3.8849838e-01	
   2.7390000e+01	  -9.6529173e-01	  -2.9147476e-01	  -3.9057031e-01	
   2.7445000e+01	  -9.5988887e-01	  -2.9225216e-01	  -3.9261269e-01	
   2.7500000e+01	  -9.5434271e-01	  -2.9286465e-01	  -3.9456149e-01	
   2.7555000e+01	  -9.4863430e-01	  -2.9323272e-01	  -3.9637712e-01	
   2.7610000e+01	  -9.4278231e-01	  -2.9329634e-01	  -3.9805236e-01	
   2.7665000e+01	  -9.3685123e-01	  -2.9302488e-01	  -3.9961600e-01	
   2.7720000e+01	  -9.3095112e-01	  -2.9242323e-01	  -4.0112990e-01	
   2.7775000e+01	  -9.2522912e-01	  -2.9153205e-01	  -4.0267879e-01	
   2.7830000e+01	  -9.1985466e-01	  -2.9042137e-01	  -4.0435431e-01	
   2.7885000e+01	  -9.1500196e-01	  -2.8917888e-01	  -4.0623705e-01	
   2.7940000e+01	  -9.1083377e-01	  -2.8789596e-01	  -4.0838110e-01	
   2.7995000e+01	  -9.0748930e-01	  -2.8665446e-01	  -4.1080340e-01	
   2.8050000e+01	  -9.0507608e-01	  -2.8551602e-01	  -4.1347791e-01	
   2.8105000e+01	  -9.0366331e-01	  -2.8451490e-01	  -4.1633441e-01	
   2.8160000e+01	  -9.0327657e-01	  -2.8365470e-01	  -4.1926266e-01	
   2.8215000e+01	  -9.0389582e-01	  -2.8290925e-01	  -4.2212218e-01	
   2.8270000e+01	  -9.0545832e-01	  -2.8222736e-01	  -4.2475654e-01	
   2.8325000e+01	  -9.0786683e-01	  -2.8154056e-01	  -4.2700959e-01	
   2.8380000e+01	  -9.1100238e-01	  -2.8077207e-01	  -4.2874182e-01	
   2.8435000e+01	  -9.1473999e-01	  -2.7984659e-01	  -4.2984578e-01	
   2.8490000e+01	  -9.1896407e-01	  -2.7870072e-01	  -4.3025881e-01	
   2.8545000e+01	  -9.2358025e-01	  -2.7729334e-01	  -4.2997106e-01	
   2.8600000e+01	  -9.2852096e-01	  -2.7561350e-01	  -4.2902646e-01	
   2.8655000e+01	  -9.3374424e-01	  -2.7368298e-01	  -4.2751493e-01	
   2.8710000e+01	  -9.3922563e-01	  -2.7155293e-01	  -4.2555675e-01	
   2.8765000e+01	  -9.4494440e-01	  -2.6929550e-01	  -4.2328247e-01	
   2.8820000e+01	  -9.5086741e-01	  -2.6699234e-01	  -4.2081386e-01	
   2.8875000e+01	  -9.5693541e-01	  -2.6472216e-01	  -4.1824906e-01	
   2.8930000e+01	  -9.6305547e-01	  -2.6254955e-01	  -4.1565340e-01	
   2.8985000e+01	  -9.6910068e-01	  -2.6051691e-01	  -4.1305621e-01	
   2.9040000e+01	  -9.7491674e-01	  -2.5864030e-01	  -4.1045365e-01	
   2.9095000e+01	  -9.8033412e-01	  -2.5690941e-01	  -4.0781672e-01	
   2.9150000e+01	  -9.8518386e-01	  -2.5529218e-01	  -4.0510246e-01	
   2.9205000e+01	  -9.8931350e-01	  -2.5374369e-01	  -4.0226616e-01	
   2.9260000e+01	  -9.9260030e-01	  -2.5221804e-01	  -3.9927237e-01	
   2.9315000e+01	  -9.9496166e-01	  -2.5068068e-01	  -3.9610314e-01	
   2.9370000e+01	  -9.9636347e-01	  -2.4911887e-01	  -3.9276280e-01	
   2.9425000e+01	  -9.9682466e-01	  -2.4754816e-01	  -3.8927915e-01	
   2.9480000e+01	  -9.9641504e-01	  -2.4601367e-01	  -3.8570101e-01	
   2.9535000e+01	  -9.9524507e-01	  -2.4458519e-01	  -3.8209193e-01	
   2.9590000e+01	  -9.9345016e-01	  -2.4334722e-01	  -3.7852051e-01	
   2.9645000e+01	  -9.9117369e-01	  -2.4238652e-01	  -3.7504924e-01	
   2.9700000e+01	  -9.8855241e-01	  -2.4177972e-01	  -3.7172452e-01	
   2.9755000e+01	  -9.8570575e-01	  -2.4158308e-01	  -3.6857013e-01	
   2.9810000e+01	  -9.8272877e-01	  -2.4182545e-01	  -3.6558534e-01	
   2.9865000e+01	  -9.7968798e-01	  -2.4250490e-01	  -3.6274771e-01	
   2.9920000e+01	  -9.7662006e-01	  -2.4358868e-01	  -3.6001961e-01	
   2.9975000e+01	  -9.7353426e-01	  -2.4501637e-01	  -3.5735625e-01	
   3.0030000e+01	  -9.7041856e-01	  -2.4670606e-01	  -3.5471287e-01	
   3.0085000e+01	  -9.6724843e-01	  -2.4856326e-01	  -3.5205020e-01	
   3.0140000e+01	  -9.6399659e-01	  -2.5049090e-01	  -3.4933871e-01	
   3.0195000e+01	  -9.6064298e-01	  -2.5239837e-01	  -3.4656184e-01	
   3.0250000e+01	  -9.5718276e-01	  -2.5420793e-01	  -3.4371718e-01	
   3.0305000e+01	  -9.5362907e-01	  -2.5585718e-01	  -3.4081369e-01	
   3.0360000e+01	  -9.5000804e-01	  -2.5729745e-01	  -3.3786457e-01	
   3.0415000e+01	  -9.4634704e-01	  -2.5848867e-01	  -3.3487810e-01	
   3.0470000e+01	  -9.4266073e-01	  -2.5939292e-01	  -3.3184923e-01	
   3.0525000e+01	  -9.3894011e-01	  -2.5996841e-01	  -3.2875412e-01	
   3.0580000e+01	  -9.3514822e-01	  -2.6016467e-01	  -3.2554887e-01	
   3.0635000e+01	  -9.3122265e-01	  -2.5991908e-01	  -3.2217266e-01	
   3.0690000e+01	  -9.2708263e-01	  -2.5915630e-01	  -3.1855464e-01	
   3.0745000e+01	  -9.2263833e-01	  -2.5779164e-01	  -3.1462229e-01	
   3.0800000e+01	  -9.1780104e-01	  -2.5573829e-01	  -3.1031038e-01	
   3.0855000e+01	  -9.1249337e-01	  -2.5291670e-01	  -3.0556952e-01	
   3.0910000e+01	  -9.0665822e-01	  -2.4926466e-01	  -3.0037397e-01	
   3.0965000e+01	  -9.0026449e-01	  -2.4474655e-01	  -2.9472741e-01	
   3.1020000e+01	  -8.9330842e-01	  -2.3936040e-01	  -2.8866569e-01	
   3.1075000e+01	  -8.8580997e-01	  -2.3314126e-01	  -2.8225551e-01	
   3.1130000e+01	  -8.7780496e-01	  -2.2616008e-01	  -2.7558777e-01	
   3.1185000e+01	  -8.6933382e-01	  -2.1851796e-01	  -2.6876657e-01	
   3.1240000e+01	  -8.6042957e-01	  -2.1033617e-01	  -2.6189654e-01	
   3.1295000e+01	  -8.5110831e-01	  -2.0174413e-01	  -2.5507208e-01	
   3.1350000e+01	  -8.4136521e-01	  -1.9286843e-01	  -2.4837037e-01	
   3.1405000e+01	  -8.3117655e-01	  -1.8382557e-01	  -2.4184793e-01	
   3.1460000e+01	  -8.2050582e-01	  -1.7471894e-01	  -2.3554044e-01	
   3.1515000e+01	  -8.0931233e-01	  -1.6563926e-01	  -2.2946489e-01	
   3.1570000e+01	  -7.9756210e-01	  -1.5666725e-01	  -2.2362366e-01	
   3.1625000e+01	  -7.8524030e-01	  -1.4787784e-01	  -2.1801033e-01	
   3.1680000e+01	  -7.7236311e-01	  -1.3934493e-01	  -2.1261721e-01	
   3.1735000e+01	  -7.5898613e-01	  -1.3114608e-01	  -2.0744384e-01	
   3.1790000e+01	  -7.4520884e-01	  -1.2336660e-01	  -2.0250489e-01	
   3.1845000e+01	  -7.3117580e-01	  -1.1610227e-01	  -1.9783482e-01	
   3.1900000e+01	  -7.1707380e-01	  -1.0945943e-01	  -1.9348754e-01	
   3.1955000e+01	  -7.0312279e-01	  -1.0355145e-01	  -1.8953029e-01	
   3.2010000e+01	  -6.8956053e-01	  -9.8491135e-02	  -1.8603283e-01	
   3.2065000e+01	  -6.7662432e-01	  -9.4380238e-02	  -1.8305464e-01	
   3.2120000e+01	  -6.6453352e-01	  -9.1297977e-02	  -1.8063346e-01	
   3.2175000e+01	  -6.5347563e-01	  -8.9290540e-02	  -1.7877752e-01	
   3.2230000e+01	  -6.4359733e-01	  -8.8363255e-02	  -1.7746167e-01	
   3.2285000e+01	  -6.3500075e-01	  -8.8477136e-02	  -1.7662717e-01	
   3.2340000e+01	  -6.2774346e-01	  -8.9550219e-02	  -1.7618545e-01	
   3.2395000e+01	  -6.2184074e-01	  -9.1462770e-02	  -1.7602588e-01	
   3.2450000e+01	  -6.1726922e-01	  -9.4065515e-02	  -1.7602664e-01	
   3.2505000e+01	  -6.1397214e-01	  -9.7190509e-02	  -1.7606717e-01	
   3.2560000e+01	  -6.1186638e-01	  -1.0066359e-01	  -1.7604133e-01	
   3.2615000e+01	  -6.1085141e-01	  -1.0431699e-01	  -1.7587011e-01	
   3.2670000e+01	  -6.1081960e-01	  -1.0800125e-01	  -1.7551130e-01	
   3.2725000e+01	  -6.1166553e-01	  -1.1159523e-01	  -1.7496365e-01	
   3.2780000e+01	  -6.1329148e-01	  -1.1501243e-01	  -1.7426433e-01	
   3.2835000e+01	  -6.1560760e-01	  -1.1820140e-01	  -1.7347999e-01	
   3.2890000e+01	  -6.1852714e-01	  -1.2114018e-01	  -1.7269262e-01	
   3.2945000e+01	  -6.2195774e-01	  -1.2382677e-01	  -1.7198335e-01	
   3.3000000e+01	  -6.2579111e-01	  -1.2626831e-01	  -1.7141798e-01	
   3.3055000e+01	  -6.2989441e-01	  -1.2847116e-01	  -1.7103709e-01	
   3.3110000e+01	  -6.3410628e-01	  -1.3043353e-01	  -1.7085153e-01	
   3.3165000e+01	  -6.3823859e-01	  -1.3214176e-01	  -1.7084305e-01	
   3.3220000e+01	  -6.4208327e-01	  -1.3357016e-01	  -1.7096932e-01	
   3.3275000e+01	  -6.4542348e-01	  -1.3468386e-01	  -1.7117284e-01	
   3.3330000e+01	  -6.4804836e-01	  -1.3544403e-01	  -1.7139187e-01	
   3.3385000e+01	  -6.4976878e-01	  -1.3581498e-01	  -1.7157116e-01	
   3.3440000e+01	  -6.5043155e-01	  -1.3577216e-01	  -1.7167076e-01	
   3.3495000e+01	  -6.4993165e-01	  -1.3530941e-01	  -1.7167237e-01	
   3.3550000e+01	  -6.4822230e-01	  -1.3444424e-01	  -1.7158314e-01	
   3.3605000e+01	  -6.4532101e-01	  -1.3322010e-01	  -1.7143592e-01	
   3.3660000e+01	  -6.4130723e-01	  -1.3170471e-01	  -1.7128526e-01	
   3.3715000e+01	  -6.3631025e-01	  -1.2998404e-01	  -1.7119947e-01	
   3.3770000e+01	  -6.3049095e-01	  -1.2815332e-01	  -1.7125039e-01	
   3.3825000e+01	  -6.2402336e-01	  -1.2630711e-01	  -1.7150325e-01	
   3.3880000e+01	  -6.1707952e-01	  -1.2452959e-01	  -1.7200783e-01	
   3.3935000e+01	  -6.0981854e-01	  -1.2288547e-01	  -1.7279222e-01	
   3.3990000e+01	  -6.0237985e-01	  -1.2141332e-01	  -1.7385969e-01	
   3.4045000e+01	  -5.9487958e-01	  -1.2012287e-01	  -1.7518870e-01	
   3.4100000e+01	  -5.8741020e-01	  -1.1899690e-01	  -1.7673578e-01	
   3.4155000e+01	  -5.8004430e-01	  -1.1799682e-01	  -1.7844114e-01	
   3.4210000e+01	  -5.7284216e-01	  -1.1707081e-01	  -1.8023607e-01	
   3.4265000e+01	  -5.6585965e-01	  -1.1616294e-01	  -1.8205030e-01	
   3.4320000e+01	  -5.5915276e-01	  -1.1522093e-01	  -1.8381789e-01	
   3.4375000e+01	  -5.5277751e-01	  -1.1420038e-01	  -1.8548056e-01	
   3.4430000e+01	  -5.4678586e-01	  -1.1306523e-01	  -1.8698673e-01	
   3.4485000e+01	  -5.4121832e-01	  -1.1178488e-01	  -1.8828496e-01	
   3.4540000e+01	  -5.3609434e-01	  -1.1032891e-01	  -1.8931374e-01	
   3.4595000e+01	  -5.3140258e-01	  -1.0866112e-01	  -1.8999215e-01	
   3.4650000e+01	  -5.2709406e-01	  -1.0673516e-01	  -1.9021522e-01	
   3.4705000e+01	  -5.2307930e-01	  -1.0449328e-01	  -1.8985515e-01	
   3.4760000e+01	  -5.1922935e-01	  -1.0186786e-01	  -1.8876798e-01	
   3.4815000e+01	  -5.1538002e-01	  -9.8784803e-02	  -1.8680428e-01	
   3.4870000e+01	  -5.1134029e-01	  -9.5169039e-02	  -1.8382241e-01	
   3.4925000e+01	  -5.0690511e-01	  -9.0951804e-02	  -1.7970262e-01	
   3.4980000e+01	  -5.0187202e-01	  -8.6078393e-02	  -1.7436015e-01	
   3.5035000e+01	  -4.9606011e-01	  -8.0514893e-02	  -1.6775570e-01	
   3.5090000e+01	  -4.8932964e-01	  -7.4253547e-02	  -1.5990133e-01	
   3.5145000e+01	  -4.8159878e-01	  -6.7316633e-02	  -1.5086104e-01	
   3.5200000e+01	  -4.7285229e-01	  -5.9757417e-02	  -1.4074572e-01	
   3.5255000e+01	  -4.6313841e-01	  -5.1656338e-02	  -1.2970277e-01	
   3.5310000e+01	  -4.5255490e-01	  -4.3112517e-02	  -1.1790104e-01	
   3.5365000e+01	  -4.4122967e-01	  -3.4232771e-02	  -1.0551382e-01	
   3.5420000e+01	  -4.2930230e-01	  -2.5120472e-02	  -9.2703687e-02	
   3.5475000e+01	  -4.1691043e-01	  -1.5866028e-02	  -7.9612329e-02	
   3.5530000e+01	  -4.0418035e-01	  -6.5407221e-03	  -6.6356384e-02	
   3.5585000e+01	  -3.9121922e-01	   2.8047256e-03	  -5.3028323e-02	
   3.5640000e+01	  -3.7810785e-01	   1.2136958e-02	  -3.9700951e-02	
   3.5695000e+01	  -3.6489641e-01	   2.1433545e-02	  -2.6434472e-02	
   3.5750000e+01	  -3.5160616e-01	   3.0674844e-02	  -1.3284850e-02	
   3.5805000e+01	  -3.3823776e-01	   3.9835571e-02	  -3.1167340e-04	
   3.5860000e+01	  -3.2478351e-01	   4.8877771e-02	   1.2415968e-02	
   3.5915000e+01	  -3.1123931e-01	   5.7746695e-02	   2.4816590e-02	
   3.5970000e+01	  -2.9761313e-01	   6.6369968e-02	   3.6797649e-02	
   3.6025000e+01	  -2.8392820e-01	   7.4660020e-02	   4.8262080e-02	
   3.6080000e+01	  -2.7022040e-01	   8.2520215e-02	   5.9118931e-02	
   3.6135000e+01	  -2.5653061e-01	   8.9854476e-02	   6.9294895e-02	
   3.6190000e+01	  -2.4289526e-01	   9.6578514e-02	   7.8743822e-02	
   3.6245000e+01	  -2.2933901e-01	   1.0262999e-01	   8.7452540e-02	
   3.6300000e+01	  -2.1587205e-01	   1.0797609e-01	   9.5441926e-02	
   3.6355000e+01	  -2.0249219e-01	   1.1261788e-01	   1.0276320e-01	
   3.6410000e+01	  -1.8919125e-01	   1.1659071e-01	   1.0949092e-01	
   3.6465000e+01	  -1.7596484e-01	   1.1996007e-01	   1.1571448e-01	
   3.6520000e+01	  -1.6282424e-01	   1.2281358e-01	   1.2152895e-01	
   3.6575000e+01	  -1.4980848e-01	   1.2525084e-01	   1.2702505e-01	
   3.6630000e+01	  -1.3699396e-01	   1.2737230e-01	   1.3227830e-01	
   3.6685000e+01	  -1.2449792e-01	   1.2926843e-01	   1.3733873e-01	
   3.6740000e+01	  -1.1247324e-01	   1.3101078e-01	   1.4222320e-01	
   3.6795000e+01	  -1.0109433e-01	   1.3264659e-01	   1.4691274e-01	
   3.6850000e+01	  -9.0537227e-02	   1.3419794e-01	   1.5135654e-01	
   3.6905000e+01	  -8.0958366e-02	   1.3566522e-01	   1.5548262e-01	
   3.6960000e+01	  -7.2476584e-02	   1.3703405e-01	   1.5921233e-01	
   3.7015000e+01	  -6.5160785e-02	   1.3828344e-01	   1.6247482e-01	
   3.7070000e+01	  -5.9024111e-02	   1.3939282e-01	   1.6521858e-01	
   3.7125000e+01	  -5.4024200e-02	   1.4034607e-01	   1.6741925e-01	
   3.7180000e+01	  -5.0068144e-02	   1.4113245e-01	   1.6908309e-01	
   3.7235000e+01	  -4.7021239e-02	   1.4174551e-01	   1.7024484e-01	
   3.7290000e+01	  -4.4719784e-02	   1.4218086e-01	   1.7096060e-01	
   3.7345000e+01	  -4.2987302e-02	   1.4243307e-01	   1.7129755e-01	
   3.7400000e+01	  -4.1650872e-02	   1.4249210e-01	   1.7132261e-01	
   3.7455000e+01	  -4.0553354e-02	   1.4234029e-01	   1.7109152e-01	
   3.7510000e+01	  -3.9559489e-02	   1.4195007e-01	   1.7064126e-01	
   3.7565000e+01	  -3.8556145e-02	   1.4128291e-01	   1.6998856e-01	
   3.7620000e+01	  -3.7447796e-02	   1.4029086e-01	   1.6913515e-01	
   3.7675000e+01	  -3.6149105e-02	   1.3892218e-01	   1.6807713e-01	
   3.7730000e+01	  -3.4577479e-02	   1.3713018e-01	   1.6681525e-01	
   3.7785000e+01	  -3.2648190e-02	   1.3488276e-01	   1.6536369e-01	
   3.7840000e+01	  -3.0273953e-02	   1.3216985e-01	   1.6375550e-01	
   3.7895000e+01	  -2.7370517e-02	   1.2900732e-01	   1.6204383e-01	
   3.7950000e+01	  -2.3868355e-02	   1.2543701e-01	   1.6029854e-01	
   3.8005000e+01	  -1.9727937e-02	   1.2152319e-01	   1.5859929e-01	
   3.8060000e+01	  -1.4954656e-02	   1.1734660e-01	   1.5702580e-01	
   3.8115000e+01	  -9.6106169e-03	   1.1299694e-01	   1.5564626e-01	
   3.8170000e+01	  -3.8223259e-03	   1.0856430e-01	   1.5450574e-01	
   3.8225000e+01	   2.2166283e-03	   1.0412959e-01	   1.5361727e-01	
   3.8280000e+01	   8.2494928e-03	   9.9755429e-02	   1.5295685e-01	
   3.8335000e+01	   1.3967463e-02	   9.5479213e-02	   1.5246254e-01	
   3.8390000e+01	   1.9026961e-02	   9.1309888e-02	   1.5203861e-01	
   3.8445000e+01	   2.3072166e-02	   8.7229077e-02	   1.5156550e-01	
   3.8500000e+01	   2.5762128e-02	   8.3196442e-02	   1.5091456e-01	
   3.8555000e+01	   2.6799691e-02	   7.9158434e-02	   1.4996410e-01	
   3.8610000e+01	   2.5957157e-02	   7.5058494e-02	   1.4861387e-01	
   3.8665000e+01	   2.3095096e-02	   7.0846632e-02	   1.4679574e-01	
   3.8720000e+01	   1.8174050e-02	   6.6487147e-02	   1.4447918e-01	
   3.8775000e+01	   1.1258828e-02	   6.1964011e-02	   1.4167098e-01	
   3.8830000e+01	   2.5130170e-03	   5.7283272e-02	   1.3841049e-01	
   3.8885000e+01	  -7.8172600e-03	   5.2471661e-02	   1.3476190e-01	
   3.8940000e+01	  -1.9427231e-02	   4.7571505e-02	   1.3080421e-01	
   3.8995000e+01	  -3.1980707e-02	   4.2633086e-02	   1.2661875e-01	
   3.9050000e+01	  -4.5137872e-02	   3.7705625e-02	   1.2227535e-01	
   3.9105000e+01	  -5.8581294e-02	   3.2827713e-02	   1.1781964e-01	
   3.9160000e+01	  -7.2037217e-02	   2.8018338e-02	   1.1326369e-01	
   3.9215000e+01	  -8.5289307e-02	   2.3270003e-02	   1.0858168e-01	
   3.9270000e+01	  -9.8182729e-02	   1.8545274e-02	   1.0371231e-01	
   3.9325000e+01	  -1.1061841e-01	   1.3777944e-02	   9.8568934e-02	
   3.9380000e+01	  -1.2254042e-01	   8.8798181e-03	   9.3056175e-02	
   3.9435000e+01	  -1.3392068e-01	   3.7528555e-03	   8.7089054e-02	
   3.9490000e+01	  -1.4474384e-01	  -1.6958075e-03	   8.0610312e-02	
   3.9545000e+01	  -1.5499459e-01	  -7.5394150e-03	   7.3602995e-02	
   3.9600000e+01	  -1.6464928e-01	  -1.3820322e-02	   6.6096870e-02	
   3.9655000e+01	  -1.7367297e-01	  -2.0543107e-02	   5.8168182e-02	
   3.9710000e+01	  -1.8202144e-01	  -2.7672807e-02	   4.9933400e-02	
   3.9765000e+01	  -1.8964651e-01	  -3.5138608e-02	   4.1538473e-02	
   3.9820000e+01	  -1.9650260e-01	  -4.2842002e-02	   3.3145239e-02	
   3.9875000e+01	  -2.0255407e-01	  -5.0667301e-02	   2.4916314e-02	
   3.9930000e+01	  -2.0778426e-01	  -5.8492939e-02	   1.6999940e-02	
   3.9985000e+01	  -2.1220621e-01	  -6.6203061e-02	   9.5161543e-03	
   4.0040000e+01	  -2.1587185e-01	  -7.3698927e-02	   2.5451967e-03	
   4.0095000e+01	  -2.1887513e-01	  -8.0908833e-02	  -3.8805177e-03	
   4.0150000e+01	  -2.2134629e-01	  -8.7794748e-02	  -9.7786602e-03	
   4.0205000e+01	  -2.2343722e-01	  -9.4353571e-02	  -1.5211696e-02	
   4.0260000e+01	  -2.2530081e-01	  -1.0061164e-01	  -2.0274435e-02	
   4.0315000e+01	  -2.2707041e-01	  -1.0661344e-01	  -2.5077468e-02	
   4.0370000e+01	  -2.2884534e-01	  -1.1240782e-01	  -2.9730583e-02	
   4.0425000e+01	  -2.3068483e-01	  -1.1803486e-01	  -3.4329053e-02	
   4.0480000e+01	  -2.3260892e-01	  -1.2351569e-01	  -3.8943824e-02	
   4.0535000e+01	  -2.3460410e-01	  -1.2884666e-01	  -4.3615868e-02	
   4.0590000e+01	  -2.3663234e-01	  -1.3399929e-01	  -4.8354905e-02	
   4.0645000e+01	  -2.3864321e-01	  -1.3892597e-01	  -5.3142247e-02	
   4.0700000e+01	  -2.4058755e-01	  -1.4356913e-01	  -5.7937176e-02	
   4.0755000e+01	  -2.4243111e-01	  -1.4787158e-01	  -6.2686191e-02	
   4.0810000e+01	  -2.4416689e-01	  -1.5178578e-01	  -6.7333954e-02	
   4.0865000e+01	  -2.4582477e-01	  -1.5528170e-01	  -7.1833850e-02	
   4.0920000e+01	  -2.4747599e-01	  -1.5835221e-01	  -7.6155715e-02	
   4.0975000e+01	  -2.4923082e-01	  -1.6101501e-01	  -8.0288881e-02	
   4.1030000e+01	  -2.5122936e-01	  -1.6331040e-01	  -8.4239377e-02	
   4.1085000e+01	  -2.5362653e-01	  -1.6529500e-01	  -8.8021784e-02	
   4.1140000e+01	  -2.5657294e-01	  -1.6703260e-01	  -9.1648695e-02	
   4.1195000e+01	  -2.6019378e-01	  -1.6858361e-01	  -9.5121592e-02	
   4.1250000e+01	  -2.6456976e-01	  -1.6999544e-01	  -9.8425013e-02	
   4.1305000e+01	  -2.6972442e-01	  -1.7129584e-01	  -1.0152403e-01	
   4.1360000e+01	  -2.7561995e-01	  -1.7248985e-01	  -1.0436529e-01	
   4.1415000e+01	  -2.8216185e-01	  -1.7356045e-01	  -1.0688237e-01	
   4.1470000e+01	  -2.8921118e-01	  -1.7447269e-01	  -1.0900514e-01	
   4.1525000e+01	  -2.9660198e-01	  -1.7518093e-01	  -1.1067110e-01	
   4.1580000e+01	  -3.0415844e-01	  -1.7563801e-01	  -1.1183630e-01	
   4.1635000e+01	  -3.1170890e-01	  -1.7580423e-01	  -1.1248362e-01	
   4.1690000e+01	  -3.1909665e-01	  -1.7565472e-01	  -1.1262652e-01	
   4.1745000e+01	  -3.2618748e-01	  -1.7518359e-01	  -1.1230621e-01	
   4.1800000e+01	  -3.3287190e-01	  -1.7440403e-01	  -1.1158219e-01	
   4.1855000e+01	  -3.3906037e-01	  -1.7334357e-01	  -1.1051847e-01	
   4.1910000e+01	  -3.4467352e-01	  -1.7203632e-01	  -1.0916894e-01	
   4.1965000e+01	  -3.4963179e-01	  -1.7051453e-01	  -1.0756496e-01	
   4.2020000e+01	  -3.5384887e-01	  -1.6880181e-01	  -1.0570751e-01	
   4.2075000e+01	  -3.5723175e-01	  -1.6690862e-01	  -1.0356542e-01	
   4.2130000e+01	  -3.5968718e-01	  -1.6483043e-01	  -1.0108025e-01	
   4.2185000e+01	  -3.6113224e-01	  -1.6254880e-01	  -9.8176595e-02	
   4.2240000e+01	  -3.6150499e-01	  -1.6003526e-01	  -9.4776148e-02	
   4.2295000e+01	  -3.6077320e-01	  -1.5725698e-01	  -9.0813737e-02	
   4.2350000e+01	  -3.5894111e-01	  -1.5418352e-01	  -8.6252800e-02	
   4.2405000e+01	  -3.5605490e-01	  -1.5079447e-01	  -8.1097614e-02	
   4.2460000e+01	  -3.5220559e-01	  -1.4708664e-01	  -7.5400248e-02	
   4.2515000e+01	  -3.4752827e-01	  -1.4307816e-01	  -6.9260898e-02	
   4.2570000e+01	  -3.4219636e-01	  -1.3880770e-01	  -6.2820577e-02	
   4.2625000e+01	  -3.3641021e-01	  -1.3432886e-01	  -5.6246291e-02	
   4.2680000e+01	  -3.3038193e-01	  -1.2970169e-01	  -4.9711304e-02	
   4.2735000e+01	  -3.2432040e-01	  -1.2498333e-01	  -4.3375103e-02	
   4.2790000e+01	  -3.1842005e-01	  -1.2021929e-01	  -3.7366932e-02	
   4.2845000e+01	  -3.1285395e-01	  -1.1543657e-01	  -3.1774656e-02	
   4.2900000e+01	  -3.0777038e-01	  -1.1063963e-01	  -2.6639527e-02	
   4.2955000e+01	  -3.0329181e-01	  -1.0580960e-01	  -2.1956991e-02	
   4.3010000e+01	  -2.9951568e-01	  -1.0090705e-01	  -1.7683296e-02	
   4.3065000e+01	  -2.9651659e-01	  -9.5878518e-02	  -1.3746985e-02	
   4.3120000e+01	  -2.9435006e-01	  -9.0665834e-02	  -1.0063838e-02	
   4.3175000e+01	  -2.9305788e-01	  -8.5216809e-02	  -6.5531478e-03	
   4.3230000e+01	  -2.9267323e-01	  -7.9495584e-02	  -3.1524120e-03	
   4.3285000e+01	  -2.9322303e-01	  -7.3490864e-02	   1.7269032e-04	
   4.3340000e+01	  -2.9472371e-01	  -6.7220114e-02	   3.4251149e-03	
   4.3395000e+01	  -2.9717067e-01	  -6.0728380e-02	   6.5802957e-03	
   4.3450000e+01	  -3.0052546e-01	  -5.4082326e-02	   9.5956064e-03	
   4.3505000e+01	  -3.0470612e-01	  -4.7361832e-02	   1.2422818e-02	
   4.3560000e+01	  -3.0958316e-01	  -4.0651190e-02	   1.5020199e-02	
   4.3615000e+01	  -3.1498146e-01	  -3.4030862e-02	   1.7361438e-02	
   4.3670000e+01	  -3.2068735e-01	  -2.7570760e-02	   1.9440293e-02	
   4.3725000e+01	  -3.2645974e-01	  -2.1326199e-02	   2.1271131e-02	
   4.3780000e+01	  -3.3204450e-01	  -1.5336958e-02	   2.2885459e-02	
   4.3835000e+01	  -3.3719132e-01	  -9.6289257e-03	   2.4324720e-02	
   4.3890000e+01	  -3.4167192e-01	  -4.2179232e-03	   2.5630660e-02	
   4.3945000e+01	  -3.4529608e-01	   8.8452980e-04	   2.6835350e-02	
   4.4000000e+01	  -3.4792287e-01	   5.6644753e-03	   2.7952858e-02	
   4.4055000e+01	  -3.4946626e-01	   1.0099773e-02	   2.8974198e-02	
   4.4110000e+01	  -3.4989550e-01	   1.4157555e-02	   2.9867297e-02	
   4.4165000e+01	  -3.4922911e-01	   1.7796376e-02	   3.0582800e-02	
   4.4220000e+01	  -3.4752248e-01	   2.0972995e-02	   3.1064230e-02	
   4.4275000e+01	  -3.4485273e-01	   2.3651551e-02	   3.1259238e-02	
   4.4330000e+01	  -3.4130659e-01	   2.5811825e-02	   3.1129412e-02	
   4.4385000e+01	  -3.3697406e-01	   2.7454375e-02	   3.0657427e-02	
   4.4440000e+01	  -3.3194588e-01	   2.8602375e-02	   2.9850646e-02	
   4.4495000e+01	  -3.2631223e-01	   2.9300585e-02	   2.8740531e-02	
   4.4550000e+01	  -3.2016220e-01	   2.9611601e-02	   2.7378477e-02	
   4.4605000e+01	  -3.1358490e-01	   2.9609703e-02	   2.5829637e-02	
   4.4660000e+01	  -3.0667264e-01	   2.9373472e-02	   2.4165868e-02	
   4.4715000e+01	  -2.9952526e-01	   2.8978811e-02	   2.2458232e-02	
   4.4770000e+01	  -2.9225320e-01	   2.8493745e-02	   2.0770252e-02	
   4.4825000e+01	  -2.8497728e-01	   2.7975971e-02	   1.9154394e-02	
   4.4880000e+01	  -2.7782334e-01	   2.7473975e-02	   1.7653254e-02	
   4.4935000e+01	  -2.7091279e-01	   2.7031862e-02	   1.6304173e-02	
   4.4990000e+01	  -2.6435223e-01	   2.6696086e-02	   1.5144926e-02	
   4.5045000e+01	  -2.5822494e-01	   2.6521117e-02	   1.4218864e-02	
   4.5100000e+01	  -2.5258434e-01	   2.6572202e-02	   1.3578256e-02	
   4.5155000e+01	  -2.4745021e-01	   2.6925194e-02	   1.3284570e-02	
   4.5210000e+01	  -2.4280805e-01	   2.7663772e-02	   1.3405351e-02	
   4.5265000e+01	  -2.3861205e-01	   2.8874300e-02	   1.4008021e-02	
   4.5320000e+01	  -2.3479109e-01	   3.0639131e-02	   1.5151086e-02	
   4.5375000e+01	  -2.3125807e-01	   3.3029720e-02	   1.6873754e-02	
   4.5430000e+01	  -2.2792221e-01	   3.6100332e-02	   1.9186358e-02	
   4.5485000e+01	  -2.2470055e-01	   3.9882700e-02	   2.2064880e-02	
   4.5540000e+01	  -2.2152383e-01	   4.4382553e-02	   2.5452073e-02	
   4.5595000e+01	  -2.1833434e-01	   4.9579292e-02	   2.9265196e-02	
   4.5650000e+01	  -2.1507796e-01	   5.5429146e-02	   3.3408156e-02	
   4.5705000e+01	  -2.1169541e-01	   6.1870732e-02	   3.7785049e-02	
   4.5760000e+01	  -2.0811695e-01	   6.8831650e-02	   4.2312138e-02	
   4.5815000e+01	  -2.0426282e-01	   7.6235381e-02	   4.6925848e-02	
   4.5870000e+01	  -2.0004951e-01	   8.4007865e-02	   5.1585779e-02	
   4.5925000e+01	  -1.9540064e-01	   9.2082407e-02	   5.6273395e-02	
   4.5980000e+01	  -1.9026008e-01	   1.0040150e-01	   6.0987391e-02	
   4.6035000e+01	  -1.8460422e-01	   1.0891505e-01	   6.5736681e-02	
   4.6090000e+01	  -1.7845091e-01	   1.1757538e-01	   7.0532261e-02	
   4.6145000e+01	  -1.7186365e-01	   1.2632976e-01	   7.5379425e-02	
   4.6200000e+01	  -1.6494986e-01	   1.3511248e-01	   8.0271215e-02	
   4.6255000e+01	  -1.5785302e-01	   1.4383910e-01	   8.5183771e-02	
   4.6310000e+01	  -1.5073886e-01	   1.5240508e-01	   9.0074971e-02	
   4.6365000e+01	  -1.4377618e-01	   1.6068948e-01	   9.4888035e-02	
   4.6420000e+01	  -1.3711392e-01	   1.6856345e-01	   9.9560227e-02	
   4.6475000e+01	  -1.3085847e-01	   1.7590201e-01	   1.0403456e-01	
   4.6530000e+01	  -1.2505596e-01	   1.8259654e-01	   1.0827120e-01	
   4.6585000e+01	  -1.1968408e-01	   1.8856490e-01	   1.1225558e-01	
   4.6640000e+01	  -1.1465485e-01	   1.9375776e-01	   1.1600144e-01	
   4.6695000e+01	  -1.0982736e-01	   1.9816059e-01	   1.1954775e-01	
   4.6750000e+01	  -1.0502771e-01	   2.0179160e-01	   1.2295013e-01	
   4.6805000e+01	  -1.0007148e-01	   2.0469603e-01	   1.2626934e-01	
   4.6860000e+01	  -9.4784758e-02	   2.0693791e-01	   1.2955944e-01	
   4.6915000e+01	  -8.9021785e-02	   2.0859104e-01	   1.3285667e-01	
   4.6970000e+01	  -8.2679795e-02	   2.0973045e-01	   1.3617005e-01	
   4.7025000e+01	  -7.5709651e-02	   2.1042477e-01	   1.3947534e-01	
   4.7080000e+01	  -6.8119285e-02	   2.1073036e-01	   1.4271446e-01	
   4.7135000e+01	  -5.9968212e-02	   2.1068891e-01	   1.4580115e-01	
   4.7190000e+01	  -5.1355030e-02	   2.1032963e-01	   1.4863222e-01	
   4.7245000e+01	  -4.2401722e-02	   2.0967542e-01	   1.5110223e-01	
   4.7300000e+01	  -3.3238007e-02	   2.0875083e-01	   1.5311847e-01	
   4.7355000e+01	  -2.3988093e-02	   2.0758955e-01	   1.5461322e-01	
   4.7410000e+01	  -1.4761840e-02	   2.0623964e-01	   1.5555138e-01	
   4.7465000e+01	  -5.6508341e-03	   2.0476493e-01	   1.5593348e-01	
   4.7520000e+01	   3.2716727e-03	   2.0324241e-01	   1.5579469e-01	
   4.7575000e+01	   1.1948023e-02	   2.0175612e-01	   1.5519986e-01	
   4.7630000e+01	   2.0331347e-02	   2.0038886e-01	   1.5423508e-01	
   4.7685000e+01	   2.8380457e-02	   1.9921277e-01	   1.5299753e-01	
   4.7740000e+01	   3.6056542e-02	   1.9828021e-01	   1.5158515e-01	
   4.7795000e+01	   4.3322569e-02	   1.9761656e-01	   1.5008734e-01	
   4.7850000e+01	   5.0145376e-02	   1.9721586e-01	   1.4857807e-01	
   4.7905000e+01	   5.6500347e-02	   1.9704010e-01	   1.4711342e-01	
   4.7960000e+01	   6.2377829e-02	   1.9702271e-01	   1.4573415e-01	
   4.8015000e+01	   6.7788954e-02	   1.9707613e-01	   1.4447161e-01	
   4.8070000e+01	   7.2768329e-02	   1.9710192e-01	   1.4335427e-01	
   4.8125000e+01	   7.7372547e-02	   1.9700169e-01	   1.4241272e-01	
   4.8180000e+01	   8.1674827e-02	   1.9668705e-01	   1.4168154e-01	
   4.8235000e+01	   8.5756439e-02	   1.9608738e-01	   1.4119706e-01	
   4.8290000e+01	   8.9695778e-02	   1.9515364e-01	   1.4099161e-01	
   4.8345000e+01	   9.3556911e-02	   1.9385759e-01	   1.4108599e-01	
   4.8400000e+01	   9.7380337e-02	   1.9218687e-01	   1.4148211e-01	
   4.8455000e+01	   1.0117800e-01	   1.9013875e-01	   1.4215703e-01	
   4.8510000e+01	   1.0493224e-01	   1.8771534e-01	   1.4305988e-01	
   4.8565000e+01	   1.0859770e-01	   1.8492172e-01	   1.4411322e-01	
   4.8620000e+01	   1.1210680e-01	   1.8176684e-01	   1.4522007e-01	
   4.8675000e+01	   1.1537972e-01	   1.7826685e-01	   1.4627567e-01	
   4.8730000e+01	   1.1833719e-01	   1.7445000e-01	   1.4718162e-01	
   4.8785000e+01	   1.2091229e-01	   1.7036141e-01	   1.4785905e-01	
   4.8840000e+01	   1.2305791e-01	   1.6606596e-01	   1.4825868e-01	
   4.8895000e+01	   1.2474757e-01	   1.6164871e-01	   1.4836660e-01	
   4.8950000e+01	   1.2596882e-01	   1.5721268e-01	   1.4820535e-01	
   4.9005000e+01	   1.2671153e-01	   1.5287373e-01	   1.4783039e-01	
   4.9060000e+01	   1.2695564e-01	   1.4875266e-01	   1.4732179e-01	
   4.9115000e+01	   1.2666226e-01	   1.4496560e-01	   1.4677199e-01	
   4.9170000e+01	   1.2576873e-01	   1.4161395e-01	   1.4627110e-01	
   4.9225000e+01	   1.2418700e-01	   1.3877477e-01	   1.4589250e-01	
   4.9280000e+01	   1.2180532e-01	   1.3649243e-01	   1.4568109e-01	
   4.9335000e+01	   1.1849463e-01	   1.3477350e-01	   1.4564618e-01	
   4.9390000e+01	   1.1412158e-01	   1.3358588e-01	   1.4576039e-01	
   4.9445000e+01	   1.0856794e-01	   1.3286288e-01	   1.4596520e-01	
   4.9500000e+01	   1.0175337e-01	   1.3251177e-01	   1.4618240e-01	
   4.9555000e+01	   9.3656393e-02	   1.3242613e-01	   1.4632874e-01	
   4.9610000e+01	   8.4328941e-02	   1.3249968e-01	   1.4633014e-01	
   4.9665000e+01	   7.3903103e-02	   1.3263863e-01	   1.4613237e-01	
   4.9720000e+01	   6.2589995e-02	   1.3277064e-01	   1.4570675e-01	
   4.9775000e+01	   5.0670199e-02	   1.3284963e-01	   1.4505083e-01	
   4.9830000e+01	   3.8475364e-02	   1.3285637e-01	   1.4418497e-01	
   4.9885000e+01	   2.6362955e-02	   1.3279423e-01	   1.4314586e-01	
   4.9940000e+01	   1.4688145e-02	   1.3268073e-01	   1.4197793e-01	
   4.9995000e+01	   3.7765915e-03	   1.3253696e-01	   1.4072261e-01	
   5.0050000e+01	  -6.0993670e-03	   1.3237672e-01	   1.3940642e-01	
   5.0105000e+01	  -1.4738635e-02	   1.3219653e-01	   1.3803026e-01	
   5.0160000e+01	  -2.2020792e-02	   1.3196826e-01	   1.3656241e-01	
   5.0215000e+01	  -2.7905361e-02	   1.3163692e-01	   1.3493741e-01	
   5.0270000e+01	  -3.2421289e-02	   1.3112504e-01	   1.3306209e-01	
   5.0325000e+01	  -3.5649456e-02	   1.3034252e-01	   1.3082832e-01	
   5.0380000e+01	  -3.7703092e-02	   1.2919954e-01	   1.2812914e-01	
   5.0435000e+01	  -3.8710865e-02	   1.2761986e-01	   1.2487410e-01	
   5.0490000e+01	  -3.8804711e-02	   1.2555188e-01	   1.2100109e-01	
   5.0545000e+01	  -3.8111546e-02	   1.2297566e-01	   1.1648412e-01	
   5.0600000e+01	  -3.6747863e-02	   1.1990537e-01	   1.1133678e-01	
   5.0655000e+01	  -3.4817501e-02	   1.1638735e-01	   1.0561060e-01	
   5.0710000e+01	  -3.2412765e-02	   1.1249373e-01	   9.9388302e-02	
   5.0765000e+01	  -2.9617560e-02	   1.0831239e-01	   9.2773413e-02	
   5.0820000e+01	  -2.6510645e-02	   1.0393486e-01	   8.5877744e-02	
   5.0875000e+01	  -2.3168344e-02	   9.9444678e-02	   7.8808050e-02	
   5.0930000e+01	  -1.9667589e-02	   9.4907263e-02	   7.1653522e-02	
   5.0985000e+01	  -1.6089412e-02	   9.0362317e-02	   6.4477136e-02	
   5.1040000e+01	  -1.2520686e-02	   8.5819483e-02	   5.7313621e-02	
   5.1095000e+01	  -9.0518065e-03	   8.1258796e-02	   5.0174892e-02	
   5.1150000e+01	  -5.7708326e-03	   7.6636596e-02	   4.3061391e-02	
   5.1205000e+01	  -2.7563284e-03	   7.1895748e-02	   3.5975923e-02	
   5.1260000e+01	  -7.0316895e-05	   6.6977727e-02	   2.8936071e-02	
   5.1315000e+01	   2.2481429e-03	   6.1834229e-02	   2.1982205e-02	
   5.1370000e+01	   4.1875962e-03	   5.6436506e-02	   1.5180017e-02	
   5.1425000e+01	   5.7652101e-03	   5.0781089e-02	   8.6180174e-03	
   5.1480000e+01	   7.0233232e-03	   4.4891447e-02	   2.4008100e-03	
   5.1535000e+01	   8.0221426e-03	   3.8816201e-02	  -3.3609193e-03	
   5.1590000e+01	   8.8295588e-03	   3.2624788e-02	  -8.5620898e-03	
   5.1645000e+01	   9.5091110e-03	   2.6400958e-02	  -1.3114457e-02	
   5.1700000e+01	   1.0107551e-02	   2.0234628e-02	  -1.6955519e-02	
   5.1755000e+01	   1.0644015e-02	   1.4213421e-02	  -2.0053629e-02	
   5.1810000e+01	   1.1103687e-02	   8.4158397e-03	  -2.2408024e-02	
   5.1865000e+01	   1.1439196e-02	   2.9080423e-03	  -2.4043364e-02	
   5.1920000e+01	   1.1581064e-02	  -2.2546559e-03	  -2.5000260e-02	
   5.1975000e+01	   1.1454806e-02	  -7.0222365e-03	  -2.5324899e-02	
   5.2030000e+01	   1.0999602e-02	  -1.1343080e-02	  -2.5060571e-02	
   5.2085000e+01	   1.0183874e-02	  -1.5159136e-02	  -2.4242470e-02	
   5.2140000e+01	   9.0153109e-03	  -1.8405146e-02	  -2.2896249e-02	
   5.2195000e+01	   7.5439607e-03	  -2.1011656e-02	  -2.1040407e-02	
   5.2250000e+01	   5.8575508e-03	  -2.2910673e-02	  -1.8691867e-02	
   5.2305000e+01	   4.0698769e-03	  -2.4043317e-02	  -1.5873347e-02	
   5.2360000e+01	   2.3053318e-03	  -2.4368715e-02	  -1.2620722e-02	
   5.2415000e+01	   6.8312762e-04	  -2.3872714e-02	  -8.9890429e-03	
   5.2470000e+01	  -6.9631768e-04	  -2.2575113e-02	  -5.0563237e-03	
   5.2525000e+01	  -1.7615023e-03	  -2.0534658e-02	  -9.2409766e-04	
   5.2580000e+01	  -2.4754648e-03	  -1.7850482e-02	   3.2867686e-03	
   5.2635000e+01	  -2.8356762e-03	  -1.4657918e-02	   7.4457016e-03	
   5.2690000e+01	  -2.8676257e-03	  -1.1117817e-02	   1.1426133e-02	
   5.2745000e+01	  -2.6137964e-03	  -7.4012891e-03	   1.5120329e-02	
   5.2800000e+01	  -2.1213642e-03	  -3.6733093e-03	   1.8452206e-02	
   5.2855000e+01	  -1.4312203e-03	  -7.8145531e-05	   2.1385603e-02	
   5.2910000e+01	  -5.6992117e-04	   3.2712495e-03	   2.3926374e-02	
   5.2965000e+01	   4.5387691e-04	   6.2983497e-03	   2.6117812e-02	
   5.3020000e+01	   1.6477068e-03	   8.9624549e-03	   2.8030337e-02	
   5.3075000e+01	   3.0289953e-03	   1.1253575e-02	   2.9747282e-02	
   5.3130000e+01	   4.6156832e-03	   1.3184475e-02	   3.1349136e-02	
   5.3185000e+01	   6.4159674e-03	   1.4781408e-02	   3.2898919e-02	
   5.3240000e+01	   8.4203015e-03	   1.6074924e-02	   3.4431003e-02	
   5.3295000e+01	   1.0598102e-02	   1.7091899e-02	   3.5944662e-02	
   5.3350000e+01	   1.2899261e-02	   1.7849932e-02	   3.7403043e-02	
   5.3405000e+01	   1.5259809e-02	   1.8355259e-02	   3.8738598e-02	
   5.3460000e+01	   1.7612030e-02	   1.8605110e-02	   3.9865353e-02	
   5.3515000e+01	   1.9898142e-02	   1.8594169e-02	   4.0695843e-02	
   5.3570000e+01	   2.2083818e-02	   1.8323142e-02	   4.1158420e-02	
   5.3625000e+01	   2.4167863e-02	   1.7806833e-02	   4.1211305e-02	
   5.3680000e+01	   2.6187173e-02	   1.7079815e-02	   4.0851527e-02	
   5.3735000e+01	   2.8217674e-02	   1.6198836e-02	   4.0117737e-02	
   5.3790000e+01	   3.0370793e-02	   1.5241515e-02	   3.9086713e-02	
   5.3845000e+01	   3.2783865e-02	   1.4301008e-02	   3.7864547e-02	
   5.3900000e+01	   3.5603983e-02	   1.3476998e-02	   3.6574246e-02	
   5.3955000e+01	   3.8967536e-02	   1.2864418e-02	   3.5341555e-02	
   5.4010000e+01	   4.2979154e-02	   1.2541753e-02	   3.4280924e-02	
   5.4065000e+01	   4.7692888e-02	   1.2560562e-02	   3.3483243e-02	
   5.4120000e+01	   5.3097893e-02	   1.2937759e-02	   3.3006363e-02	
   5.4175000e+01	   5.9111346e-02	   1.3652077e-02	   3.2869540e-02	
   5.4230000e+01	   6.5580892e-02	   1.4645481e-02	   3.3053606e-02	
   5.4285000e+01	   7.2297411e-02	   1.5829381e-02	   3.3507647e-02	
   5.4340000e+01	   7.9016799e-02	   1.7094846e-02	   3.4160252e-02	
   5.4395000e+01	   8.5486688e-02	   1.8325039e-02	   3.4931714e-02	
   5.4450000e+01	   9.1472028e-02	   1.9407275e-02	   3.5744274e-02	
   5.4505000e+01	   9.6774675e-02	   2.0242576e-02	   3.6529442e-02	
   5.4560000e+01	   1.0124609e-01	   2.0751881e-02	   3.7232272e-02	
   5.4615000e+01	   1.0479496e-01	   2.0878729e-02	   3.7812187e-02	
   5.4670000e+01	   1.0739040e-01	   2.0588328e-02	   3.8239708e-02	
   5.4725000e+01	   1.0905911e-01	   1.9863219e-02	   3.8489440e-02	
   5.4780000e+01	   1.0987534e-01	   1.8696385e-02	   3.8530881e-02	
   5.4835000e+01	   1.0994568e-01	   1.7083478e-02	   3.8319270e-02	
   5.4890000e+01	   1.0939223e-01	   1.5015968e-02	   3.7788896e-02	
   5.4945000e+01	   1.0833713e-01	   1.2476374e-02	   3.6850939e-02	
   5.5000000e+01	   1.0689138e-01	   9.4362616e-03	   3.5397101e-02	
   5.5055000e+01	   1.0515054e-01	   5.8579740e-03	   3.3309361e-02	
   5.5110000e+01	   1.0319786e-01	   1.7005832e-03	   3.0474694e-02	
   5.5165000e+01	   1.0111146e-01	  -3.0710658e-03	   2.6801827e-02	
   5.5220000e+01	   9.8971077e-02	  -8.4765360e-03	   2.2235959e-02	
   5.5275000e+01	   9.6861121e-02	  -1.4511087e-02	   1.6768167e-02	
   5.5330000e+01	   9.4869096e-02	  -2.1139378e-02	   1.0438276e-02	
   5.5385000e+01	   9.3080398e-02	  -2.8292930e-02	   3.3321923e-03	
   5.5440000e+01	   9.1571252e-02	  -3.5872323e-02	  -4.4244309e-03	
   5.5495000e+01	   9.0401647e-02	  -4.3753897e-02	  -1.2674999e-02	
   5.5550000e+01	   8.9609462e-02	  -5.1799732e-02	  -2.1243053e-02	
   5.5605000e+01	   8.9206213e-02	  -5.9869616e-02	  -2.9945319e-02	
   5.5660000e+01	   8.9174257e-02	  -6.7833773e-02	  -3.8605538e-02	
   5.5715000e+01	   8.9465475e-02	  -7.5584501e-02	  -4.7067187e-02	
   5.5770000e+01	   9.0002666e-02	  -8.3044437e-02	  -5.5202896e-02	
   5.5825000e+01	   9.0685662e-02	  -9.0170000e-02	  -6.2918558e-02	
   5.5880000e+01	   9.1403494e-02	  -9.6949510e-02	  -7.0151045e-02	
   5.5935000e+01	   9.2051164e-02	  -1.0339623e-01	  -7.6860493e-02	
   5.5990000e+01	   9.2546243e-02	  -1.0953783e-01	  -8.3020075e-02	
   5.6045000e+01	   9.2840154e-02	  -1.1540504e-01	  -8.8606670e-02	
   5.6100000e+01	   9.2922297e-02	  -1.2102206e-01	  -9.3594625e-02	
   5.6155000e+01	   9.2817858e-02	  -1.2639968e-01	  -9.7953157e-02	
   5.6210000e+01	   9.2580168e-02	  -1.3153117e-01	  -1.0164650e-01	
   5.6265000e+01	   9.2278410e-02	  -1.3639098e-01	  -1.0463532e-01	
   5.6320000e+01	   9.1982866e-02	  -1.4093659e-01	  -1.0687885e-01	
   5.6375000e+01	   9.1750718e-02	  -1.4511268e-01	  -1.0833842e-01	
   5.6430000e+01	   9.1615001e-02	  -1.4885701e-01	  -1.0898207e-01	
   5.6485000e+01	   9.1579042e-02	  -1.5210738e-01	  -1.0878871e-01	
   5.6540000e+01	   9.1618271e-02	  -1.5480873e-01	  -1.0775025e-01	
   5.6595000e+01	   9.1689432e-02	  -1.5691878e-01	  -1.0587037e-01	
   5.6650000e+01	   9.1745275e-02	  -1.5841000e-01	  -1.0315951e-01	
   5.6705000e+01	   9.1752021e-02	  -1.5926715e-01	  -9.9626752e-02	
   5.6760000e+01	   9.1706304e-02	  -1.5948147e-01	  -9.5271471e-02	
   5.6815000e+01	   9.1647730e-02	  -1.5904351e-01	  -9.0078333e-02	
   5.6870000e+01	   9.1663784e-02	  -1.5793651e-01	  -8.4017352e-02	
   5.6925000e+01	   9.1886626e-02	  -1.5613246e-01	  -7.7048051e-02	
   5.6980000e+01	   9.2484688e-02	  -1.5359163e-01	  -6.9125983e-02	
   5.7035000e+01	   9.3652155e-02	  -1.5026555e-01	  -6.0210842e-02	
   5.7090000e+01	   9.5596096e-02	  -1.4610233e-01	  -5.0275327e-02	
   5.7145000e+01	   9.8519613e-02	  -1.4105346e-01	  -3.9312774e-02	
   5.7200000e+01	   1.0260275e-01	  -1.3508073e-01	  -2.7341396e-02	
   5.7255000e+01	   1.0798652e-01	  -1.2816192e-01	  -1.4403814e-02	
   5.7310000e+01	   1.1476494e-01	  -1.2029367e-01	  -5.6109218e-04	
   5.7365000e+01	   1.2298579e-01	  -1.1149077e-01	   1.4118288e-02	
   5.7420000e+01	   1.3265806e-01	  -1.0178245e-01	   2.9571206e-02	
   5.7475000e+01	   1.4376209e-01	  -9.1206630e-02	   4.5749546e-02	
   5.7530000e+01	   1.5625865e-01	  -7.9803729e-02	   6.2623728e-02	
   5.7585000e+01	   1.7009493e-01	  -6.7611224e-02	   8.0180401e-02	
   5.7640000e+01	   1.8520797e-01	  -5.4660190e-02	   9.8416117e-02	
   5.7695000e+01	   2.0152690e-01	  -4.0974037e-02	   1.1732852e-01	
   5.7750000e+01	   2.1897341e-01	  -2.6569684e-02	   1.3690611e-01	
   5.7805000e+01	   2.3746046e-01	  -1.1461547e-02	   1.5711765e-01	
   5.7860000e+01	   2.5689032e-01	   4.3319976e-03	   1.7790288e-01	
   5.7915000e+01	   2.7715385e-01	   2.0781384e-02	   1.9916586e-01	
   5.7970000e+01	   2.9813178e-01	   3.7840094e-02	   2.2077258e-01	
   5.8025000e+01	   3.1969882e-01	   5.5442275e-02	   2.4255437e-01	
   5.8080000e+01	   3.4173280e-01	   7.3504781e-02	   2.6431781e-01	
   5.8135000e+01	   3.6412999e-01	   9.1933132e-02	   2.8585991e-01	
   5.8190000e+01	   3.8682237e-01	   1.1062948e-01	   3.0698517e-01	
   5.8245000e+01	   4.0978957e-01	   1.2950056e-01	   3.2752166e-01	
   5.8300000e+01	   4.3305952e-01	   1.4846419e-01	   3.4733344e-01	
   5.8355000e+01	   4.5669773e-01	   1.6745369e-01	   3.6632779e-01	
   5.8410000e+01	   4.8078920e-01	   1.8641930e-01	   3.8445650e-01	
   5.8465000e+01	   5.0541845e-01	   2.0532632e-01	   4.0171187e-01	
   5.8520000e+01	   5.3065096e-01	   2.2414989e-01	   4.1811870e-01	
   5.8575000e+01	   5.5651680e-01	   2.4286721e-01	   4.3372336e-01	
   5.8630000e+01	   5.8299630e-01	   2.6144923e-01	   4.4858154e-01	
   5.8685000e+01	   6.1000920e-01	   2.7985310e-01	   4.6274716e-01	
   5.8740000e+01	   6.3741043e-01	   2.9801688e-01	   4.7626485e-01	
   5.8795000e+01	   6.6499610e-01	   3.1585779e-01	   4.8916718e-01	
   5.8850000e+01	   6.9252063e-01	   3.3327516e-01	   5.0147718e-01	
   5.8905000e+01	   7.1972257e-01	   3.5015796e-01	   5.1321511e-01	
   5.8960000e+01	   7.4635349e-01	   3.6639491e-01	   5.2440770e-01	
   5.9015000e+01	   7.7220432e-01	   3.8188534e-01	   5.3509676e-01	
   5.9070000e+01	   7.9712451e-01	   3.9654938e-01	   5.4534437e-01	
   5.9125000e+01	   8.2103152e-01	   4.1033587e-01	   5.5523364e-01	
   5.9180000e+01	   8.4390979e-01	   4.2322624e-01	   5.6486539e-01	
   5.9235000e+01	   8.6580051e-01	   4.3523349e-01	   5.7435150e-01	
   5.9290000e+01	   8.8678437e-01	   4.4639678e-01	   5.8380527e-01	
   5.9345000e+01	   9.0696026e-01	   4.5677308e-01	   5.9333005e-01	
   5.9400000e+01	   9.2642405e-01	   4.6642750e-01	   6.0300721e-01	
   5.9455000e+01	   9.4525171e-01	   4.7542383e-01	   6.1288493e-01	
   5.9510000e+01	   9.6348854e-01	   4.8381598e-01	   6.2296857e-01	
   5.9565000e+01	   9.8114334e-01	   4.9164068e-01	   6.3321440e-01	
   5.9620000e+01	   9.9818641e-01	   4.9891196e-01	   6.4352875e-01	
   5.9675000e+01	   1.0145525e+00	   5.0561902e-01	   6.5377386e-01	
   5.9730000e+01	   1.0301507e+00	   5.1172879e-01	   6.6378039e-01	
   5.9785000e+01	   1.0448800e+00	   5.1719253e-01	   6.7336425e-01	
   5.9840000e+01	   1.0586453e+00	   5.2195441e-01	   6.8234391e-01	
   5.9895000e+01	   1.0713707e+00	   5.2596009e-01	   6.9055395e-01	
   5.9950000e+01	   1.0830079e+00	   5.2916449e-01	   6.9785298e-01	
   6.0005000e+01	   1.0935392e+00	   5.3153798e-01	   7.0412737e-01	
   6.0060000e+01	   1.1029753e+00	   5.3307032e-01	   7.0929271e-01	
   6.0115000e+01	   1.1113494e+00	   5.3377203e-01	   7.1329366e-01	
   6.0170000e+01	   1.1187091e+00	   5.3367320e-01	   7.1610177e-01	
   6.0225000e+01	   1.1251074e+00	   5.3281999e-01	   7.1771126e-01	
   6.0280000e+01	   1.1305955e+00	   5.3126949e-01	   7.1813257e-01	
   6.0335000e+01	   1.1352171e+00	   5.2908356e-01	   7.1738458e-01	
   6.0390000e+01	   1.1390059e+00	   5.2632238e-01	   7.1548662e-01	
   6.0445000e+01	   1.1419839e+00	   5.2303801e-01	   7.1245288e-01	
   6.0500000e+01	   1.1441609e+00	   5.1926899e-01	   7.0829146e-01	
   6.0555000e+01	   1.1455387e+00	   5.1503828e-01	   7.0300866e-01	
   6.0610000e+01	   1.1461206e+00	   5.1035553e-01	   6.9661704e-01	
   6.0665000e+01	   1.1459217e+00	   5.0522269e-01	   6.8914428e-01	
   6.0720000e+01	   1.1449782e+00	   4.9964039e-01	   6.8064025e-01	
   6.0775000e+01	   1.1433546e+00	   4.9361396e-01	   6.7118132e-01	
   6.0830000e+01	   1.1411460e+00	   4.8715812e-01	   6.6087182e-01	
   6.0885000e+01	   1.1384741e+00	   4.8029971e-01	   6.4984284e-01	
   6.0940000e+01	   1.1354771e+00	   4.7307787e-01	   6.3824831e-01	
   6.0995000e+01	   1.1322957e+00	   4.6554200e-01	   6.2625776e-01	
   6.1050000e+01	   1.1290567e+00	   4.5774780e-01	   6.1404589e-01	
   6.1105000e+01	   1.1258559e+00	   4.4975176e-01	   6.0178034e-01	
   6.1160000e+01	   1.1227430e+00	   4.4160497e-01	   5.8960929e-01	
   6.1215000e+01	   1.1197121e+00	   4.3334784e-01	   5.7765091e-01	
   6.1270000e+01	   1.1166958e+00	   4.2500752e-01	   5.6598685e-01	
   6.1325000e+01	   1.1135683e+00	   4.1659790e-01	   5.5466229e-01	
   6.1380000e+01	   1.1101566e+00	   4.0812249e-01	   5.4369264e-01	
   6.1435000e+01	   1.1062607e+00	   3.9957962e-01	   5.3307446e-01	
   6.1490000e+01	   1.1016792e+00	   3.9096941e-01	   5.2279725e-01	
   6.1545000e+01	   1.0962339e+00	   3.8230021e-01	   5.1285387e-01	
   6.1600000e+01	   1.0897916e+00	   3.7359293e-01	   5.0324809e-01	
   6.1655000e+01	   1.0822784e+00	   3.6488254e-01	   4.9399826e-01	
   6.1710000e+01	   1.0736843e+00	   3.5621685e-01	   4.8513585e-01	
   6.1765000e+01	   1.0640580e+00	   3.4765273e-01	   4.7669931e-01	
   6.1820000e+01	   1.0534949e+00	   3.3925014e-01	   4.6872460e-01	
   6.1875000e+01	   1.0421233e+00	   3.3106445e-01	   4.6123366e-01	
   6.1930000e+01	   1.0300916e+00	   3.2313830e-01	   4.5422265e-01	
   6.1985000e+01	   1.0175567e+00	   3.1549380e-01	   4.4765291e-01	
   6.2040000e+01	   1.0046742e+00	   3.0812649e-01	   4.4144697e-01	
   6.2095000e+01	   9.9159058e-01	   3.0100240e-01	   4.3549083e-01	
   6.2150000e+01	   9.7843672e-01	   2.9405973e-01	   4.2964195e-01	
   6.2205000e+01	   9.6532536e-01	   2.8721552e-01	   4.2374222e-01	
   6.2260000e+01	   9.5235125e-01	   2.8037647e-01	   4.1763391e-01	
   6.2315000e+01	   9.3959470e-01	   2.7345180e-01	   4.1117609e-01	
   6.2370000e+01	   9.2712665e-01	   2.6636552e-01	   4.0425877e-01	
   6.2425000e+01	   9.1501284e-01	   2.5906588e-01	   3.9681369e-01	
   6.2480000e+01	   9.0331540e-01	   2.5153010e-01	   3.8882048e-01	
   6.2535000e+01	   8.9209028e-01	   2.4376416e-01	   3.8030689e-01	
   6.2590000e+01	   8.8138059e-01	   2.3579800e-01	   3.7134209e-01	
   6.2645000e+01	   8.7120621e-01	   2.2767670e-01	   3.6202482e-01	
   6.2700000e+01	   8.6155199e-01	   2.1944880e-01	   3.5246900e-01	
   6.2755000e+01	   8.5235833e-01	   2.1115419e-01	   3.4278844e-01	
   6.2810000e+01	   8.4351790e-01	   2.0281404e-01	   3.3308156e-01	
   6.2865000e+01	   8.3487926e-01	   1.9442355e-01	   3.2341825e-01	
   6.2920000e+01	   8.2625660e-01	   1.8594798e-01	   3.1383210e-01	
   6.2975000e+01	   8.1744456e-01	   1.7732278e-01	   3.0431999e-01	
   6.3030000e+01	   8.0823801e-01	   1.6845884e-01	   2.9484955e-01	
   6.3085000e+01	   7.9845511e-01	   1.5925263e-01	   2.8537266e-01	
   6.3140000e+01	   7.8796102e-01	   1.4959996e-01	   2.7584168e-01	
   6.3195000e+01	   7.7668804e-01	   1.3941116e-01	   2.6622429e-01	
   6.3250000e+01	   7.6464797e-01	   1.2862498e-01	   2.5651349e-01	
   6.3305000e+01	   7.5193369e-01	   1.1721888e-01	   2.4673167e-01	
   6.3360000e+01	   7.3870985e-01	   1.0521390e-01	   2.3692943e-01	
   6.3415000e+01	   7.2519463e-01	   9.2674079e-02	   2.2718047e-01	
   6.3470000e+01	   7.1163679e-01	   7.9700763e-02	   2.1757336e-01	
   6.3525000e+01	   6.9829230e-01	   6.6422927e-02	   2.0820052e-01	
   6.3580000e+01	   6.8540305e-01	   5.2984510e-02	   1.9914513e-01	
   6.3635000e+01	   6.7317740e-01	   3.9530791e-02	   1.9046743e-01	
   6.3690000e+01	   6.6177168e-01	   2.6195637e-02	   1.8219232e-01	
   6.3745000e+01	   6.5127328e-01	   1.3090673e-02	   1.7430091e-01	
   6.3800000e+01	   6.4168838e-01	   2.9699980e-04	   1.6672823e-01	
   6.3855000e+01	   6.3293822e-01	  -1.2139400e-02	   1.5936790e-01	
   6.3910000e+01	   6.2486623e-01	  -2.4207608e-02	   1.5208348e-01	
   6.3965000e+01	   6.1725498e-01	  -3.5927085e-02	   1.4472486e-01	
   6.4020000e+01	   6.0984875e-01	  -4.7339334e-02	   1.3714589e-01	
   6.4075000e+01	   6.0237709e-01	  -5.8497387e-02	   1.2921880e-01	
   6.4130000e+01	   5.9457664e-01	  -6.9455073e-02	   1.2084366e-01	
   6.4185000e+01	   5.8621005e-01	  -8.0258131e-02	   1.1195328e-01	
   6.4240000e+01	   5.7708103e-01	  -9.0938311e-02	   1.0251508e-01	
   6.4295000e+01	   5.6704429e-01	  -1.0151078e-01	   9.2529728e-02	
   6.4350000e+01	   5.5600896e-01	  -1.1197501e-01	   8.2026513e-02	
   6.4405000e+01	   5.4393535e-01	  -1.2231934e-01	   7.1055240e-02	
   6.4460000e+01	   5.3082606e-01	  -1.3252806e-01	   5.9675729e-02	
   6.4515000e+01	   5.1671366e-01	  -1.4258916e-01	   4.7946811e-02	
   6.4570000e+01	   5.0164739e-01	  -1.5250098e-01	   3.5917507e-02	
   6.4625000e+01	   4.8568261e-01	  -1.6227607e-01	   2.3622603e-02	
   6.4680000e+01	   4.6887711e-01	  -1.7194123e-01	   1.1083463e-02	
   6.4735000e+01	   4.5129524e-01	  -1.8153281e-01	  -1.6862439e-03	
   6.4790000e+01	   4.3301595e-01	  -1.9108858e-01	  -1.4671156e-02	
   6.4845000e+01	   4.1414041e-01	  -2.0063857e-01	  -2.7843539e-02	
   6.4900000e+01	   3.9479712e-01	  -2.1019762e-01	  -4.1154352e-02	
   6.4955000e+01	   3.7514432e-01	  -2.1976088e-01	  -5.4528190e-02	
   6.5010000e+01	   3.5536852e-01	  -2.2930237e-01	  -6.7862427e-02	
   6.5065000e+01	   3.3567805e-01	  -2.3877651e-01	  -8.1030117e-02	
   6.5120000e+01	   3.1629262e-01	  -2.4812223e-01	  -9.3886604e-02	
   6.5175000e+01	   2.9743022e-01	  -2.5726894e-01	  -1.0627987e-01	
   6.5230000e+01	   2.7929151e-01	  -2.6614356e-01	  -1.1806364e-01	
   6.5285000e+01	   2.6204229e-01	  -2.7467850e-01	  -1.2911103e-01	
   6.5340000e+01	   2.4579795e-01	  -2.8282030e-01	  -1.3932646e-01	
   6.5395000e+01	   2.3061447e-01	  -2.9053676e-01	  -1.4865347e-01	
   6.5450000e+01	   2.1648894e-01	  -2.9782018e-01	  -1.5707667e-01	
   6.5505000e+01	   2.0337032e-01	  -3.0468498e-01	  -1.6461656e-01	
   6.5560000e+01	   1.9117872e-01	  -3.1115986e-01	  -1.7131852e-01	
   6.5615000e+01	   1.7982854e-01	  -3.1727615e-01	  -1.7723897e-01	
   6.5670000e+01	   1.6924757e-01	  -3.2305579e-01	  -1.8243209e-01	
   6.5725000e+01	   1.5938694e-01	  -3.2850241e-01	  -1.8693928e-01	
   6.5780000e+01	   1.5022197e-01	  -3.3359767e-01	  -1.9078296e-01	
   6.5835000e+01	   1.4174696e-01	  -3.3830270e-01	  -1.9396601e-01	
   6.5890000e+01	   1.3396633e-01	  -3.4256321e-01	  -1.9647655e-01	
   6.5945000e+01	   1.2688316e-01	  -3.4631723e-01	  -1.9829642e-01	
   6.6000000e+01	   1.2048724e-01	  -3.4950476e-01	  -1.9941204e-01	
   6.6055000e+01	   1.1474583e-01	  -3.5207802e-01	  -1.9982684e-01	
   6.6110000e+01	   1.0959805e-01	  -3.5401058e-01	  -1.9957473e-01	
   6.6165000e+01	   1.0495166e-01	  -3.5530512e-01	  -1.9873143e-01	
   6.6220000e+01	   1.0068181e-01	  -3.5599905e-01	  -1.9741999e-01	
   6.6275000e+01	   9.6634070e-02	  -3.5616712e-01	  -1.9580846e-01	
   6.6330000e+01	   9.2634673e-02	  -3.5591916e-01	  -1.9409938e-01	
   6.6385000e+01	   8.8506685e-02	  -3.5539222e-01	  -1.9251207e-01	
   6.6440000e+01	   8.4088517e-02	  -3.5473769e-01	  -1.9126023e-01	
   6.6495000e+01	   7.9250366e-02	  -3.5410510e-01	  -1.9052937e-01	
   6.6550000e+01	   7.3905602e-02	  -3.5362559e-01	  -1.9045798e-01	
   6.6605000e+01	   6.8016475e-02	  -3.5339793e-01	  -1.9112535e-01	
   6.6660000e+01	   6.1595313e-02	  -3.5347924e-01	  -1.9254700e-01	
   6.6715000e+01	   5.4701727e-02	  -3.5388125e-01	  -1.9467745e-01	
   6.6770000e+01	   4.7434582e-02	  -3.5457204e-01	  -1.9741963e-01	
   6.6825000e+01	   3.9917754e-02	  -3.5548283e-01	  -2.0063902e-01	
   6.6880000e+01	   3.2280913e-02	  -3.5651831e-01	  -2.0418085e-01	
   6.6935000e+01	   2.4638583e-02	  -3.5756922e-01	  -2.0788884e-01	
   6.6990000e+01	   1.7071906e-02	  -3.5852584e-01	  -2.1162373e-01	
   6.7045000e+01	   9.6173223e-03	  -3.5929168e-01	  -2.1527956e-01	
   6.7100000e+01	   2.2642985e-03	  -3.5979584e-01	  -2.1879604e-01	
   6.7155000e+01	  -5.0385907e-03	  -3.6000197e-01	  -2.2216440e-01	
   6.7210000e+01	  -1.2371527e-02	  -3.5991207e-01	  -2.2542473e-01	
   6.7265000e+01	  -1.9827748e-02	  -3.5956451e-01	  -2.2865423e-01	
   6.7320000e+01	  -2.7496506e-02	  -3.5902620e-01	  -2.3194967e-01	
   6.7375000e+01	  -3.5447005e-02	  -3.5838071e-01	  -2.3540883e-01	
   6.7430000e+01	  -4.3715422e-02	  -3.5771505e-01	  -2.3911421e-01	
   6.7485000e+01	  -5.2295785e-02	  -3.5710852e-01	  -2.4312078e-01	
   6.7540000e+01	  -6.1134185e-02	  -3.5662518e-01	  -2.4744865e-01	
   6.7595000e+01	  -7.0126755e-02	  -3.5630944e-01	  -2.5208153e-01	
   6.7650000e+01	  -7.9123697e-02	  -3.5618400e-01	  -2.5696981e-01	
   6.7705000e+01	  -8.7941228e-02	  -3.5625019e-01	  -2.6203687e-01	
   6.7760000e+01	  -9.6380262e-02	  -3.5649094e-01	  -2.6718718e-01	
   6.7815000e+01	  -1.0424824e-01	  -3.5687546e-01	  -2.7231623e-01	
   6.7870000e+01	  -1.1138013e-01	  -3.5736461e-01	  -2.7732066e-01	
   6.7925000e+01	  -1.1765526e-01	  -3.5791611e-01	  -2.8210640e-01	
   6.7980000e+01	  -1.2300740e-01	  -3.5848834e-01	  -2.8659265e-01	
   6.8035000e+01	  -1.2742688e-01	  -3.5904129e-01	  -2.9071122e-01	
   6.8090000e+01	  -1.3095445e-01	  -3.5953422e-01	  -2.9440174e-01	
   6.8145000e+01	  -1.3366792e-01	  -3.5992095e-01	  -2.9760490e-01	
   6.8200000e+01	  -1.3566449e-01	  -3.6014444e-01	  -3.0025649e-01	
   6.8255000e+01	  -1.3704285e-01	  -3.6013249e-01	  -3.0228466e-01	
   6.8310000e+01	  -1.3788921e-01	  -3.5979572e-01	  -3.0361062e-01	
   6.8365000e+01	  -1.3826976e-01	  -3.5902875e-01	  -3.0415239e-01	
   6.8420000e+01	  -1.3823024e-01	  -3.5771483e-01	  -3.0383090e-01	
   6.8475000e+01	  -1.3780095e-01	  -3.5573384e-01	  -3.0257781e-01	
   6.8530000e+01	  -1.3700530e-01	  -3.5297295e-01	  -3.0034401e-01	
   6.8585000e+01	  -1.3587070e-01	  -3.4933888e-01	  -2.9710771e-01	
   6.8640000e+01	  -1.3443950e-01	  -3.4476980e-01	  -2.9288070e-01	
   6.8695000e+01	  -1.3277761e-01	  -3.3924389e-01	  -2.8771193e-01	
   6.8750000e+01	  -1.3097813e-01	  -3.3278308e-01	  -2.8168673e-01	
   6.8805000e+01	  -1.2915790e-01	  -3.2545158e-01	  -2.7492023e-01	
   6.8860000e+01	  -1.2744642e-01	  -3.1734963e-01	  -2.6754478e-01	
   6.8915000e+01	  -1.2596942e-01	  -3.0860283e-01	  -2.5969403e-01	
   6.8970000e+01	  -1.2483152e-01	  -2.9934878e-01	  -2.5148766e-01	
   6.9025000e+01	  -1.2410215e-01	  -2.8972409e-01	  -2.4301974e-01	
   6.9080000e+01	  -1.2380810e-01	  -2.7985405e-01	  -2.3435284e-01	
   6.9135000e+01	  -1.2393406e-01	  -2.6984542e-01	  -2.2551907e-01	
   6.9190000e+01	  -1.2443056e-01	  -2.5978231e-01	  -2.1652729e-01	
   6.9245000e+01	  -1.2522559e-01	  -2.4972542e-01	  -2.0737403e-01	
   6.9300000e+01	  -1.2623708e-01	  -2.3971503e-01	  -1.9805514e-01	
   6.9355000e+01	  -1.2738551e-01	  -2.2977749e-01	  -1.8857651e-01	
   6.9410000e+01	  -1.2860680e-01	  -2.1993423e-01	  -1.7896292e-01	
   6.9465000e+01	  -1.2986349e-01	  -2.1021193e-01	  -1.6926466e-01	
   6.9520000e+01	  -1.3115111e-01	  -2.0065168e-01	  -1.5956090e-01	
   6.9575000e+01	  -1.3249846e-01	  -1.9131491e-01	  -1.4995824e-01	
   6.9630000e+01	  -1.3396126e-01	  -1.8228432e-01	  -1.4058280e-01	
   6.9685000e+01	  -1.3561000e-01	  -1.7365872e-01	  -1.3156639e-01	
   6.9740000e+01	  -1.3751438e-01	  -1.6554247e-01	  -1.2302996e-01	
   6.9795000e+01	  -1.3972913e-01	  -1.5803202e-01	  -1.1506845e-01	
   6.9850000e+01	  -1.4228462e-01	  -1.5120289e-01	  -1.0773917e-01	
   6.9905000e+01	  -1.4518318e-01	  -1.4509995e-01	  -1.0105483e-01	
   6.9960000e+01	  -1.4839996e-01	  -1.3973161e-01	  -9.4982380e-02	
   7.0015000e+01	  -1.5188737e-01	  -1.3506817e-01	  -8.9448209e-02	
   7.0070000e+01	  -1.5558241e-01	  -1.3104420e-01	  -8.4348612e-02	
   7.0125000e+01	  -1.5941543e-01	  -1.2756484e-01	  -7.9562781e-02	
   7.0180000e+01	  -1.6331850e-01	  -1.2451519e-01	  -7.4966747e-02	
   7.0235000e+01	  -1.6723192e-01	  -1.2177130e-01	  -7.0447864e-02	
   7.0290000e+01	  -1.7110794e-01	  -1.1921179e-01	  -6.5918784e-02	
   7.0345000e+01	  -1.7491177e-01	  -1.1672944e-01	  -6.1328754e-02	
   7.0400000e+01	  -1.7862107e-01	  -1.1424152e-01	  -5.6670153e-02	
   7.0455000e+01	  -1.8222478e-01	  -1.1169695e-01	  -5.1978741e-02	
   7.0510000e+01	  -1.8572089e-01	  -1.0907894e-01	  -4.7326528e-02	
   7.0565000e+01	  -1.8911189e-01	  -1.0640239e-01	  -4.2807943e-02	
   7.0620000e+01	  -1.9239830e-01	  -1.0370587e-01	  -3.8522713e-02	
   7.0675000e+01	  -1.9557288e-01	  -1.0104039e-01	  -3.4559673e-02	
   7.0730000e+01	  -1.9861800e-01	  -9.8457598e-02	  -3.0984216e-02	
   7.0785000e+01	  -2.0150685e-01	  -9.5999990e-02	  -2.7830770e-02	
   7.0840000e+01	  -2.0420785e-01	  -9.3693833e-02	  -2.5101238e-02	
   7.0895000e+01	  -2.0669141e-01	  -9.1545251e-02	  -2.2769241e-02	
   7.0950000e+01	  -2.0893791e-01	  -8.9539794e-02	  -2.0788577e-02	
   7.1005000e+01	  -2.1094469e-01	  -8.7645303e-02	  -1.9104183e-02	
   7.1060000e+01	  -2.1273015e-01	  -8.5817102e-02	  -1.7664503e-02	
   7.1115000e+01	  -2.1433424e-01	  -8.4004523e-02	  -1.6433776e-02	
   7.1170000e+01	  -2.1581572e-01	  -8.2158320e-02	  -1.5401588e-02	
   7.1225000e+01	  -2.1724758e-01	  -8.0238255e-02	  -1.4586932e-02	
   7.1280000e+01	  -2.1871104e-01	  -7.8219089e-02	  -1.4035398e-02	
   7.1335000e+01	  -2.2028807e-01	  -7.6092829e-02	  -1.3809906e-02	
   7.1390000e+01	  -2.2205285e-01	  -7.3866266e-02	  -1.3976960e-02	
   7.1445000e+01	  -2.2406342e-01	  -7.1554471e-02	  -1.4591596e-02	
   7.1500000e+01	  -2.2635573e-01	  -6.9172238e-02	  -1.5684279e-02	
   7.1555000e+01	  -2.2894209e-01	  -6.6726130e-02	  -1.7252031e-02	
   7.1610000e+01	  -2.3181479e-01	  -6.4209515e-02	  -1.9255032e-02	
   7.1665000e+01	  -2.3495366e-01	  -6.1601689e-02	  -2.1619173e-02	
   7.1720000e+01	  -2.3833613e-01	  -5.8870644e-02	  -2.4244008e-02	
   7.1775000e+01	  -2.4194824e-01	  -5.5978363e-02	  -2.7014193e-02	
   7.1830000e+01	  -2.4579484e-01	  -5.2887806e-02	  -2.9811774e-02	
   7.1885000e+01	  -2.4990677e-01	  -4.9571028e-02	  -3.2527423e-02	
   7.1940000e+01	  -2.5434422e-01	  -4.6017709e-02	  -3.5070079e-02	
   7.1995000e+01	  -2.5919638e-01	  -4.2243269e-02	  -3.7375011e-02	
   7.2050000e+01	  -2.6457779e-01	  -3.8295573e-02	  -3.9409700e-02	
   7.2105000e+01	  -2.7062113e-01	  -3.4258476e-02	  -4.1176120e-02	
   7.2160000e+01	  -2.7746473e-01	  -3.0249741e-02	  -4.2708008e-02	
   7.2215000e+01	  -2.8523476e-01	  -2.6411844e-02	  -4.4062711e-02	
   7.2270000e+01	  -2.9402387e-01	  -2.2896910e-02	  -4.5308905e-02	
   7.2325000e+01	  -3.0387003e-01	  -1.9849073e-02	  -4.6512921e-02	
   7.2380000e+01	  -3.1473991e-01	  -1.7387492e-02	  -4.7726546e-02	
   7.2435000e+01	  -3.2652029e-01	  -1.5592421e-02	  -4.8978011e-02	
   7.2490000e+01	  -3.3901952e-01	  -1.4496172e-02	  -5.0266598e-02	
   7.2545000e+01	  -3.5197827e-01	  -1.4080147e-02	  -5.1561058e-02	
   7.2600000e+01	  -3.6508733e-01	  -1.4277968e-02	  -5.2802592e-02	
   7.2655000e+01	  -3.7801004e-01	  -1.4983730e-02	  -5.3912732e-02	
   7.2710000e+01	  -3.9040716e-01	  -1.6064000e-02	  -5.4805103e-02	
   7.2765000e+01	  -4.0196171e-01	  -1.7371828e-02	  -5.5399288e-02	
   7.2820000e+01	  -4.1240148e-01	  -1.8760909e-02	  -5.5635262e-02	
   7.2875000e+01	  -4.2151714e-01	  -2.0098712e-02	  -5.5486928e-02	
   7.2930000e+01	  -4.2917397e-01	  -2.1278430e-02	  -5.4972880e-02	
   7.2985000e+01	  -4.3531560e-01	  -2.2229453e-02	  -5.4162101e-02	
   7.3040000e+01	  -4.3995949e-01	  -2.2924564e-02	  -5.3171936e-02	
   7.3095000e+01	  -4.4318565e-01	  -2.3381310e-02	  -5.2156409e-02	
   7.3150000e+01	  -4.4512052e-01	  -2.3656362e-02	  -5.1285910e-02	
   7.3205000e+01	  -4.4591854e-01	  -2.3833848e-02	  -5.0723047e-02	
   7.3260000e+01	  -4.4574503e-01	  -2.4010029e-02	  -5.0600506e-02	
   7.3315000e+01	  -4.4476368e-01	  -2.4277323e-02	  -5.1004542e-02	
   7.3370000e+01	  -4.4313028e-01	  -2.4710582e-02	  -5.1965266e-02	
   7.3425000e+01	  -4.4099063e-01	  -2.5357314e-02	  -5.3454148e-02	
   7.3480000e+01	  -4.3847986e-01	  -2.6232618e-02	  -5.5388763e-02	
   7.3535000e+01	  -4.3572256e-01	  -2.7319544e-02	  -5.7643556e-02	
   7.3590000e+01	  -4.3283458e-01	  -2.8575012e-02	  -6.0064560e-02	
   7.3645000e+01	  -4.2992643e-01	  -2.9939615e-02	  -6.2486427e-02	
   7.3700000e+01	  -4.2710757e-01	  -3.1348541e-02	  -6.4750702e-02	
   7.3755000e+01	  -4.2449127e-01	  -3.2741671e-02	  -6.6723923e-02	
   7.3810000e+01	  -4.2219980e-01	  -3.4072166e-02	  -6.8313428e-02	
   7.3865000e+01	  -4.2036853e-01	  -3.5313067e-02	  -6.9478348e-02	
   7.3920000e+01	  -4.1914669e-01	  -3.6461045e-02	  -7.0233568e-02	
   7.3975000e+01	  -4.1869238e-01	  -3.7536527e-02	  -7.0644977e-02	
   7.4030000e+01	  -4.1916043e-01	  -3.8579685e-02	  -7.0815900e-02	
   7.4085000e+01	  -4.2068432e-01	  -3.9642128e-02	  -7.0867388e-02	
   7.4140000e+01	  -4.2335697e-01	  -4.0775333e-02	  -7.0917163e-02	
   7.4195000e+01	  -4.2721604e-01	  -4.2018633e-02	  -7.1061226e-02	
   7.4250000e+01	  -4.3223730e-01	  -4.3389863e-02	  -7.1360150e-02	
   7.4305000e+01	  -4.3833649e-01	  -4.4880104e-02	  -7.1831281e-02	
   7.4360000e+01	  -4.4537755e-01	  -4.6452232e-02	  -7.2448098e-02	
   7.4415000e+01	  -4.5318470e-01	  -4.8042921e-02	  -7.3146947e-02	
   7.4470000e+01	  -4.6155668e-01	  -4.9568069e-02	  -7.3839324e-02	
   7.4525000e+01	  -4.7028196e-01	  -5.0931195e-02	  -7.4426844e-02	
   7.4580000e+01	  -4.7915339e-01	  -5.2033703e-02	  -7.4816312e-02	
   7.4635000e+01	  -4.8798079e-01	  -5.2785691e-02	  -7.4932691e-02	
   7.4690000e+01	  -4.9660010e-01	  -5.3115662e-02	  -7.4727927e-02	
   7.4745000e+01	  -5.0487792e-01	  -5.2976783e-02	  -7.4184036e-02	
   7.4800000e+01	  -5.1271069e-01	  -5.2347822e-02	  -7.3309856e-02	
   7.4855000e+01	  -5.2001906e-01	  -5.1228813e-02	  -7.2132238e-02	
   7.4910000e+01	  -5.2673953e-01	  -4.9633458e-02	  -7.0684230e-02	
   7.4965000e+01	  -5.3281709e-01	  -4.7581014e-02	  -6.8994050e-02	
   7.5020000e+01	  -5.3820218e-01	  -4.5090036e-02	  -6.7077942e-02	
   7.5075000e+01	  -5.4285352e-01	  -4.2175172e-02	  -6.4937861e-02	
   7.5130000e+01	  -5.4674460e-01	  -3.8846867e-02	  -6.2563304e-02	
   7.5185000e+01	  -5.4987045e-01	  -3.5113248e-02	  -5.9936314e-02	
   7.5240000e+01	  -5.5225245e-01	  -3.0983448e-02	  -5.7038730e-02	
   7.5295000e+01	  -5.5394194e-01	  -2.6471749e-02	  -5.3860311e-02	
   7.5350000e+01	  -5.5502329e-01	  -2.1601995e-02	  -5.0406225e-02	
   7.5405000e+01	  -5.5561440e-01	  -1.6411432e-02	  -4.6702800e-02	
   7.5460000e+01	  -5.5586183e-01	  -1.0952849e-02	  -4.2800384e-02	
   7.5515000e+01	  -5.5592976e-01	  -5.2939438e-03	  -3.8771708e-02	
   7.5570000e+01	  -5.5598471e-01	   4.8700038e-04	  -3.4704691e-02	
   7.5625000e+01	  -5.5617837e-01	   6.3094749e-03	  -3.0690300e-02	
   7.5680000e+01	  -5.5663105e-01	   1.2101865e-02	  -2.6807531e-02	
   7.5735000e+01	  -5.5741778e-01	   1.7812234e-02	  -2.3107971e-02	
   7.5790000e+01	  -5.5855850e-01	   2.3415683e-02	  -1.9602770e-02	
   7.5845000e+01	  -5.6001397e-01	   2.8917088e-02	  -1.6255091e-02	
   7.5900000e+01	  -5.6169107e-01	   3.4349906e-02	  -1.2979839e-02	
   7.5955000e+01	  -5.6345895e-01	   3.9772178e-02	  -9.6503996e-03	
   7.6010000e+01	  -5.6517151e-01	   4.5260385e-02	  -6.1108097e-03	
   7.6065000e+01	  -5.6668897e-01	   5.0901572e-02	  -2.1914685e-03	
   7.6120000e+01	  -5.6789457e-01	   5.6784096e-02	   2.2736101e-03	
   7.6175000e+01	  -5.6870634e-01	   6.2987558e-02	   7.4297720e-03	
   7.6230000e+01	  -5.6908370e-01	   6.9572792e-02	   1.3386004e-02	
   7.6285000e+01	  -5.6902752e-01	   7.6573149e-02	   2.0201542e-02	
   7.6340000e+01	  -5.6857285e-01	   8.3988438e-02	   2.7877147e-02	
   7.6395000e+01	  -5.6777391e-01	   9.1782793e-02	   3.6354223e-02	
   7.6450000e+01	  -5.6668267e-01	   9.9887608e-02	   4.5523062e-02	
   7.6505000e+01	  -5.6532499e-01	   1.0820967e-01	   5.5237935e-02	
   7.6560000e+01	  -5.6368060e-01	   1.1664296e-01	   6.5334955e-02	
   7.6615000e+01	  -5.6167278e-01	   1.2508113e-01	   7.5649208e-02	
   7.6670000e+01	  -5.5916995e-01	   1.3342812e-01	   8.6028530e-02	
   7.6725000e+01	  -5.5599763e-01	   1.4160540e-01	   9.6342057e-02	
   7.6780000e+01	  -5.5195686e-01	   1.4955565e-01	   1.0648307e-01	
   7.6835000e+01	  -5.4684505e-01	   1.5724267e-01	   1.1636707e-01	
   7.6890000e+01	  -5.4047610e-01	   1.6464806e-01	   1.2592670e-01	
   7.6945000e+01	  -5.3269885e-01	   1.7176554e-01	   1.3510438e-01	
   7.7000000e+01	  -5.2341330e-01	   1.7859407e-01	   1.4384395e-01	
   7.7055000e+01	  -5.1258300e-01	   1.8513047e-01	   1.5208250e-01	
   7.7110000e+01	  -5.0024122e-01	   1.9136232e-01	   1.5974373e-01	
   7.7165000e+01	  -4.8648990e-01	   1.9726281e-01	   1.6673372e-01	
   7.7220000e+01	  -4.7149148e-01	   2.0278916e-01	   1.7294119e-01	
   7.7275000e+01	  -4.5545410e-01	   2.0788540e-01	   1.7824468e-01	
   7.7330000e+01	  -4.3861189e-01	   2.1248938e-01	   1.8252636e-01	
   7.7385000e+01	  -4.2120482e-01	   2.1654340e-01	   1.8568849e-01	
   7.7440000e+01	  -4.0346383e-01	   2.2000643e-01	   1.8766777e-01	
   7.7495000e+01	  -3.8560417e-01	   2.2286476e-01	   1.8844496e-01	
   7.7550000e+01	  -3.6782588e-01	   2.2513870e-01	   1.8804915e-01	
   7.7605000e+01	  -3.5031750e-01	   2.2688395e-01	   1.8655687e-01	
   7.7660000e+01	  -3.3326014e-01	   2.2818782e-01	   1.8408681e-01	
   7.7715000e+01	  -3.1683042e-01	   2.2916063e-01	   1.8079057e-01	
   7.7770000e+01	  -3.0120142e-01	   2.2992407e-01	   1.7684037e-01	
   7.7825000e+01	  -2.8654144e-01	   2.3059855e-01	   1.7241391e-01	
   7.7880000e+01	  -2.7301118e-01	   2.3129179e-01	   1.6767777e-01	
   7.7935000e+01	  -2.6076022e-01	   2.3208941e-01	   1.6277199e-01	
   7.7990000e+01	  -2.4992262e-01	   2.3304824e-01	   1.5779935e-01	
   7.8045000e+01	  -2.4061174e-01	   2.3419317e-01	   1.5282136e-01	
   7.8100000e+01	  -2.3291478e-01	   2.3551814e-01	   1.4786148e-01	
   7.8155000e+01	  -2.2688814e-01	   2.3699125e-01	   1.4291408e-01	
   7.8210000e+01	  -2.2255335e-01	   2.3856257e-01	   1.3795690e-01	
   7.8265000e+01	  -2.1989378e-01	   2.4017327e-01	   1.3296359e-01	
   7.8320000e+01	  -2.1885306e-01	   2.4176391e-01	   1.2791478e-01	
   7.8375000e+01	  -2.1933497e-01	   2.4328083e-01	   1.2280680e-01	
   7.8430000e+01	  -2.2120485e-01	   2.4467971e-01	   1.1765701e-01	
   7.8485000e+01	  -2.2429340e-01	   2.4592700e-01	   1.1250385e-01	
   7.8540000e+01	  -2.2840476e-01	   2.4699929e-01	   1.0740167e-01	
   7.8595000e+01	  -2.3332863e-01	   2.4788098e-01	   1.0241185e-01	
   7.8650000e+01	  -2.3885363e-01	   2.4856048e-01	   9.7592817e-02	
   7.8705000e+01	  -2.4477848e-01	   2.4902669e-01	   9.2991114e-02	
   7.8760000e+01	  -2.5091899e-01	   2.4926628e-01	   8.8635849e-02	
   7.8815000e+01	  -2.5710939e-01	   2.4926258e-01	   8.4537873e-02	
   7.8870000e+01	  -2.6319781e-01	   2.4899681e-01	   8.0693782e-02	
   7.8925000e+01	  -2.6903788e-01	   2.4845278e-01	   7.7093077e-02	
   7.8980000e+01	  -2.7448005e-01	   2.4762394e-01	   7.3726047e-02	
   7.9035000e+01	  -2.7936613e-01	   2.4652047e-01	   7.0590378e-02	
   7.9090000e+01	  -2.8352915e-01	   2.4517467e-01	   6.7695533e-02	
   7.9145000e+01	  -2.8679941e-01	   2.4364307e-01	   6.5064572e-02	
   7.9200000e+01	  -2.8901569e-01	   2.4200443e-01	   6.2733149e-02	
   7.9255000e+01	  -2.9003822e-01	   2.4035353e-01	   6.0745386e-02	
   7.9310000e+01	  -2.8976040e-01	   2.3879249e-01	   5.9146886e-02	
   7.9365000e+01	  -2.8811900e-01	   2.3742120e-01	   5.7975876e-02	
   7.9420000e+01	  -2.8510276e-01	   2.3632781e-01	   5.7254149e-02	
   7.9475000e+01	  -2.8075769e-01	   2.3557963e-01	   5.6979511e-02	
   7.9530000e+01	  -2.7518733e-01	   2.3521501e-01	   5.7121055e-02	
   7.9585000e+01	  -2.6854738e-01	   2.3523794e-01	   5.7618458e-02	
   7.9640000e+01	  -2.6103517e-01	   2.3561706e-01	   5.8386624e-02	
   7.9695000e+01	  -2.5287412e-01	   2.3629015e-01	   5.9325915e-02	
   7.9750000e+01	  -2.4429518e-01	   2.3717361e-01	   6.0335675e-02	
   7.9805000e+01	  -2.3551971e-01	   2.3817447e-01	   6.1327280e-02	
   7.9860000e+01	  -2.2674780e-01	   2.3920123e-01	   6.2234290e-02	
   7.9915000e+01	  -2.1815269e-01	   2.4017153e-01	   6.3019290e-02	
   7.9970000e+01	  -2.0987993e-01	   2.4101594e-01	   6.3677128e-02	
   8.0025000e+01	  -2.0204981e-01	   2.4167904e-01	   6.4233558e-02	
   8.0080000e+01	  -1.9476191e-01	   2.4211849e-01	   6.4739016e-02	
   8.0135000e+01	  -1.8809982e-01	   2.4230266e-01	   6.5258224e-02	
   8.0190000e+01	  -1.8213333e-01	   2.4220754e-01	   6.5856623e-02	
   8.0245000e+01	  -1.7691761e-01	   2.4181329e-01	   6.6585563e-02	
   8.0300000e+01	  -1.7249160e-01	   2.4110100e-01	   6.7469430e-02	
   8.0355000e+01	  -1.6887722e-01	   2.4004942e-01	   6.8497679e-02	
   8.0410000e+01	  -1.6607899e-01	   2.3863299e-01	   6.9623163e-02	
   8.0465000e+01	  -1.6408188e-01	   2.3682224e-01	   7.0767160e-02	
   8.0520000e+01	  -1.6284645e-01	   2.3458713e-01	   7.1830629e-02	
   8.0575000e+01	  -1.6230220e-01	   2.3190250e-01	   7.2709212e-02	
   8.0630000e+01	  -1.6234116e-01	   2.2875473e-01	   7.3307930e-02	
   8.0685000e+01	  -1.6281439e-01	   2.2514802e-01	   7.3552423e-02	
   8.0740000e+01	  -1.6353356e-01	   2.2110928e-01	   7.3395853e-02	
   8.0795000e+01	  -1.6427886e-01	   2.1669065e-01	   7.2821838e-02	
   8.0850000e+01	  -1.6481208e-01	   2.1196931e-01	   7.1843813e-02	
   8.0905000e+01	  -1.6489256e-01	   2.0704398e-01	   7.0500960e-02	
   8.0960000e+01	  -1.6429332e-01	   2.0202775e-01	   6.8851085e-02	
   8.1015000e+01	  -1.6281579e-01	   1.9703750e-01	   6.6961124e-02	
   8.1070000e+01	  -1.6030268e-01	   1.9218193e-01	   6.4896097e-02	
   8.1125000e+01	  -1.5664918e-01	   1.8755032e-01	   6.2707633e-02	
   8.1180000e+01	  -1.5181184e-01	   1.8320313e-01	   6.0424211e-02	
   8.1235000e+01	  -1.4581341e-01	   1.7916502e-01	   5.8045674e-02	
   8.1290000e+01	  -1.3874145e-01	   1.7542226e-01	   5.5543623e-02	
   8.1345000e+01	  -1.3073964e-01	   1.7192551e-01	   5.2868233e-02	
   8.1400000e+01	  -1.2199286e-01	   1.6859772e-01	   4.9961012e-02	
   8.1455000e+01	  -1.1270884e-01	   1.6534547e-01	   4.6771002e-02	
   8.1510000e+01	  -1.0309946e-01	   1.6207231e-01	   4.3270111e-02	
   8.1565000e+01	  -9.3365308e-02	   1.5869206e-01	   3.9463842e-02	
   8.1620000e+01	  -8.3685851e-02	   1.5513975e-01	   3.5395983e-02	
   8.1675000e+01	  -7.4215675e-02	   1.5137889e-01	   3.1147354e-02	
   8.1730000e+01	  -6.5086454e-02	   1.4740464e-01	   2.6829017e-02	
   8.1785000e+01	  -5.6413298e-02	   1.4324281e-01	   2.2570958e-02	
   8.1840000e+01	  -4.8302007e-02	   1.3894434e-01	   1.8508185e-02	
   8.1895000e+01	  -4.0852795e-02	   1.3457664e-01	   1.4766126e-02	
   8.1950000e+01	  -3.4158925e-02	   1.3021334e-01	   1.1446597e-02	
   8.2005000e+01	  -2.8302534e-02	   1.2592364e-01	   8.6158759e-03	
   8.2060000e+01	  -2.3350220e-02	   1.2176264e-01	   6.2971512e-03	
   8.2115000e+01	  -1.9348881e-02	   1.1776402e-01	   4.4692775e-03	
   8.2170000e+01	  -1.6321297e-02	   1.1393727e-01	   3.0724315e-03	
   8.2225000e+01	  -1.4261504e-02	   1.1027040e-01	   2.0199153e-03	
   8.2280000e+01	  -1.3130900e-02	   1.0673764e-01	   1.2139222e-03	
   8.2335000e+01	  -1.2856786e-02	   1.0330986e-01	   5.6160859e-04	
   8.2390000e+01	  -1.3334710e-02	   9.9965120e-02	  -1.2124370e-05	
   8.2445000e+01	  -1.4434680e-02	   9.6696863e-02	  -5.5670803e-04	
   8.2500000e+01	  -1.6010496e-02	   9.3518115e-02	  -1.0925659e-03	
   8.2555000e+01	  -1.7911094e-02	   9.0461137e-02	  -1.6119610e-03	
   8.2610000e+01	  -1.9992452e-02	   8.7573294e-02	  -2.0839096e-03	
   8.2665000e+01	  -2.2128537e-02	   8.4910444e-02	  -2.4623585e-03	
   8.2720000e+01	  -2.4220238e-02	   8.2528644e-02	  -2.6960984e-03	
   8.2775000e+01	  -2.6200925e-02	   8.0475007e-02	  -2.7387497e-03	
   8.2830000e+01	  -2.8037241e-02	   7.8779193e-02	  -2.5568702e-03	
   8.2885000e+01	  -2.9724672e-02	   7.7447313e-02	  -2.1340150e-03	
   8.2940000e+01	  -3.1278508e-02	   7.6459836e-02	  -1.4696594e-03	
   8.2995000e+01	  -3.2721331e-02	   7.5774656e-02	  -5.7385681e-04	
   8.3050000e+01	  -3.4069674e-02	   7.5335258e-02	   5.4046916e-04	
   8.3105000e+01	  -3.5324055e-02	   7.5081999e-02	   1.8658589e-03	
   8.3160000e+01	  -3.6465318e-02	   7.4963199e-02	   3.4073842e-03	
   8.3215000e+01	  -3.7456713e-02	   7.4943220e-02	   5.1862933e-03	
   8.3270000e+01	  -3.8248952e-02	   7.5006084e-02	   7.2391690e-03	
   8.3325000e+01	  -3.8785971e-02	   7.5154539e-02	   9.6131251e-03	
   8.3380000e+01	  -3.9010132e-02	   7.5405395e-02	   1.2357775e-02	
   8.3435000e+01	  -3.8866014e-02	   7.5782518e-02	   1.5514166e-02	
   8.3490000e+01	  -3.8302878e-02	   7.6308841e-02	   1.9101532e-02	
   8.3545000e+01	  -3.7276969e-02	   7.6998188e-02	   2.3104512e-02	
   8.3600000e+01	  -3.5754272e-02	   7.7847361e-02	   2.7464313e-02	
   8.3655000e+01	  -3.3712751e-02	   7.8829188e-02	   3.2076041e-02	
   8.3710000e+01	  -3.1142643e-02	   7.9888137e-02	   3.6793184e-02	
   8.3765000e+01	  -2.8044326e-02	   8.0940593e-02	   4.1439687e-02	
   8.3820000e+01	  -2.4424418e-02	   8.1880961e-02	   4.5828664e-02	
   8.3875000e+01	  -2.0291368e-02	   8.2592617e-02	   4.9784260e-02	
   8.3930000e+01	  -1.5652206e-02	   8.2960983e-02	   5.3161909e-02	
   8.3985000e+01	  -1.0512079e-02	   8.2885543e-02	   5.5863170e-02	
   8.4040000e+01	  -4.8769387e-03	   8.2288523e-02	   5.7843435e-02	
   8.4095000e+01	   1.2417936e-03	   8.1119483e-02	   5.9112258e-02	
   8.4150000e+01	   7.8213392e-03	   7.9356195e-02	   5.9727059e-02	
   8.4205000e+01	   1.4820022e-02	   7.7002288e-02	   5.9782019e-02	
   8.4260000e+01	   2.2168521e-02	   7.4082027e-02	   5.9394223e-02	
   8.4315000e+01	   2.9762379e-02	   7.0632967e-02	   5.8688147e-02	
   8.4370000e+01	   3.7458166e-02	   6.6697465e-02	   5.7779329e-02	
   8.4425000e+01	   4.5073881e-02	   6.2313793e-02	   5.6759108e-02	
   8.4480000e+01	   5.2393202e-02	   5.7507419e-02	   5.5682631e-02	
   8.4535000e+01	   5.9173873e-02	   5.2283626e-02	   5.4561535e-02	
   8.4590000e+01	   6.5160784e-02	   4.6623501e-02	   5.3362179e-02	
   8.4645000e+01	   7.0103146e-02	   4.0485134e-02	   5.2010209e-02	
   8.4700000e+01	   7.3773875e-02	   3.3810427e-02	   5.0401102e-02	
   8.4755000e+01	   7.5988619e-02	   2.6536254e-02	   4.8414650e-02	
   8.4810000e+01	   7.6621127e-02	   1.8607506e-02	   4.5930804e-02	
   8.4865000e+01	   7.5612078e-02	   9.9890554e-03	   4.2845018e-02	
   8.4920000e+01	   7.2970711e-02	   6.7446120e-04	   3.9081461e-02	
   8.4975000e+01	   6.8769630e-02	  -9.3092098e-03	   3.4602210e-02	
   8.5030000e+01	   6.3132565e-02	  -1.9900329e-02	   2.9410956e-02	
   8.5085000e+01	   5.6216803e-02	  -3.1005705e-02	   2.3551279e-02	
   8.5140000e+01	   4.8195251e-02	  -4.2507843e-02	   1.7100943e-02	
   8.5195000e+01	   3.9242816e-02	  -5.4275417e-02	   1.0163406e-02	
   8.5250000e+01	   2.9527795e-02	  -6.6174805e-02	   2.8571319e-03	
   8.5305000e+01	   1.9206030e-02	  -7.8080898e-02	  -4.6964374e-03	
   8.5360000e+01	   8.4164083e-03	  -8.9886226e-02	  -1.2384810e-02	
   8.5415000e+01	  -2.7215911e-03	  -1.0150765e-01	  -2.0114528e-02	
   8.5470000e+01	  -1.4107524e-02	  -1.1288986e-01	  -2.7817027e-02	
   8.5525000e+01	  -2.5656630e-02	  -1.2400485e-01	  -3.5447647e-02	
   8.5580000e+01	  -3.7294127e-02	  -1.3484695e-01	  -4.2977528e-02	
   8.5635000e+01	  -4.8949179e-02	  -1.4542388e-01	  -5.0381955e-02	
   8.5690000e+01	  -6.0551101e-02	  -1.5574646e-01	  -5.7629645e-02	
   8.5745000e+01	  -7.2028660e-02	  -1.6582009e-01	  -6.4675325e-02	
   8.5800000e+01	  -8.3311531e-02	  -1.7563965e-01	  -7.1456306e-02	
   8.5855000e+01	  -9.4332819e-02	  -1.8518754e-01	  -7.7893768e-02	
   8.5910000e+01	  -1.0503244e-01	  -1.9443477e-01	  -8.3899002e-02	
   8.5965000e+01	  -1.1536146e-01	  -2.0334476e-01	  -8.9383567e-02	
   8.6020000e+01	  -1.2528685e-01	  -2.1187921e-01	  -9.4271525e-02	
   8.6075000e+01	  -1.3479569e-01	  -2.2000501e-01	  -9.8511630e-02	
   8.6130000e+01	  -1.4389808e-01	  -2.2770075e-01	  -1.0208707e-01	
   8.6185000e+01	  -1.5262719e-01	  -2.3496151e-01	  -1.0502054e-01	
   8.6240000e+01	  -1.6103491e-01	  -2.4180079e-01	  -1.0737365e-01	
   8.6295000e+01	  -1.6918330e-01	  -2.4824868e-01	  -1.0924094e-01	
   8.6350000e+01	  -1.7713329e-01	  -2.5434630e-01	  -1.1073894e-01	
   8.6405000e+01	  -1.8493228e-01	  -2.6013733e-01	  -1.1199128e-01	
   8.6460000e+01	  -1.9260282e-01	  -2.6565854e-01	  -1.1311235e-01	
   8.6515000e+01	  -2.0013523e-01	  -2.7093119e-01	  -1.1419294e-01	
   8.6570000e+01	  -2.0748612e-01	  -2.7595544e-01	  -1.1529027e-01	
   8.6625000e+01	  -2.1458209e-01	  -2.8070901e-01	  -1.1642317e-01	
   8.6680000e+01	  -2.2132631e-01	  -2.8515010e-01	  -1.1757254e-01	
   8.6735000e+01	  -2.2760629e-01	  -2.8922384e-01	  -1.1868652e-01	
   8.6790000e+01	  -2.3330287e-01	  -2.9287142e-01	  -1.1968901e-01	
   8.6845000e+01	  -2.3830034e-01	  -2.9604119e-01	  -1.2049008e-01	
   8.6900000e+01	  -2.4249681e-01	  -2.9869965e-01	  -1.2099812e-01	
   8.6955000e+01	  -2.4581386e-01	  -3.0084043e-01	  -1.2113289e-01	
   8.7010000e+01	  -2.4820395e-01	  -3.0249007e-01	  -1.2083695e-01	
   8.7065000e+01	  -2.4965284e-01	  -3.0370961e-01	  -1.2008165e-01	
   8.7120000e+01	  -2.5017562e-01	  -3.0459048e-01	  -1.1886600e-01	
   8.7175000e+01	  -2.4980840e-01	  -3.0524370e-01	  -1.1720942e-01	
   8.7230000e+01	  -2.4860003e-01	  -3.0578453e-01	  -1.1514089e-01	
   8.7285000e+01	  -2.4660713e-01	  -3.0631596e-01	  -1.1268755e-01	
   8.7340000e+01	  -2.4389199e-01	  -3.0691450e-01	  -1.0986481e-01	
   8.7395000e+01	  -2.4052120e-01	  -3.0762011e-01	  -1.0666995e-01	
   8.7450000e+01	  -2.3656424e-01	  -3.0843144e-01	  -1.0307990e-01	
   8.7505000e+01	  -2.3209229e-01	  -3.0930659e-01	  -9.9053532e-02	
   8.7560000e+01	  -2.2717800e-01	  -3.1016849e-01	  -9.4538918e-02	
   8.7615000e+01	  -2.2189710e-01	  -3.1091420e-01	  -8.9485629e-02	
   8.7670000e+01	  -2.1633218e-01	  -3.1142705e-01	  -8.3859732e-02	
   8.7725000e+01	  -2.1057626e-01	  -3.1159058e-01	  -7.7658272e-02	
   8.7780000e+01	  -2.0473403e-01	  -3.1130252e-01	  -7.0920873e-02	
   8.7835000e+01	  -1.9892108e-01	  -3.1048708e-01	  -6.3736957e-02	
   8.7890000e+01	  -1.9326190e-01	  -3.0910375e-01	  -5.6246920e-02	
   8.7945000e+01	  -1.8788564e-01	  -3.0715164e-01	  -4.8635987e-02	
   8.8000000e+01	  -1.8291734e-01	  -3.0466819e-01	  -4.1120938e-02	
   8.8055000e+01	  -1.7846469e-01	  -3.0172195e-01	  -3.3931390e-02	
   8.8110000e+01	  -1.7460472e-01	  -2.9840083e-01	  -2.7288287e-02	
   8.8165000e+01	  -1.7137526e-01	  -2.9479866e-01	  -2.1382863e-02	
   8.8220000e+01	  -1.6877246e-01	  -2.9100270e-01	  -1.6359330e-02	
   8.8275000e+01	  -1.6675260e-01	  -2.8708350e-01	  -1.2303645e-02	
   8.8330000e+01	  -1.6523641e-01	  -2.8308831e-01	  -9.2390784e-03	
   8.8385000e+01	  -1.6411547e-01	  -2.7903837e-01	  -7.1281749e-03	
   8.8440000e+01	  -1.6326143e-01	  -2.7493043e-01	  -5.8803508e-03	
   8.8495000e+01	  -1.6253725e-01	  -2.7074163e-01	  -5.3637728e-03	
   8.8550000e+01	  -1.6180809e-01	  -2.6643696e-01	  -5.4196204e-03	
   8.8605000e+01	  -1.6094975e-01	  -2.6197884e-01	  -5.8773308e-03	
   8.8660000e+01	  -1.5985595e-01	  -2.5733731e-01	  -6.5699980e-03	
   8.8715000e+01	  -1.5844662e-01	  -2.5249888e-01	  -7.3482989e-03	
   8.8770000e+01	  -1.5667637e-01	  -2.4747219e-01	  -8.0900008e-03	
   8.8825000e+01	  -1.5453882e-01	  -2.4228978e-01	  -8.7026772e-03	
   8.8880000e+01	  -1.5206237e-01	  -2.3700501e-01	  -9.1199765e-03	
   8.8935000e+01	  -1.4929712e-01	  -2.3168451e-01	  -9.2941206e-03	
   8.8990000e+01	  -1.4629876e-01	  -2.2639783e-01	  -9.1875326e-03	
   8.9045000e+01	  -1.4311575e-01	  -2.2120693e-01	  -8.7656034e-03	
   8.9100000e+01	  -1.3978218e-01	  -2.1615754e-01	  -7.9918146e-03	
   8.9155000e+01	  -1.3631489e-01	  -2.1127353e-01	  -6.8257331e-03	
   8.9210000e+01	  -1.3271337e-01	  -2.0655539e-01	  -5.2237796e-03	
   8.9265000e+01	  -1.2896156e-01	  -2.0198279e-01	  -3.1423457e-03	
   8.9320000e+01	  -1.2503146e-01	  -1.9751984e-01	  -5.4250457e-04	
   8.9375000e+01	  -1.2088935e-01	  -1.9312125e-01	   2.6047808e-03	
   8.9430000e+01	  -1.1650441e-01	  -1.8873870e-01	   6.3139013e-03	
   8.9485000e+01	  -1.1185824e-01	  -1.8432730e-01	   1.0580688e-02	
   8.9540000e+01	  -1.0695184e-01	  -1.7985139e-01	   1.5379887e-02	
   8.9595000e+01	  -1.0180678e-01	  -1.7528794e-01	   2.0665720e-02	
   8.9650000e+01	  -9.6458243e-02	  -1.7062645e-01	   2.6377241e-02	
   8.9705000e+01	  -9.0940689e-02	  -1.6586485e-01	   3.2447784e-02	
   8.9760000e+01	  -8.5271123e-02	  -1.6100263e-01	   3.8815388e-02	
   8.9815000e+01	  -7.9436541e-02	  -1.5603347e-01	   4.5431325e-02	
   8.9870000e+01	  -7.3389231e-02	  -1.5094058e-01	   5.2265170e-02	
   8.9925000e+01	  -6.7049835e-02	  -1.4569562e-01	   5.9305499e-02	
   8.9980000e+01	  -6.0315950e-02	  -1.4026101e-01	   6.6555763e-02	
   9.0035000e+01	  -5.3073570e-02	  -1.3459459e-01	   7.4026310e-02	
   9.0090000e+01	  -4.5209731e-02	  -1.2865623e-01	   8.1724444e-02	
   9.0145000e+01	  -3.6626376e-02	  -1.2241518e-01	   8.9644153e-02	
   9.0200000e+01	  -2.7255423e-02	  -1.1585641e-01	   9.7756516e-02	
   9.0255000e+01	  -1.7073054e-02	  -1.0898548e-01	   1.0600206e-01	
   9.0310000e+01	  -6.1096264e-03	  -1.0183219e-01	   1.1428693e-01	
   9.0365000e+01	   5.5481510e-03	  -9.4452826e-02	   1.2248467e-01	
   9.0420000e+01	   1.7764624e-02	  -8.6929778e-02	   1.3044411e-01	
   9.0475000e+01	   3.0371229e-02	  -7.9366841e-02	   1.3800262e-01	
   9.0530000e+01	   4.3187595e-02	  -7.1880415e-02	   1.4500267e-01	
   9.0585000e+01	   5.6043319e-02	  -6.4587700e-02	   1.5130873e-01	
   9.0640000e+01	   6.8796202e-02	  -5.7593653e-02	   1.5682184e-01	
   9.0695000e+01	   8.1344077e-02	  -5.0979035e-02	   1.6148986e-01	
   9.0750000e+01	   9.3629805e-02	  -4.4791984e-02	   1.6531301e-01	
   9.0805000e+01	   1.0564027e-01	  -3.9044532e-02	   1.6834424e-01	
   9.0860000e+01	   1.1739964e-01	  -3.3714029e-02	   1.7068386e-01	
   9.0915000e+01	   1.2895765e-01	  -2.8748779e-02	   1.7246847e-01	
   9.0970000e+01	   1.4037498e-01	  -2.4076856e-02	   1.7385544e-01	
   9.1025000e+01	   1.5170800e-01	  -1.9616588e-02	   1.7500440e-01	
   9.1080000e+01	   1.6299433e-01	  -1.5287360e-02	   1.7605735e-01	
   9.1135000e+01	   1.7424100e-01	  -1.1020141e-02	   1.7712059e-01	
   9.1190000e+01	   1.8541749e-01	  -6.7671489e-03	   1.7825190e-01	
   9.1245000e+01	   1.9645505e-01	  -2.5088806e-03	   1.7945523e-01	
   9.1300000e+01	   2.0725159e-01	   1.7438133e-03	   1.8068388e-01	
   9.1355000e+01	   2.1768092e-01	   5.9535376e-03	   1.8185202e-01	
   9.1410000e+01	   2.2760593e-01	   1.0064917e-02	   1.8285281e-01	
   9.1465000e+01	   2.3689486e-01	   1.4015716e-02	   1.8357844e-01	
   9.1520000e+01	   2.4543797e-01	   1.7748080e-02	   1.8393753e-01	
   9.1575000e+01	   2.5316088e-01	   2.1217662e-02	   1.8386782e-01	
   9.1630000e+01	   2.6003206e-01	   2.4399477e-02	   1.8334400e-01	
   9.1685000e+01	   2.6606342e-01	   2.7290621e-02	   1.8238041e-01	
   9.1740000e+01	   2.7130462e-01	   2.9910107e-02	   1.8102801e-01	
   9.1795000e+01	   2.7583264e-01	   3.2295265e-02	   1.7936531e-01	
   9.1850000e+01	   2.7973844e-01	   3.4494216e-02	   1.7748516e-01	
   9.1905000e+01	   2.8311324e-01	   3.6555238e-02	   1.7547978e-01	
   9.1960000e+01	   2.8603695e-01	   3.8515149e-02	   1.7342664e-01	
   9.2015000e+01	   2.8857025e-01	   4.0388815e-02	   1.7137658e-01	
   9.2070000e+01	   2.9075062e-01	   4.2161066e-02	   1.6934538e-01	
   9.2125000e+01	   2.9259100e-01	   4.3782194e-02	   1.6730983e-01	
   9.2180000e+01	   2.9408015e-01	   4.5168354e-02	   1.6520938e-01	
   9.2235000e+01	   2.9518580e-01	   4.6207580e-02	   1.6295436e-01	
   9.2290000e+01	   2.9586374e-01	   4.6770815e-02	   1.6044052e-01	
   9.2345000e+01	   2.9607342e-01	   4.6726260e-02	   1.5756625e-01	
   9.2400000e+01	   2.9579578e-01	   4.5954658e-02	   1.5424798e-01	
   9.2455000e+01	   2.9504682e-01	   4.4362921e-02	   1.5043097e-01	
   9.2510000e+01	   2.9388412e-01	   4.1894093e-02	   1.4609460e-01	
   9.2565000e+01	   2.9240656e-01	   3.8532992e-02	   1.4125276e-01	
   9.2620000e+01	   2.9074856e-01	   3.4307632e-02	   1.3594963e-01	
   9.2675000e+01	   2.8906899e-01	   2.9286135e-02	   1.3025241e-01	
   9.2730000e+01	   2.8753615e-01	   2.3569161e-02	   1.2424215e-01	
   9.2785000e+01	   2.8631131e-01	   1.7279212e-02	   1.1800350e-01	
   9.2840000e+01	   2.8553283e-01	   1.0548824e-02	   1.1161401e-01	
   9.2895000e+01	   2.8530169e-01	   3.5087638e-03	   1.0513430e-01	
   9.2950000e+01	   2.8566949e-01	  -3.7230471e-03	   9.8601608e-02	
   9.3005000e+01	   2.8662985e-01	  -1.1050208e-02	   9.2028789e-02	
   9.3060000e+01	   2.8811476e-01	  -1.8401995e-02	   8.5409715e-02	
   9.3115000e+01	   2.8999821e-01	  -2.5732166e-02	   7.8730152e-02	
   9.3170000e+01	   2.9210974e-01	  -3.3013301e-02	   7.1981175e-02	
   9.3225000e+01	   2.9425610e-01	  -4.0228462e-02	   6.5170825e-02	
   9.3280000e+01	   2.9624518e-01	  -4.7362272e-02	   5.8330842e-02	
   9.3335000e+01	   2.9790571e-01	  -5.4393539e-02	   5.1517959e-02	
   9.3390000e+01	   2.9909906e-01	  -6.1290837e-02	   4.4811158e-02	
   9.3445000e+01	   2.9972270e-01	  -6.8011330e-02	   3.8306097e-02	
   9.3500000e+01	   2.9970725e-01	  -7.4502632e-02	   3.2106997e-02	
   9.3555000e+01	   2.9901047e-01	  -8.0707578e-02	   2.6316379e-02	
   9.3610000e+01	   2.9761167e-01	  -8.6571150e-02	   2.1023805e-02	
   9.3665000e+01	   2.9550825e-01	  -9.2047643e-02	   1.6295223e-02	
   9.3720000e+01	   2.9271339e-01	  -9.7106250e-02	   1.2164979e-02	
   9.3775000e+01	   2.8925408e-01	  -1.0173446e-01	   8.6331647e-03	
   9.3830000e+01	   2.8517083e-01	  -1.0593875e-01	   5.6699875e-03	
   9.3885000e+01	   2.8052117e-01	  -1.0974102e-01	   3.2262117e-03	
   9.3940000e+01	   2.7538610e-01	  -1.1317061e-01	   1.2464707e-03	
   9.3995000e+01	   2.6987638e-01	  -1.1625397e-01	  -3.1777857e-04	
   9.4050000e+01	   2.6413577e-01	  -1.1900544e-01	  -1.4980127e-03	
   9.4105000e+01	   2.5833966e-01	  -1.2142144e-01	  -2.3029817e-03	
   9.4160000e+01	   2.5268749e-01	  -1.2347903e-01	  -2.7187335e-03	
   9.4215000e+01	   2.4738907e-01	  -1.2513929e-01	  -2.7137617e-03	
   9.4270000e+01	   2.4264702e-01	  -1.2635420e-01	  -2.2474654e-03	
   9.4325000e+01	   2.3863858e-01	  -1.2707516e-01	  -1.2801230e-03	
   9.4380000e+01	   2.3549852e-01	  -1.2726142e-01	   2.1712801e-04	
   9.4435000e+01	   2.3330426e-01	  -1.2688805e-01	   2.2536454e-03	
   9.4490000e+01	   2.3206424e-01	  -1.2595282e-01	   4.8126459e-03	
   9.4545000e+01	   2.3171252e-01	  -1.2448079e-01	   7.8468074e-03	
   9.4600000e+01	   2.3211278e-01	  -1.2252483e-01	   1.1277240e-02	
   9.4655000e+01	   2.3307429e-01	  -1.2016094e-01	   1.4997697e-02	
   9.4710000e+01	   2.3437811e-01	  -1.1747909e-01	   1.8884137e-02	
   9.4765000e+01	   2.3580795e-01	  -1.1457179e-01	   2.2806836e-02	
   9.4820000e+01	   2.3717798e-01	  -1.1152250e-01	   2.6641864e-02	
   9.4875000e+01	   2.3835200e-01	  -1.0839614e-01	   3.0280418e-02	
   9.4930000e+01	   2.3925191e-01	  -1.0523297e-01	   3.3635313e-02	
   9.4985000e+01	   2.3985644e-01	  -1.0204662e-01	   3.6643535e-02	
   9.5040000e+01	   2.4019164e-01	  -9.8826763e-02	   3.9264383e-02	
   9.5095000e+01	   2.4031542e-01	  -9.5546084e-02	   4.1473825e-02	
   9.5150000e+01	   2.4029881e-01	  -9.2170300e-02	   4.3255953e-02	
   9.5205000e+01	   2.4020686e-01	  -8.8669034e-02	   4.4592534e-02	
   9.5260000e+01	   2.4008163e-01	  -8.5026149e-02	   4.5452741e-02	
   9.5315000e+01	   2.3993033e-01	  -8.1248675e-02	   4.5785978e-02	
   9.5370000e+01	   2.3972047e-01	  -7.7372907e-02	   4.5519937e-02	
   9.5425000e+01	   2.3938244e-01	  -7.3465675e-02	   4.4564645e-02	
   9.5480000e+01	   2.3881882e-01	  -6.9619715e-02	   4.2822377e-02	
   9.5535000e+01	   2.3791975e-01	  -6.5943756e-02	   4.0202072e-02	
   9.5590000e+01	   2.3658260e-01	  -6.2549311e-02	   3.6635176e-02	
