	
   0.0000000e+00	  -1.8510886e-01	  -3.4627175e-02	  -1.7229922e-02	
   5.5000000e-02	  -1.8437359e-01	  -5.1913124e-02	  -3.9144503e-02	
   1.1000000e-01	  -1.8462167e-01	  -6.8989314e-02	  -6.0788247e-02	
   1.6500000e-01	  -1.8559867e-01	  -8.5636871e-02	  -8.1879337e-02	
   2.2000000e-01	  -1.8705480e-01	  -1.0165330e-01	  -1.0215371e-01	
   2.7500000e-01	  -1.8876256e-01	  -1.1685793e-01	  -1.2137210e-01	
   3.3000000e-01	  -1.9053193e-01	  -1.3109651e-01	  -1.3932705e-01	
   3.8500000e-01	  -1.9221939e-01	  -1.4424472e-01	  -1.5584934e-01	
   4.4000000e-01	  -1.9372996e-01	  -1.5621032e-01	  -1.7081198e-01	
   4.9500000e-01	  -1.9501213e-01	  -1.6693314e-01	  -1.8413047e-01	
   5.5000000e-01	  -1.9604722e-01	  -1.7638192e-01	  -1.9575857e-01	
   6.0500000e-01	  -1.9683612e-01	  -1.8454790e-01	  -2.0568067e-01	
   6.6000000e-01	  -1.9738633e-01	  -1.9143752e-01	  -2.1390322e-01	
   7.1500000e-01	  -1.9770117e-01	  -1.9706619e-01	  -2.2044788e-01	
   7.7000000e-01	  -1.9777228e-01	  -2.0145382e-01	  -2.2534747e-01	
   8.2500000e-01	  -1.9757704e-01	  -2.0462220e-01	  -2.2864452e-01	
   8.8000000e-01	  -1.9708163e-01	  -2.0659486e-01	  -2.3039195e-01	
   9.3500000e-01	  -1.9624802e-01	  -2.0739912e-01	  -2.3065559e-01	
   9.9000000e-01	  -1.9504305e-01	  -2.0706921e-01	  -2.2951740e-01	
   1.0450000e+00	  -1.9344664e-01	  -2.0564896e-01	  -2.2707786e-01	
   1.1000000e+00	  -1.9145538e-01	  -2.0319319e-01	  -2.2345517e-01	
   1.1550000e+00	  -1.8907826e-01	  -1.9976663e-01	  -2.1877938e-01	
   1.2100000e+00	  -1.8632482e-01	  -1.9543969e-01	  -2.1318238e-01	
   1.2650000e+00	  -1.8318988e-01	  -1.9028255e-01	  -2.0678639e-01	
   1.3200000e+00	  -1.7964140e-01	  -1.8436035e-01	  -1.9969479e-01	
   1.3750000e+00	  -1.7561610e-01	  -1.7773151e-01	  -1.9198677e-01	
   1.4300000e+00	  -1.7102428e-01	  -1.7044882e-01	  -1.8371653e-01	
   1.4850000e+00	  -1.6576188e-01	  -1.6256281e-01	  -1.7491681e-01	
   1.5400000e+00	  -1.5972599e-01	  -1.5412671e-01	  -1.6560592e-01	
   1.5950000e+00	  -1.5282950e-01	  -1.4520245e-01	  -1.5579687e-01	
   1.6500000e+00	  -1.4501259e-01	  -1.3586653e-01	  -1.4550706e-01	
   1.7050000e+00	  -1.3624957e-01	  -1.2621435e-01	  -1.3476622e-01	
   1.7600000e+00	  -1.2654961e-01	  -1.1636171e-01	  -1.2361936e-01	
   1.8150000e+00	  -1.1594955e-01	  -1.0644176e-01	  -1.1212311e-01	
   1.8700000e+00	  -1.0450074e-01	  -9.6596650e-02	  -1.0033714e-01	
   1.9250000e+00	  -9.2255090e-02	  -8.6965722e-02	  -8.8314267e-02	
   1.9800000e+00	  -7.9254748e-02	  -7.7674025e-02	  -7.6092943e-02	
   2.0350000e+00	  -6.5526962e-02	  -6.8824050e-02	  -6.3694099e-02	
   2.0900000e+00	  -5.1083662e-02	  -6.0490895e-02	  -5.1123515e-02	
   2.1450000e+00	  -3.5925893e-02	  -5.2720448e-02	  -3.8378886e-02	
   2.2000000e+00	  -2.0052487e-02	  -4.5531003e-02	  -2.5459378e-02	
   2.2550000e+00	  -3.4706723e-03	  -3.8918544e-02	  -1.2375406e-02	
   2.3100000e+00	   1.3793825e-02	  -3.2864479e-02	   8.4335062e-04	
   2.3650000e+00	   3.1688884e-02	  -2.7343782e-02	   1.4143649e-02	
   2.4200000e+00	   5.0133162e-02	  -2.2331485e-02	   2.7449631e-02	
   2.4750000e+00	   6.9021431e-02	  -1.7805615e-02	   4.0669127e-02	
   2.5300000e+00	   8.8237250e-02	  -1.3745390e-02	   5.3703951e-02	
   2.5850000e+00	   1.0766787e-01	  -1.0125883e-02	   6.6462049e-02	
   2.6400000e+00	   1.2721659e-01	  -6.9122368e-03	   7.8868854e-02	
   2.6950000e+00	   1.4681079e-01	  -4.0559202e-03	   9.0874967e-02	
   2.7500000e+00	   1.6640558e-01	  -1.4937242e-03	   1.0245809e-01	
   2.8050000e+00	   1.8598239e-01	   8.5050918e-04	   1.1361914e-01	
   2.8600000e+00	   2.0554189e-01	   3.0614378e-03	   1.2437405e-01	
   2.9150000e+00	   2.2509173e-01	   5.2256883e-03	   1.3474309e-01	
   2.9700000e+00	   2.4463147e-01	   7.4246572e-03	   1.4473900e-01	
   3.0250000e+00	   2.6413818e-01	   9.7278616e-03	   1.5435556e-01	
   3.0800000e+00	   2.8355513e-01	   1.2187325e-02	   1.6355963e-01	
   3.1350000e+00	   3.0278573e-01	   1.4833445e-02	   1.7228901e-01	
   3.1900000e+00	   3.2169516e-01	   1.7673339e-02	   1.8045693e-01	
   3.2450000e+00	   3.4012146e-01	   2.0692484e-02	   1.8796306e-01	
   3.3000000e+00	   3.5789490e-01	   2.3859472e-02	   1.9470898e-01	
   3.3550000e+00	   3.7486087e-01	   2.7132838e-02	   2.0061427e-01	
   3.4100000e+00	   3.9089948e-01	   3.0468722e-02	   2.0562879e-01	
   3.4650000e+00	   4.0593691e-01	   3.3827888e-02	   2.0973958e-01	
   3.5200000e+00	   4.1994753e-01	   3.7180566e-02	   2.1297281e-01	
   3.5750000e+00	   4.3294889e-01	   4.0508311e-02	   2.1539128e-01	
   3.6300000e+00	   4.4499264e-01	   4.3803065e-02	   2.1708746e-01	
   3.6850000e+00	   4.5615304e-01	   4.7064363e-02	   2.1817273e-01	
   3.7400000e+00	   4.6651483e-01	   5.0295922e-02	   2.1876508e-01	
   3.7950000e+00	   4.7616199e-01	   5.3503035e-02	   2.1897730e-01	
   3.8500000e+00	   4.8516993e-01	   5.6691749e-02	   2.1890882e-01	
   3.9050000e+00	   4.9360369e-01	   5.9869984e-02	   2.1864316e-01	
   3.9600000e+00	   5.0152370e-01	   6.3049986e-02	   2.1825104e-01	
   4.0150000e+00	   5.0899733e-01	   6.6251211e-02	   2.1779638e-01	
   4.0700000e+00	   5.1611182e-01	   6.9502549e-02	   2.1734207e-01	
   4.1250000e+00	   5.2298305e-01	   7.2842830e-02	   2.1695377e-01	
   4.1800000e+00	   5.2975596e-01	   7.6319257e-02	   2.1670121e-01	
   4.2350000e+00	   5.3659623e-01	   7.9984218e-02	   2.1665671e-01	
   4.2900000e+00	   5.4367517e-01	   8.3890847e-02	   2.1689095e-01	
   4.3450000e+00	   5.5115216e-01	   8.8087127e-02	   2.1746680e-01	
   4.4000000e+00	   5.5915885e-01	   9.2608669e-02	   2.1843260e-01	
   4.4550000e+00	   5.6778795e-01	   9.7471502e-02	   2.1981609e-01	
   4.5100000e+00	   5.7708740e-01	   1.0266702e-01	   2.2162009e-01	
   4.5650000e+00	   5.8705911e-01	   1.0816085e-01	   2.2382174e-01	
   4.6200000e+00	   5.9766302e-01	   1.1389642e-01	   2.2637720e-01	
   4.6750000e+00	   6.0882648e-01	   1.1980286e-01	   2.2923094e-01	
   4.7300000e+00	   6.2045723e-01	   1.2580547e-01	   2.3232555e-01	
   4.7850000e+00	   6.3245643e-01	   1.3183576e-01	   2.3560880e-01	
   4.8400000e+00	   6.4472808e-01	   1.3783780e-01	   2.3903756e-01	
   4.8950000e+00	   6.5718285e-01	   1.4376972e-01	   2.4257867e-01	
   4.9500000e+00	   6.6973544e-01	   1.4960129e-01	   2.4620664e-01	
   5.0050000e+00	   6.8229662e-01	   1.5530946e-01	   2.4989863e-01	
   5.0600000e+00	   6.9476256e-01	   1.6087243e-01	   2.5362746e-01	
   5.1150000e+00	   7.0700381e-01	   1.6626306e-01	   2.5735374e-01	
   5.1700000e+00	   7.1885597e-01	   1.7144282e-01	   2.6101810e-01	
   5.2250000e+00	   7.3011447e-01	   1.7635748e-01	   2.6453577e-01	
   5.2800000e+00	   7.4053747e-01	   1.8093591e-01	   2.6779602e-01	
   5.3350000e+00	   7.4986054e-01	   1.8509353e-01	   2.7066802e-01	
   5.3900000e+00	   7.5782248e-01	   1.8874043e-01	   2.7301200e-01	
   5.4450000e+00	   7.6419621e-01	   1.9179153e-01	   2.7469267e-01	
   5.5000000e+00	   7.6881621e-01	   1.9417513e-01	   2.7559118e-01	
   5.5550000e+00	   7.7159638e-01	   1.9583766e-01	   2.7561369e-01	
   5.6100000e+00	   7.7253568e-01	   1.9674494e-01	   2.7469527e-01	
   5.6650000e+00	   7.7171235e-01	   1.9688052e-01	   2.7279942e-01	
   5.7200000e+00	   7.6926938e-01	   1.9624200e-01	   2.6991398e-01	
   5.7750000e+00	   7.6539473e-01	   1.9483599e-01	   2.6604418e-01	
   5.8300000e+00	   7.6030034e-01	   1.9267293e-01	   2.6120405e-01	
   5.8850000e+00	   7.5420277e-01	   1.8976274e-01	   2.5540804e-01	
   5.9400000e+00	   7.4730575e-01	   1.8611107e-01	   2.4866547e-01	
   5.9950000e+00	   7.3978574e-01	   1.8171606e-01	   2.4097926e-01	
   6.0500000e+00	   7.3178312e-01	   1.7656753e-01	   2.3234945e-01	
   6.1050000e+00	   7.2340139e-01	   1.7065036e-01	   2.2278130e-01	
   6.1600000e+00	   7.1471362e-01	   1.6395217e-01	   2.1229577e-01	
   6.2150000e+00	   7.0577359e-01	   1.5647326e-01	   2.0093930e-01	
   6.2700000e+00	   6.9662805e-01	   1.4823600e-01	   1.8878980e-01	
   6.3250000e+00	   6.8732695e-01	   1.3929139e-01	   1.7595836e-01	
   6.3800000e+00	   6.7792909e-01	   1.2972108e-01	   1.6258753e-01	
   6.4350000e+00	   6.6850210e-01	   1.1963507e-01	   1.4884679e-01	
   6.4900000e+00	   6.5911760e-01	   1.0916606e-01	   1.3492494e-01	
   6.5450000e+00	   6.4984358e-01	   9.8461727e-02	   1.2101967e-01	
   6.6000000e+00	   6.4073648e-01	   8.7675712e-02	   1.0732571e-01	
   6.6550000e+00	   6.3183530e-01	   7.6958682e-02	   9.4023934e-02	
   6.7100000e+00	   6.2315900e-01	   6.6450502e-02	   8.1273931e-02	
   6.7650000e+00	   6.1470656e-01	   5.6274103e-02	   6.9211413e-02	
   6.8200000e+00	   6.0645980e-01	   4.6531257e-02	   5.7950378e-02	
   6.8750000e+00	   5.9838858e-01	   3.7300694e-02	   4.7588531e-02	
   6.9300000e+00	   5.9045677e-01	   2.8638721e-02	   3.8213052e-02	
   6.9850000e+00	   5.8262628e-01	   2.0581416e-02	   2.9904446e-02	
   7.0400000e+00	   5.7485753e-01	   1.3146625e-02	   2.2738183e-02	
   7.0950000e+00	   5.6710615e-01	   6.3347011e-03	   1.6784363e-02	
   7.1500000e+00	   5.5931512e-01	   1.2831130e-04	   1.2104799e-02	
   7.2050000e+00	   5.5140264e-01	  -5.5078605e-03	   8.7472095e-03	
   7.2600000e+00	   5.4324971e-01	  -1.0627098e-02	   6.7377018e-03	
   7.3150000e+00	   5.3469258e-01	  -1.5299839e-02	   6.0736120e-03	
   7.3700000e+00	   5.2552167e-01	  -1.9611226e-02	   6.7186369e-03	
   7.4250000e+00	   5.1548540e-01	  -2.3656468e-02	   8.6021355e-03	
   7.4800000e+00	   5.0429851e-01	  -2.7534092e-02	   1.1623791e-02	
   7.5350000e+00	   4.9165573e-01	  -3.1337729e-02	   1.5662546e-02	
   7.5900000e+00	   4.7724966e-01	  -3.5147659e-02	   2.0586758e-02	
   7.6450000e+00	   4.6078907e-01	  -3.9023853e-02	   2.6262974e-02	
   7.7000000e+00	   4.4201403e-01	  -4.3001858e-02	   3.2562345e-02	
   7.7550000e+00	   4.2070557e-01	  -4.7091637e-02	   3.9364094e-02	
   7.8100000e+00	   3.9669030e-01	  -5.1278917e-02	   4.6555659e-02	
   7.8650000e+00	   3.6984237e-01	  -5.5529198e-02	   5.4030312e-02	
   7.9200000e+00	   3.4008645e-01	  -5.9794487e-02	   6.1684267e-02	
   7.9750000e+00	   3.0740533e-01	  -6.4021263e-02	   6.9415154e-02	
   8.0300000e+00	   2.7185423e-01	  -6.8156965e-02	   7.7123174e-02	
   8.0850000e+00	   2.3357988e-01	  -7.2153122e-02	   8.4716046e-02	
   8.1400000e+00	   1.9284024e-01	  -7.5965008e-02	   9.2117833e-02	
   8.1950000e+00	   1.5001942e-01	  -7.9548946e-02	   9.9279477e-02	
   8.2500000e+00	   1.0563412e-01	  -8.2858783e-02	   1.0618760e-01	
   8.3050000e+00	   6.0329254e-02	  -8.5843010e-02	   1.1286898e-01	
   8.3600000e+00	   1.4862043e-02	  -8.8443561e-02	   1.1938979e-01	
   8.4150000e+00	  -2.9926272e-02	  -9.0596648e-02	   1.2584937e-01	
   8.4700000e+00	  -7.3151945e-02	  -9.2235508e-02	   1.3236955e-01	
   8.5250000e+00	  -1.1394161e-01	  -9.3294922e-02	   1.3908192e-01	
   8.5800000e+00	  -1.5149019e-01	  -9.3717179e-02	   1.4611572e-01	
   8.6350000e+00	  -1.8511485e-01	  -9.3458549e-02	   1.5358746e-01	
   8.6900000e+00	  -2.1429710e-01	  -9.2494379e-02	   1.6159309e-01	
   8.7450000e+00	  -2.3870828e-01	  -9.0820803e-02	   1.7020364e-01	
   8.8000000e+00	  -2.5821751e-01	  -8.8452377e-02	   1.7946542e-01	
   8.8550000e+00	  -2.7288517e-01	  -8.5416879e-02	   1.8940347e-01	
   8.9100000e+00	  -2.8294780e-01	  -8.1749407e-02	   2.0002533e-01	
   8.9650000e+00	  -2.8879906e-01	  -7.7487812e-02	   2.1132361e-01	
   9.0200000e+00	  -2.9096812e-01	  -7.2670739e-02	   2.2327733e-01	
   9.0750000e+00	  -2.9009478e-01	  -6.7338205e-02	   2.3585256e-01	
   9.1300000e+00	  -2.8689985e-01	  -6.1533385e-02	   2.4900190e-01	
   9.1850000e+00	  -2.8215040e-01	  -5.5304212e-02	   2.6266260e-01	
   9.2400000e+00	  -2.7662066e-01	  -4.8704020e-02	   2.7675424e-01	
   9.2950000e+00	  -2.7105081e-01	  -4.1790756e-02	   2.9117813e-01	
   9.3500000e+00	  -2.6610611e-01	  -3.4624256e-02	   3.0581995e-01	
   9.4050000e+00	  -2.6233976e-01	  -2.7261646e-02	   3.2055648e-01	
   9.4600000e+00	  -2.6016295e-01	  -1.9751682e-02	   3.3526519e-01	
   9.5150000e+00	  -2.5982602e-01	  -1.2129288e-02	   3.4983409e-01	
   9.5700000e+00	  -2.6141307e-01	  -4.4114580e-03	   3.6416852e-01	
   9.6250000e+00	  -2.6485069e-01	   3.4041131e-03	   3.7819379e-01	
   9.6800000e+00	  -2.6992894e-01	   1.1336493e-02	   3.9185401e-01	
   9.7350000e+00	  -2.7633107e-01	   1.9414878e-02	   4.0510881e-01	
   9.7900000e+00	  -2.8366721e-01	   2.7669162e-02	   4.1792853e-01	
   9.8450000e+00	  -2.9150735e-01	   3.6119932e-02	   4.3028823e-01	
   9.9000000e+00	  -2.9940920e-01	   4.4769935e-02	   4.4216132e-01	
   9.9550000e+00	  -3.0693798e-01	   5.3598650e-02	   4.5351466e-01	
   1.0010000e+01	  -3.1367715e-01	   6.2561318e-02	   4.6430737e-01	
   1.0065000e+01	  -3.1923315e-01	   7.1592978e-02	   4.7449449e-01	
   1.0120000e+01	  -3.2323846e-01	   8.0616511e-02	   4.8403445e-01	
   1.0175000e+01	  -3.2535673e-01	   8.9552217e-02	   4.9289734e-01	
   1.0230000e+01	  -3.2529092e-01	   9.8326139e-02	   5.0107090e-01	
   1.0285000e+01	  -3.2279463e-01	   1.0687532e-01	   5.0856177e-01	
   1.0340000e+01	  -3.1768650e-01	   1.1514948e-01	   5.1539195e-01	
   1.0395000e+01	  -3.0986563e-01	   1.2310985e-01	   5.2159130e-01	
   1.0450000e+01	  -2.9932190e-01	   1.3072663e-01	   5.2718838e-01	
   1.0505000e+01	  -2.8613546e-01	   1.3797616e-01	   5.3220213e-01	
   1.0560000e+01	  -2.7046424e-01	   1.4483783e-01	   5.3663698e-01	
   1.0615000e+01	  -2.5252394e-01	   1.5129154e-01	   5.4048323e-01	
   1.0670000e+01	  -2.3256558e-01	   1.5731747e-01	   5.4372327e-01	
   1.0725000e+01	  -2.1085558e-01	   1.6289904e-01	   5.4634147e-01	
   1.0780000e+01	  -1.8766277e-01	   1.6802744e-01	   5.4833446e-01	
   1.0835000e+01	  -1.6325643e-01	   1.7270508e-01	   5.4971838e-01	
   1.0890000e+01	  -1.3791525e-01	   1.7694693e-01	   5.5053129e-01	
   1.0945000e+01	  -1.1194251e-01	   1.8077990e-01	   5.5083069e-01	
   1.1000000e+01	  -8.5679955e-02	   1.8424002e-01	   5.5068768e-01	
   1.1055000e+01	  -5.9513631e-02	   1.8736782e-01	   5.5017935e-01	
   1.1110000e+01	  -3.3868666e-02	   1.9020290e-01	   5.4938111e-01	
   1.1165000e+01	  -9.1942245e-03	   1.9277913e-01	   5.4836041e-01	
   1.1220000e+01	   1.4058224e-02	   1.9512186e-01	   5.4717394e-01	
   1.1275000e+01	   3.5460516e-02	   1.9724738e-01	   5.4586996e-01	
   1.1330000e+01	   5.4633929e-02	   1.9916482e-01	   5.4449430e-01	
   1.1385000e+01	   7.1271033e-02	   2.0087945e-01	   5.4309652e-01	
   1.1440000e+01	   8.5149188e-02	   2.0239627e-01	   5.4173281e-01	
   1.1495000e+01	   9.6134120e-02	   2.0372280e-01	   5.4046414e-01	
   1.1550000e+01	   1.0417409e-01	   2.0487079e-01	   5.3935002e-01	
   1.1605000e+01	   1.0928753e-01	   2.0585662e-01	   5.3843948e-01	
   1.1660000e+01	   1.1154942e-01	   2.0669986e-01	   5.3776192e-01	
   1.1715000e+01	   1.1108136e-01	   2.0742023e-01	   5.3732055e-01	
   1.1770000e+01	   1.0804688e-01	   2.0803448e-01	   5.3708939e-01	
   1.1825000e+01	   1.0265096e-01	   2.0855417e-01	   5.3701467e-01	
   1.1880000e+01	   9.5142473e-02	   2.0898536e-01	   5.3702103e-01	
   1.1935000e+01	   8.5819147e-02	   2.0933052e-01	   5.3702171e-01	
   1.1990000e+01	   7.5032137e-02	   2.0959246e-01	   5.3692984e-01	
   1.2045000e+01	   6.3184904e-02	   2.0977867e-01	   5.3666798e-01	
   1.2100000e+01	   5.0721750e-02	   2.0990384e-01	   5.3617459e-01	
   1.2155000e+01	   3.8106912e-02	   2.0998935e-01	   5.3540662e-01	
   1.2210000e+01	   2.5799358e-02	   2.1005982e-01	   5.3433825e-01	
   1.2265000e+01	   1.4227753e-02	   2.1013790e-01	   5.3295629e-01	
   1.2320000e+01	   3.7675538e-03	   2.1023822e-01	   5.3125371e-01	
   1.2375000e+01	  -5.2784662e-03	   2.1036144e-01	   5.2922267e-01	
   1.2430000e+01	  -1.2694537e-02	   2.1048969e-01	   5.2684896e-01	
   1.2485000e+01	  -1.8359418e-02	   2.1058511e-01	   5.2410996e-01	
   1.2540000e+01	  -2.2245409e-02	   2.1059242e-01	   5.2097747e-01	
   1.2595000e+01	  -2.4407513e-02	   2.1044519e-01	   5.1742519e-01	
   1.2650000e+01	  -2.4964496e-02	   2.1007478e-01	   5.1343789e-01	
   1.2705000e+01	  -2.4077208e-02	   2.0941982e-01	   5.0901920e-01	
   1.2760000e+01	  -2.1929384e-02	   2.0843417e-01	   5.0419581e-01	
   1.2815000e+01	  -1.8712651e-02	   2.0709174e-01	   4.9901749e-01	
   1.2870000e+01	  -1.4615153e-02	   2.0538804e-01	   4.9355319e-01	
   1.2925000e+01	  -9.8137832e-03	   2.0333878e-01	   4.8788367e-01	
   1.2980000e+01	  -4.4710728e-03	   2.0097602e-01	   4.8209242e-01	
   1.3035000e+01	   1.2630355e-03	   1.9834313e-01	   4.7625722e-01	
   1.3090000e+01	   7.2463212e-03	   1.9549002e-01	   4.7044370e-01	
   1.3145000e+01	   1.3339829e-02	   1.9246980e-01	   4.6470206e-01	
   1.3200000e+01	   1.9407225e-02	   1.8933757e-01	   4.5906780e-01	
   1.3255000e+01	   2.5319608e-02	   1.8615077e-01	   4.5356651e-01	
   1.3310000e+01	   3.0965044e-02	   1.8297039e-01	   4.4822070e-01	
   1.3365000e+01	   3.6259692e-02	   1.7986203e-01	   4.4305600e-01	
   1.3420000e+01	   4.1155652e-02	   1.7689578e-01	   4.3810433e-01	
   1.3475000e+01	   4.5641405e-02	   1.7414463e-01	   4.3340283e-01	
   1.3530000e+01	   4.9734030e-02	   1.7168155e-01	   4.2898848e-01	
   1.3585000e+01	   5.3466153e-02	   1.6957513e-01	   4.2488979e-01	
   1.3640000e+01	   5.6872617e-02	   1.6788325e-01	   4.2111816e-01	
   1.3695000e+01	   5.9980833e-02	   1.6664550e-01	   4.1766105e-01	
   1.3750000e+01	   6.2805796e-02	   1.6587613e-01	   4.1447791e-01	
   1.3805000e+01	   6.5348823e-02	   1.6555954e-01	   4.1149936e-01	
   1.3860000e+01	   6.7600271e-02	   1.6564973e-01	   4.0863035e-01	
   1.3915000e+01	   6.9548385e-02	   1.6607374e-01	   4.0575782e-01	
   1.3970000e+01	   7.1195097e-02	   1.6673952e-01	   4.0276153e-01	
   1.4025000e+01	   7.2574784e-02	   1.6754694e-01	   3.9952544e-01	
   1.4080000e+01	   7.3768654e-02	   1.6839981e-01	   3.9594760e-01	
   1.4135000e+01	   7.4909382e-02	   1.6921651e-01	   3.9194784e-01	
   1.4190000e+01	   7.6174794e-02	   1.6993778e-01	   3.8747233e-01	
   1.4245000e+01	   7.7771882e-02	   1.7053091e-01	   3.8249428e-01	
   1.4300000e+01	   7.9913486e-02	   1.7098936e-01	   3.7701032e-01	
   1.4355000e+01	   8.2791376e-02	   1.7132794e-01	   3.7103329e-01	
   1.4410000e+01	   8.6550308e-02	   1.7157459e-01	   3.6458343e-01	
   1.4465000e+01	   9.1266373e-02	   1.7176096e-01	   3.5767907e-01	
   1.4520000e+01	   9.6931323e-02	   1.7191397e-01	   3.5032839e-01	
   1.4575000e+01	   1.0344464e-01	   1.7204913e-01	   3.4252379e-01	
   1.4630000e+01	   1.1061592e-01	   1.7216684e-01	   3.3424037e-01	
   1.4685000e+01	   1.1817919e-01	   1.7225238e-01	   3.2543960e-01	
   1.4740000e+01	   1.2581788e-01	   1.7227895e-01	   3.1607834e-01	
   1.4795000e+01	   1.3319570e-01	   1.7221235e-01	   3.0612088e-01	
   1.4850000e+01	   1.3998809e-01	   1.7201572e-01	   2.9554998e-01	
   1.4905000e+01	   1.4590885e-01	   1.7165354e-01	   2.8437398e-01	
   1.4960000e+01	   1.5072864e-01	   1.7109412e-01	   2.7262974e-01	
   1.5015000e+01	   1.5428440e-01	   1.7031013e-01	   2.6038240e-01	
   1.5070000e+01	   1.5648025e-01	   1.6927767e-01	   2.4772186e-01	
   1.5125000e+01	   1.5728049e-01	   1.6797473e-01	   2.3475555e-01	
   1.5180000e+01	   1.5669565e-01	   1.6638014e-01	   2.2159845e-01	
   1.5235000e+01	   1.5476405e-01	   1.6447285e-01	   2.0836173e-01	
   1.5290000e+01	   1.5153272e-01	   1.6223125e-01	   1.9514114e-01	
   1.5345000e+01	   1.4704190e-01	   1.5963228e-01	   1.8200649e-01	
   1.5400000e+01	   1.4131644e-01	   1.5665084e-01	   1.6899461e-01	
   1.5455000e+01	   1.3436578e-01	   1.5326063e-01	   1.5610795e-01	
   1.5510000e+01	   1.2619218e-01	   1.4943716e-01	   1.4331916e-01	
   1.5565000e+01	   1.1680470e-01	   1.4516299e-01	   1.3058007e-01	
   1.5620000e+01	   1.0623512e-01	   1.4043363e-01	   1.1783292e-01	
   1.5675000e+01	   9.4552226e-02	   1.3526213e-01	   1.0502165e-01	
   1.5730000e+01	   8.1871736e-02	   1.2968101e-01	   9.2100994e-02	
   1.5785000e+01	   6.8360412e-02	   1.2374173e-01	   7.9041755e-02	
   1.5840000e+01	   5.4233830e-02	   1.1751213e-01	   6.5831689e-02	
   1.5895000e+01	   3.9748470e-02	   1.1107196e-01	   5.2472691e-02	
   1.5950000e+01	   2.5188425e-02	   1.0450693e-01	   3.8974784e-02	
   1.6005000e+01	   1.0846601e-02	   9.7901373e-02	   2.5347753e-02	
   1.6060000e+01	  -2.9980339e-03	   9.1329433e-02	   1.1591906e-02	
   1.6115000e+01	  -1.6103218e-02	   8.4845539e-02	  -2.3098078e-03	
   1.6170000e+01	  -2.8282051e-02	   7.8476199e-02	  -1.6395827e-02	
   1.6225000e+01	  -3.9414439e-02	   7.2215908e-02	  -3.0724242e-02	
   1.6280000e+01	  -4.9448740e-02	   6.6028416e-02	  -4.5364757e-02	
   1.6335000e+01	  -5.8392858e-02	   5.9852900e-02	  -6.0385973e-02	
   1.6390000e+01	  -6.6298458e-02	   5.3613687e-02	  -7.5841316e-02	
   1.6445000e+01	  -7.3244574e-02	   4.7231622e-02	  -9.1757097e-02	
   1.6500000e+01	  -7.9324853e-02	   4.0634811e-02	  -1.0812490e-01	
   1.6555000e+01	  -8.4639258e-02	   3.3766896e-02	  -1.2489911e-01	
   1.6610000e+01	  -8.9289677e-02	   2.6592022e-02	  -1.4199971e-01	
   1.6665000e+01	  -9.3378949e-02	   1.9096461e-02	  -1.5931998e-01	
   1.6720000e+01	  -9.7012941e-02	   1.1286950e-02	  -1.7673767e-01	
   1.6775000e+01	  -1.0030456e-01	   3.1861076e-03	  -1.9412723e-01	
   1.6830000e+01	  -1.0337727e-01	  -5.1736359e-03	  -2.1137039e-01	
   1.6885000e+01	  -1.0636493e-01	  -1.3755572e-02	  -2.2836298e-01	
   1.6940000e+01	  -1.0940498e-01	  -2.2522176e-02	  -2.4501641e-01	
   1.6995000e+01	  -1.1262377e-01	  -3.1435547e-02	  -2.6125388e-01	
   1.7050000e+01	  -1.1611684e-01	  -4.0454345e-02	  -2.7700345e-01	
   1.7105000e+01	  -1.1993123e-01	  -4.9528089e-02	  -2.9219155e-01	
   1.7160000e+01	  -1.2405652e-01	  -5.8591421e-02	  -3.0673911e-01	
   1.7215000e+01	  -1.2842694e-01	  -6.7561059e-02	  -3.2056160e-01	
   1.7270000e+01	  -1.3293279e-01	  -7.6336613e-02	  -3.3357353e-01	
   1.7325000e+01	  -1.3743761e-01	  -8.4805307e-02	  -3.4569670e-01	
   1.7380000e+01	  -1.4179812e-01	  -9.2850336e-02	  -3.5686982e-01	
   1.7435000e+01	  -1.4588353e-01	  -1.0036202e-01	  -3.6705755e-01	
   1.7490000e+01	  -1.4959230e-01	  -1.0724989e-01	  -3.7625806e-01	
   1.7545000e+01	  -1.5286525e-01	  -1.1345365e-01	  -3.8450843e-01	
   1.7600000e+01	  -1.5569414e-01	  -1.1895137e-01	  -3.9188644e-01	
   1.7655000e+01	  -1.5812275e-01	  -1.2376374e-01	  -3.9850745e-01	
   1.7710000e+01	  -1.6023747e-01	  -1.2795293e-01	  -4.0451575e-01	
   1.7765000e+01	  -1.6214837e-01	  -1.3161538e-01	  -4.1007091e-01	
   1.7820000e+01	  -1.6396579e-01	  -1.3486945e-01	  -4.1533097e-01	
   1.7875000e+01	  -1.6577771e-01	  -1.3784076e-01	  -4.2043543e-01	
   1.7930000e+01	  -1.6763121e-01	  -1.4064788e-01	  -4.2549107e-01	
   1.7985000e+01	  -1.6952154e-01	  -1.4339047e-01	  -4.3056225e-01	
   1.8040000e+01	  -1.7139160e-01	  -1.4614098e-01	  -4.3566608e-01	
   1.8095000e+01	  -1.7314197e-01	  -1.4894068e-01	  -4.4077340e-01	
   1.8150000e+01	  -1.7464788e-01	  -1.5180016e-01	  -4.4581615e-01	
   1.8205000e+01	  -1.7577944e-01	  -1.5470427e-01	  -4.5070067e-01	
   1.8260000e+01	  -1.7642313e-01	  -1.5762048e-01	  -4.5532451e-01	
   1.8315000e+01	  -1.7650228e-01	  -1.6050931e-01	  -4.5959355e-01	
   1.8370000e+01	  -1.7599338e-01	  -1.6333531e-01	  -4.6343704e-01	
   1.8425000e+01	  -1.7493587e-01	  -1.6607673e-01	  -4.6681902e-01	
   1.8480000e+01	  -1.7343425e-01	  -1.6873278e-01	  -4.6974440e-01	
   1.8535000e+01	  -1.7165165e-01	  -1.7132747e-01	  -4.7225779e-01	
   1.8590000e+01	  -1.6979456e-01	  -1.7390824e-01	  -4.7443462e-01	
   1.8645000e+01	  -1.6809077e-01	  -1.7653888e-01	  -4.7636689e-01	
   1.8700000e+01	  -1.6676519e-01	  -1.7928853e-01	  -4.7814674e-01	
   1.8755000e+01	  -1.6601784e-01	  -1.8222015e-01	  -4.7985130e-01	
   1.8810000e+01	  -1.6600680e-01	  -1.8538115e-01	  -4.8153140e-01	
   1.8865000e+01	  -1.6683719e-01	  -1.8879733e-01	  -4.8320589e-01	
   1.8920000e+01	  -1.6855660e-01	  -1.9247047e-01	  -4.8486180e-01	
   1.8975000e+01	  -1.7115678e-01	  -1.9637952e-01	  -4.8645954e-01	
   1.9030000e+01	  -1.7458191e-01	  -2.0048420e-01	  -4.8794244e-01	
   1.9085000e+01	  -1.7874303e-01	  -2.0472996e-01	  -4.8924956e-01	
   1.9140000e+01	  -1.8353651e-01	  -2.0905449e-01	  -4.9032971e-01	
   1.9195000e+01	  -1.8886278e-01	  -2.1339613e-01	  -4.9115413e-01	
   1.9250000e+01	  -1.9464060e-01	  -2.1770342e-01	  -4.9172519e-01	
   1.9305000e+01	  -2.0081323e-01	  -2.2194289e-01	  -4.9207917e-01	
   1.9360000e+01	  -2.0734514e-01	  -2.2610242e-01	  -4.9228156e-01	
   1.9415000e+01	  -2.1421026e-01	  -2.3018833e-01	  -4.9241582e-01	
   1.9470000e+01	  -2.2137486e-01	  -2.3421686e-01	  -4.9256913e-01	
   1.9525000e+01	  -2.2877969e-01	  -2.3820295e-01	  -4.9281918e-01	
   1.9580000e+01	  -2.3632704e-01	  -2.4215028e-01	  -4.9322462e-01	
   1.9635000e+01	  -2.4387615e-01	  -2.4604505e-01	  -4.9381996e-01	
   1.9690000e+01	  -2.5124780e-01	  -2.4985423e-01	  -4.9461549e-01	
   1.9745000e+01	  -2.5823705e-01	  -2.5352758e-01	  -4.9560163e-01	
   1.9800000e+01	  -2.6463163e-01	  -2.5700307e-01	  -4.9675554e-01	
   1.9855000e+01	  -2.7023190e-01	  -2.6021458e-01	  -4.9804810e-01	
   1.9910000e+01	  -2.7486925e-01	  -2.6310028e-01	  -4.9945028e-01	
   1.9965000e+01	  -2.7842105e-01	  -2.6561000e-01	  -5.0093930e-01	
   2.0020000e+01	  -2.8082204e-01	  -2.6771144e-01	  -5.0250372e-01	
   2.0075000e+01	  -2.8207034e-01	  -2.6939526e-01	  -5.0414572e-01	
   2.0130000e+01	  -2.8222503e-01	  -2.7067763e-01	  -5.0587901e-01	
   2.0185000e+01	  -2.8139374e-01	  -2.7159855e-01	  -5.0772274e-01	
   2.0240000e+01	  -2.7971312e-01	  -2.7221553e-01	  -5.0969313e-01	
   2.0295000e+01	  -2.7732772e-01	  -2.7259502e-01	  -5.1179533e-01	
   2.0350000e+01	  -2.7437291e-01	  -2.7280437e-01	  -5.1401746e-01	
   2.0405000e+01	  -2.7096492e-01	  -2.7290613e-01	  -5.1632812e-01	
   2.0460000e+01	  -2.6719876e-01	  -2.7295513e-01	  -5.1867744e-01	
   2.0515000e+01	  -2.6315284e-01	  -2.7299795e-01	  -5.2100127e-01	
   2.0570000e+01	  -2.5889784e-01	  -2.7307359e-01	  -5.2322853e-01	
   2.0625000e+01	  -2.5450654e-01	  -2.7321428e-01	  -5.2529107e-01	
   2.0680000e+01	  -2.5006251e-01	  -2.7344671e-01	  -5.2713415e-01	
   2.0735000e+01	  -2.4566628e-01	  -2.7379407e-01	  -5.2872415e-01	
   2.0790000e+01	  -2.4143720e-01	  -2.7427824e-01	  -5.3005105e-01	
   2.0845000e+01	  -2.3750910e-01	  -2.7492075e-01	  -5.3112486e-01	
   2.0900000e+01	  -2.3401913e-01	  -2.7574155e-01	  -5.3196727e-01	
   2.0955000e+01	  -2.3109277e-01	  -2.7675537e-01	  -5.3260122e-01	
   2.1010000e+01	  -2.2882931e-01	  -2.7796671e-01	  -5.3304130e-01	
   2.1065000e+01	  -2.2729121e-01	  -2.7936509e-01	  -5.3328753e-01	
   2.1120000e+01	  -2.2649831e-01	  -2.8092235e-01	  -5.3332331e-01	
   2.1175000e+01	  -2.2642681e-01	  -2.8259360e-01	  -5.3311711e-01	
   2.1230000e+01	  -2.2701251e-01	  -2.8432178e-01	  -5.3262741e-01	
   2.1285000e+01	  -2.2815782e-01	  -2.8604504e-01	  -5.3181003e-01	
   2.1340000e+01	  -2.2974131e-01	  -2.8770543e-01	  -5.3062627e-01	
   2.1395000e+01	  -2.3162801e-01	  -2.8925718e-01	  -5.2904911e-01	
   2.1450000e+01	  -2.3367806e-01	  -2.9067247e-01	  -5.2706552e-01	
   2.1505000e+01	  -2.3575220e-01	  -2.9194316e-01	  -5.2467411e-01	
   2.1560000e+01	  -2.3771278e-01	  -2.9307784e-01	  -5.2187869e-01	
   2.1615000e+01	  -2.3942022e-01	  -2.9409529e-01	  -5.1867997e-01	
   2.1670000e+01	  -2.4072701e-01	  -2.9501639e-01	  -5.1506843e-01	
   2.1725000e+01	  -2.4147386e-01	  -2.9585638e-01	  -5.1102052e-01	
   2.1780000e+01	  -2.4149184e-01	  -2.9661939e-01	  -5.0649886e-01	
   2.1835000e+01	  -2.4061058e-01	  -2.9729613e-01	  -5.0145540e-01	
   2.1890000e+01	  -2.3866950e-01	  -2.9786475e-01	  -4.9583692e-01	
   2.1945000e+01	  -2.3552990e-01	  -2.9829420e-01	  -4.8959226e-01	
   2.2000000e+01	  -2.3108746e-01	  -2.9854919e-01	  -4.8268101e-01	
   2.2055000e+01	  -2.2528488e-01	  -2.9859617e-01	  -4.7508211e-01	
   2.2110000e+01	  -2.1812326e-01	  -2.9841005e-01	  -4.6680148e-01	
   2.2165000e+01	  -2.0967045e-01	  -2.9798037e-01	  -4.5787755e-01	
   2.2220000e+01	  -2.0006406e-01	  -2.9731490e-01	  -4.4838277e-01	
   2.2275000e+01	  -1.8950542e-01	  -2.9643917e-01	  -4.3841870e-01	
   2.2330000e+01	  -1.7824347e-01	  -2.9539155e-01	  -4.2810470e-01	
   2.2385000e+01	  -1.6655249e-01	  -2.9421569e-01	  -4.1756378e-01	
   2.2440000e+01	  -1.5471099e-01	  -2.9295284e-01	  -4.0691046e-01	
   2.2495000e+01	  -1.4298738e-01	  -2.9163648e-01	  -3.9624347e-01	
   2.2550000e+01	  -1.3163180e-01	  -2.9028973e-01	  -3.8564418e-01	
   2.2605000e+01	  -1.2087108e-01	  -2.8892417e-01	  -3.7517993e-01	
   2.2660000e+01	  -1.1090538e-01	  -2.8753962e-01	  -3.6491073e-01	
   2.2715000e+01	  -1.0190751e-01	  -2.8612587e-01	  -3.5489697e-01	
   2.2770000e+01	  -9.4024798e-02	  -2.8466699e-01	  -3.4520715e-01	
   2.2825000e+01	  -8.7383634e-02	  -2.8314710e-01	  -3.3592486e-01	
   2.2880000e+01	  -8.2095601e-02	  -2.8155621e-01	  -3.2715349e-01	
   2.2935000e+01	  -7.8262594e-02	  -2.7989531e-01	  -3.1901690e-01	
   2.2990000e+01	  -7.5976377e-02	  -2.7818014e-01	  -3.1165533e-01	
   2.3045000e+01	  -7.5309864e-02	  -2.7644212e-01	  -3.0521662e-01	
   2.3100000e+01	  -7.6302078e-02	  -2.7472561e-01	  -2.9984390e-01	
   2.3155000e+01	  -7.8942147e-02	  -2.7308142e-01	  -2.9566168e-01	
   2.3210000e+01	  -8.3157270e-02	  -2.7155776e-01	  -2.9276311e-01	
   2.3265000e+01	  -8.8807723e-02	  -2.7019081e-01	  -2.9120033e-01	
   2.3320000e+01	  -9.5690514e-02	  -2.6899737e-01	  -2.9097857e-01	
   2.3375000e+01	  -1.0355165e-01	  -2.6797139e-01	  -2.9205428e-01	
   2.3430000e+01	  -1.1210544e-01	  -2.6708473e-01	  -2.9433780e-01	
   2.3485000e+01	  -1.2105850e-01	  -2.6629165e-01	  -2.9770048e-01	
   2.3540000e+01	  -1.3013557e-01	  -2.6553626e-01	  -3.0198535e-01	
   2.3595000e+01	  -1.3910352e-01	  -2.6476190e-01	  -3.0701943e-01	
   2.3650000e+01	  -1.4779023e-01	  -2.6392052e-01	  -3.1262690e-01	
   2.3705000e+01	  -1.5609675e-01	  -2.6298069e-01	  -3.1864186e-01	
   2.3760000e+01	  -1.6400264e-01	  -2.6193337e-01	  -3.2491857e-01	
   2.3815000e+01	  -1.7156262e-01	  -2.6079490e-01	  -3.3133666e-01	
   2.3870000e+01	  -1.7889184e-01	  -2.5960634e-01	  -3.3780000e-01	
   2.3925000e+01	  -1.8613954e-01	  -2.5842789e-01	  -3.4423024e-01	
   2.3980000e+01	  -1.9345777e-01	  -2.5732904e-01	  -3.5055785e-01	
   2.4035000e+01	  -2.0097392e-01	  -2.5637670e-01	  -3.5671325e-01	
   2.4090000e+01	  -2.0877279e-01	  -2.5562393e-01	  -3.6262067e-01	
   2.4145000e+01	  -2.1688880e-01	  -2.5510086e-01	  -3.6819659e-01	
   2.4200000e+01	  -2.2530700e-01	  -2.5480915e-01	  -3.7335295e-01	
   2.4255000e+01	  -2.3396955e-01	  -2.5472078e-01	  -3.7800403e-01	
   2.4310000e+01	  -2.4278469e-01	  -2.5478128e-01	  -3.8207459e-01	
   2.4365000e+01	  -2.5163716e-01	  -2.5491568e-01	  -3.8550830e-01	
   2.4420000e+01	  -2.6040028e-01	  -2.5503585e-01	  -3.8827527e-01	
   2.4475000e+01	  -2.6894862e-01	  -2.5504879e-01	  -3.9037813e-01	
   2.4530000e+01	  -2.7716948e-01	  -2.5486540e-01	  -3.9185602e-01	
   2.4585000e+01	  -2.8497202e-01	  -2.5440875e-01	  -3.9278606e-01	
   2.4640000e+01	  -2.9229320e-01	  -2.5362091e-01	  -3.9328120e-01	
   2.4695000e+01	  -2.9909860e-01	  -2.5246738e-01	  -3.9348246e-01	
   2.4750000e+01	  -3.0537704e-01	  -2.5093732e-01	  -3.9354535e-01	
   2.4805000e+01	  -3.1113043e-01	  -2.4903906e-01	  -3.9362295e-01	
   2.4860000e+01	  -3.1636211e-01	  -2.4679246e-01	  -3.9384976e-01	
   2.4915000e+01	  -3.2106653e-01	  -2.4422110e-01	  -3.9432896e-01	
   2.4970000e+01	  -3.2522186e-01	  -2.4134626e-01	  -3.9512452e-01	
   2.5025000e+01	  -3.2878799e-01	  -2.3818401e-01	  -3.9625918e-01	
   2.5080000e+01	  -3.3171171e-01	  -2.3474581e-01	  -3.9771872e-01	
   2.5135000e+01	  -3.3393834e-01	  -2.3104247e-01	  -3.9946104e-01	
   2.5190000e+01	  -3.3542638e-01	  -2.2708885e-01	  -4.0142835e-01	
   2.5245000e+01	  -3.3616171e-01	  -2.2290735e-01	  -4.0356026e-01	
   2.5300000e+01	  -3.3616867e-01	  -2.1852932e-01	  -4.0580457e-01	
   2.5355000e+01	  -3.3551497e-01	  -2.1399504e-01	  -4.0812263e-01	
   2.5410000e+01	  -3.3430743e-01	  -2.0935242e-01	  -4.1048859e-01	
   2.5465000e+01	  -3.3267776e-01	  -2.0465426e-01	  -4.1288400e-01	
   2.5520000e+01	  -3.3076195e-01	  -1.9995381e-01	  -4.1529059e-01	
   2.5575000e+01	  -3.2867948e-01	  -1.9529910e-01	  -4.1768356e-01	
   2.5630000e+01	  -3.2651743e-01	  -1.9072689e-01	  -4.2002767e-01	
   2.5685000e+01	  -3.2432114e-01	  -1.8625719e-01	  -4.2227743e-01	
   2.5740000e+01	  -3.2209184e-01	  -1.8188965e-01	  -4.2438065e-01	
   2.5795000e+01	  -3.1979129e-01	  -1.7760334e-01	  -4.2628372e-01	
   2.5850000e+01	  -3.1735343e-01	  -1.7336107e-01	  -4.2793747e-01	
   2.5905000e+01	  -3.1470139e-01	  -1.6911729e-01	  -4.2930315e-01	
   2.5960000e+01	  -3.1176669e-01	  -1.6482748e-01	  -4.3035755e-01	
   2.6015000e+01	  -3.0850718e-01	  -1.6045660e-01	  -4.3109607e-01	
   2.6070000e+01	  -3.0491947e-01	  -1.5598463e-01	  -4.3153219e-01	
   2.6125000e+01	  -3.0104277e-01	  -1.5140775e-01	  -4.3169207e-01	
   2.6180000e+01	  -2.9695403e-01	  -1.4673497e-01	  -4.3160441e-01	
   2.6235000e+01	  -2.9275704e-01	  -1.4198209e-01	  -4.3128778e-01	
   2.6290000e+01	  -2.8856906e-01	  -1.3716489e-01	  -4.3073914e-01	
   2.6345000e+01	  -2.8450688e-01	  -1.3229320e-01	  -4.2992704e-01	
   2.6400000e+01	  -2.8067411e-01	  -1.2736722e-01	  -4.2879061e-01	
   2.6455000e+01	  -2.7715184e-01	  -1.2237729e-01	  -4.2724392e-01	
   2.6510000e+01	  -2.7399452e-01	  -1.1730721e-01	  -4.2518456e-01	
   2.6565000e+01	  -2.7123214e-01	  -1.1213951e-01	  -4.2250553e-01	
   2.6620000e+01	  -2.6887811e-01	  -1.0686122e-01	  -4.1910924e-01	
   2.6675000e+01	  -2.6694104e-01	  -1.0146945e-01	  -4.1492176e-01	
   2.6730000e+01	  -2.6543671e-01	  -9.5976874e-02	  -4.0990604e-01	
   2.6785000e+01	  -2.6439658e-01	  -9.0417175e-02	  -4.0407284e-01	
   2.6840000e+01	  -2.6387148e-01	  -8.4849589e-02	  -3.9748771e-01	
   2.6895000e+01	  -2.6393028e-01	  -7.9361279e-02	  -3.9027038e-01	
   2.6950000e+01	  -2.6465255e-01	  -7.4065712e-02	  -3.8258464e-01	
   2.7005000e+01	  -2.6611442e-01	  -6.9095608e-02	  -3.7462029e-01	
   2.7060000e+01	  -2.6837028e-01	  -6.4590767e-02	  -3.6657040e-01	
   2.7115000e+01	  -2.7143526e-01	  -6.0683310e-02	  -3.5860800e-01	
   2.7170000e+01	  -2.7527271e-01	  -5.7483491e-02	  -3.5086602e-01	
   2.7225000e+01	  -2.7978750e-01	  -5.5068296e-02	  -3.4342434e-01	
   2.7280000e+01	  -2.8482450e-01	  -5.3474234e-02	  -3.3630540e-01	
   2.7335000e+01	  -2.9017160e-01	  -5.2695439e-02	  -3.2947794e-01	
   2.7390000e+01	  -2.9556746e-01	  -5.2687315e-02	  -3.2286758e-01	
   2.7445000e+01	  -3.0071478e-01	  -5.3374481e-02	  -3.1637351e-01	
   2.7500000e+01	  -3.0529849e-01	  -5.4660952e-02	  -3.0988904e-01	
   2.7555000e+01	  -3.0900632e-01	  -5.6441108e-02	  -3.0332313e-01	
   2.7610000e+01	  -3.1154902e-01	  -5.8610790e-02	  -2.9661968e-01	
   2.7665000e+01	  -3.1267936e-01	  -6.1077776e-02	  -2.8977213e-01	
   2.7720000e+01	  -3.1220832e-01	  -6.3770286e-02	  -2.8283072e-01	
   2.7775000e+01	  -3.1001479e-01	  -6.6641881e-02	  -2.7590078e-01	
   2.7830000e+01	  -3.0604521e-01	  -6.9671526e-02	  -2.6913235e-01	
   2.7885000e+01	  -3.0030339e-01	  -7.2858759e-02	  -2.6270327e-01	
   2.7940000e+01	  -2.9283548e-01	  -7.6215324e-02	  -2.5679931e-01	
   2.7995000e+01	  -2.8371570e-01	  -7.9755463e-02	  -2.5159479e-01	
   2.8050000e+01	  -2.7303523e-01	  -8.3486630e-02	  -2.4723627e-01	
   2.8105000e+01	  -2.6089414e-01	  -8.7401455e-02	  -2.4383094e-01	
   2.8160000e+01	  -2.4739755e-01	  -9.1471535e-02	  -2.4143970e-01	
   2.8215000e+01	  -2.3265815e-01	  -9.5644117e-02	  -2.4007439e-01	
   2.8270000e+01	  -2.1680517e-01	  -9.9842610e-02	  -2.3969870e-01	
   2.8325000e+01	  -1.9999659e-01	  -1.0397113e-01	  -2.4023313e-01	
   2.8380000e+01	  -1.8243061e-01	  -1.0792264e-01	  -2.4156384e-01	
   2.8435000e+01	  -1.6435142e-01	  -1.1159014e-01	  -2.4355457e-01	
   2.8490000e+01	  -1.4604691e-01	  -1.1487957e-01	  -2.4606020e-01	
   2.8545000e+01	  -1.2784057e-01	  -1.1772239e-01	  -2.4894056e-01	
   2.8600000e+01	  -1.1008167e-01	  -1.2008555e-01	  -2.5207235e-01	
   2.8655000e+01	  -9.3133978e-02	  -1.2197728e-01	  -2.5535687e-01	
   2.8710000e+01	  -7.7360262e-02	  -1.2344752e-01	  -2.5872194e-01	
   2.8765000e+01	  -6.3101574e-02	  -1.2458230e-01	  -2.6211852e-01	
   2.8820000e+01	  -5.0653837e-02	  -1.2549349e-01	  -2.6551320e-01	
   2.8875000e+01	  -4.0245863e-02	  -1.2630653e-01	  -2.6887899e-01	
   2.8930000e+01	  -3.2022275e-02	  -1.2714873e-01	  -2.7218703e-01	
   2.8985000e+01	  -2.6033878e-02	  -1.2813895e-01	  -2.7540120e-01	
   2.9040000e+01	  -2.2236441e-02	  -1.2937969e-01	  -2.7847614e-01	
   2.9095000e+01	  -2.0497065e-02	  -1.3095254e-01	  -2.8135811e-01	
   2.9150000e+01	  -2.0606786e-02	  -1.3291706e-01	  -2.8398826e-01	
   2.9205000e+01	  -2.2298391e-02	  -1.3531235e-01	  -2.8630826e-01	
   2.9260000e+01	  -2.5268053e-02	  -1.3816049e-01	  -2.8826830e-01	
   2.9315000e+01	  -2.9198563e-02	  -1.4147153e-01	  -2.8983611e-01	
   2.9370000e+01	  -3.3781484e-02	  -1.4524841e-01	  -2.9100475e-01	
   2.9425000e+01	  -3.8735672e-02	  -1.4949080e-01	  -2.9179694e-01	
   2.9480000e+01	  -4.3819739e-02	  -1.5419660e-01	  -2.9226429e-01	
   2.9535000e+01	  -4.8836256e-02	  -1.5936120e-01	  -2.9248024e-01	
   2.9590000e+01	  -5.3627028e-02	  -1.6497402e-01	  -2.9252777e-01	
   2.9645000e+01	  -5.8062430e-02	  -1.7101296e-01	  -2.9248536e-01	
   2.9700000e+01	  -6.2030462e-02	  -1.7743821e-01	  -2.9241541e-01	
   2.9755000e+01	  -6.5429852e-02	  -1.8418777e-01	  -2.9235729e-01	
   2.9810000e+01	  -6.8168042e-02	  -1.9117610e-01	  -2.9232468e-01	
   2.9865000e+01	  -7.0163051e-02	  -1.9829614e-01	  -2.9230651e-01	
   2.9920000e+01	  -7.1348306e-02	  -2.0542520e-01	  -2.9227058e-01	
   2.9975000e+01	  -7.1679242e-02	  -2.1243447e-01	  -2.9216989e-01	
   3.0030000e+01	  -7.1140048e-02	  -2.1920038e-01	  -2.9195071e-01	
   3.0085000e+01	  -6.9749415e-02	  -2.2561496e-01	  -2.9156131e-01	
   3.0140000e+01	  -6.7564323e-02	  -2.3159298e-01	  -2.9095985e-01	
   3.0195000e+01	  -6.4679846e-02	  -2.3707524e-01	  -2.9011989e-01	
   3.0250000e+01	  -6.1222111e-02	  -2.4202809e-01	  -2.8903134e-01	
   3.0305000e+01	  -5.7333187e-02	  -2.4643978e-01	  -2.8769605e-01	
   3.0360000e+01	  -5.3150602e-02	  -2.5031435e-01	  -2.8611986e-01	
   3.0415000e+01	  -4.8787751e-02	  -2.5366514e-01	  -2.8430380e-01	
   3.0470000e+01	  -4.4321392e-02	  -2.5650905e-01	  -2.8223714e-01	
   3.0525000e+01	  -3.9788537e-02	  -2.5886172e-01	  -2.7989369e-01	
   3.0580000e+01	  -3.5191055e-02	  -2.6073367e-01	  -2.7723223e-01	
   3.0635000e+01	  -3.0504967e-02	  -2.6212846e-01	  -2.7420101e-01	
   3.0690000e+01	  -2.5691700e-02	  -2.6304388e-01	  -2.7074556e-01	
   3.0745000e+01	  -2.0709710e-02	  -2.6347623e-01	  -2.6681920e-01	
   3.0800000e+01	  -1.5526069e-02	  -2.6342657e-01	  -2.6239436e-01	
   3.0855000e+01	  -1.0127509e-02	  -2.6290764e-01	  -2.5747237e-01	
   3.0910000e+01	  -4.5291100e-03	  -2.6194997e-01	  -2.5208964e-01	
   3.0965000e+01	   1.2218327e-03	  -2.6060514e-01	  -2.4631872e-01	
   3.1020000e+01	   7.0485994e-03	  -2.5894465e-01	  -2.4026302e-01	
   3.1075000e+01	   1.2855215e-02	  -2.5705404e-01	  -2.3404404e-01	
   3.1130000e+01	   1.8542978e-02	  -2.5502240e-01	  -2.2778283e-01	
   3.1185000e+01	   2.4030199e-02	  -2.5292929e-01	  -2.2158045e-01	
   3.1240000e+01	   2.9270690e-02	  -2.5083166e-01	  -2.1550204e-01	
   3.1295000e+01	   3.4267052e-02	  -2.4875395e-01	  -2.0956686e-01	
   3.1350000e+01	   3.9076644e-02	  -2.4668322e-01	  -2.0374464e-01	
   3.1405000e+01	   4.3809917e-02	  -2.4456988e-01	  -1.9795809e-01	
   3.1460000e+01	   4.8621669e-02	  -2.4233285e-01	  -1.9209132e-01	
   3.1515000e+01	   5.3696323e-02	  -2.3986827e-01	  -1.8600279e-01	
   3.1570000e+01	   5.9228798e-02	  -2.3706077e-01	  -1.7954134e-01	
   3.1625000e+01	   6.5402587e-02	  -2.3379663e-01	  -1.7256429e-01	
   3.1680000e+01	   7.2366751e-02	  -2.2997768e-01	  -1.6495672e-01	
   3.1735000e+01	   8.0214261e-02	  -2.2553499e-01	  -1.5665003e-01	
   3.1790000e+01	   8.8965040e-02	  -2.2044087e-01	  -1.4763715e-01	
   3.1845000e+01	   9.8556911e-02	  -2.1471743e-01	  -1.3798137e-01	
   3.1900000e+01	   1.0884637e-01	  -2.0843934e-01	  -1.2781649e-01	
   3.1955000e+01	   1.1962040e-01	  -2.0173007e-01	  -1.1733707e-01	
   3.2010000e+01	   1.3061969e-01	  -1.9475193e-01	  -1.0677933e-01	
   3.2065000e+01	   1.4157000e-01	  -1.8769149e-01	  -9.6396248e-02	
   3.2120000e+01	   1.5221426e-01	  -1.8074231e-01	  -8.6431561e-02	
   3.2175000e+01	   1.6233715e-01	  -1.7408758e-01	  -7.7096763e-02	
   3.2230000e+01	   1.7177877e-01	  -1.6788524e-01	  -6.8553316e-02	
   3.2285000e+01	   1.8043884e-01	  -1.6225714e-01	  -6.0901186e-02	
   3.2340000e+01	   1.8827491e-01	  -1.5728296e-01	  -5.4174616e-02	
   3.2395000e+01	   1.9529638e-01	  -1.5299914e-01	  -4.8345325e-02	
   3.2450000e+01	   2.0155516e-01	  -1.4940254e-01	  -4.3332609e-02	
   3.2505000e+01	   2.0713473e-01	  -1.4645755e-01	  -3.9019476e-02	
   3.2560000e+01	   2.1213867e-01	  -1.4410563e-01	  -3.5272987e-02	
   3.2615000e+01	   2.1667966e-01	  -1.4227660e-01	  -3.1965130e-02	
   3.2670000e+01	   2.2086919e-01	  -1.4090058e-01	  -2.8990307e-02	
   3.2725000e+01	   2.2480843e-01	  -1.3991868e-01	  -2.6277733e-02	
   3.2780000e+01	   2.2857946e-01	  -1.3929075e-01	  -2.3798744e-02	
   3.2835000e+01	   2.3223731e-01	  -1.3899952e-01	  -2.1568553e-02	
   3.2890000e+01	   2.3580596e-01	  -1.3905045e-01	  -1.9641384e-02	
   3.2945000e+01	   2.3928208e-01	  -1.3946667e-01	  -1.8099146e-02	
   3.3000000e+01	   2.4264602e-01	  -1.4027933e-01	  -1.7035728e-02	
   3.3055000e+01	   2.4587533e-01	  -1.4151500e-01	  -1.6539869e-02	
   3.3110000e+01	   2.4895630e-01	  -1.4318338e-01	  -1.6679481e-02	
   3.3165000e+01	   2.5189071e-01	  -1.4526800e-01	  -1.7489987e-02	
   3.3220000e+01	   2.5469631e-01	  -1.4772174e-01	  -1.8968524e-02	
   3.3275000e+01	   2.5740052e-01	  -1.5046734e-01	  -2.1074515e-02	
   3.3330000e+01	   2.6002935e-01	  -1.5340222e-01	  -2.3735991e-02	
   3.3385000e+01	   2.6259548e-01	  -1.5640712e-01	  -2.6860263e-02	
   3.3440000e+01	   2.6508765e-01	  -1.5935698e-01	  -3.0347007e-02	
   3.3495000e+01	   2.6746166e-01	  -1.6213312e-01	  -3.4101329e-02	
   3.3550000e+01	   2.6963257e-01	  -1.6463575e-01	  -3.8044981e-02	
   3.3605000e+01	   2.7146928e-01	  -1.6679565e-01	  -4.2125170e-02	
   3.3660000e+01	   2.7279390e-01	  -1.6858370e-01	  -4.6320700e-02	
   3.3715000e+01	   2.7338794e-01	  -1.7001669e-01	  -5.0644187e-02	
   3.3770000e+01	   2.7300634e-01	  -1.7115790e-01	  -5.5138452e-02	
   3.3825000e+01	   2.7139899e-01	  -1.7211096e-01	  -5.9866483e-02	
   3.3880000e+01	   2.6833727e-01	  -1.7300677e-01	  -6.4896794e-02	
   3.3935000e+01	   2.6364126e-01	  -1.7398589e-01	  -7.0287540e-02	
   3.3990000e+01	   2.5720327e-01	  -1.7518086e-01	  -7.6072520e-02	
   3.4045000e+01	   2.4900514e-01	  -1.7670123e-01	  -8.2251250e-02	
   3.4100000e+01	   2.3912733e-01	  -1.7862261e-01	  -8.8784332e-02	
   3.4155000e+01	   2.2774719e-01	  -1.8098006e-01	  -9.5594246e-02	
   3.4210000e+01	   2.1512665e-01	  -1.8376648e-01	  -1.0257079e-01	
   3.4265000e+01	   2.0159255e-01	  -1.8693518e-01	  -1.0958027e-01	
   3.4320000e+01	   1.8751334e-01	  -1.9040567e-01	  -1.1647754e-01	
   3.4375000e+01	   1.7327460e-01	  -1.9407201e-01	  -1.2311933e-01	
   3.4430000e+01	   1.5925445e-01	  -1.9781345e-01	  -1.2937687e-01	
   3.4485000e+01	   1.4580034e-01	  -2.0150688e-01	  -1.3514711e-01	
   3.4540000e+01	   1.3320902e-01	  -2.0503964e-01	  -1.4036218e-01	
   3.4595000e+01	   1.2171113e-01	  -2.0832089e-01	  -1.4499589e-01	
   3.4650000e+01	   1.1146275e-01	  -2.1128912e-01	  -1.4906494e-01	
   3.4705000e+01	   1.0254679e-01	  -2.1391400e-01	  -1.5262370e-01	
   3.4760000e+01	   9.4984340e-02	  -2.1619180e-01	  -1.5575354e-01	
   3.4815000e+01	   8.8751744e-02	  -2.1813630e-01	  -1.5854877e-01	
   3.4870000e+01	   8.3798215e-02	  -2.1976851e-01	  -1.6110151e-01	
   3.4925000e+01	   8.0060948e-02	  -2.2110754e-01	  -1.6348791e-01	
   3.4980000e+01	   7.7476106e-02	  -2.2216388e-01	  -1.6575865e-01	
   3.5035000e+01	   7.5984021e-02	  -2.2293528e-01	  -1.6793471e-01	
   3.5090000e+01	   7.5528575e-02	  -2.2340630e-01	  -1.7000829e-01	
   3.5145000e+01	   7.6053544e-02	  -2.2355191e-01	  -1.7194802e-01	
   3.5200000e+01	   7.7498535e-02	  -2.2334451e-01	  -1.7370771e-01	
   3.5255000e+01	   7.9794673e-02	  -2.2276269e-01	  -1.7523690e-01	
   3.5310000e+01	   8.2859480e-02	  -2.2180026e-01	  -1.7649141e-01	
   3.5365000e+01	   8.6592007e-02	  -2.2047391e-01	  -1.7744249e-01	
   3.5420000e+01	   9.0869940e-02	  -2.1882763e-01	  -1.7808339e-01	
   3.5475000e+01	   9.5549694e-02	  -2.1693179e-01	  -1.7843191e-01	
   3.5530000e+01	   1.0047073e-01	  -2.1487633e-01	  -1.7852713e-01	
   3.5585000e+01	   1.0546580e-01	  -2.1275888e-01	  -1.7842084e-01	
   3.5640000e+01	   1.1037599e-01	  -2.1067042e-01	  -1.7816662e-01	
   3.5695000e+01	   1.1506618e-01	  -2.0868162e-01	  -1.7780969e-01	
   3.5750000e+01	   1.1943641e-01	  -2.0683309e-01	  -1.7737944e-01	
   3.5805000e+01	   1.2342786e-01	  -2.0513072e-01	  -1.7688596e-01	
   3.5860000e+01	   1.2702413e-01	  -2.0354575e-01	  -1.7632107e-01	
   3.5915000e+01	   1.3024864e-01	  -2.0201904e-01	  -1.7566327e-01	
   3.5970000e+01	   1.3315819e-01	  -2.0046927e-01	  -1.7488506e-01	
   3.6025000e+01	   1.3583193e-01	  -1.9880371e-01	  -1.7396117e-01	
   3.6080000e+01	   1.3835663e-01	  -1.9692949e-01	  -1.7287694e-01	
   3.6135000e+01	   1.4081083e-01	  -1.9476374e-01	  -1.7163625e-01	
   3.6190000e+01	   1.4325153e-01	  -1.9224146e-01	  -1.7026756e-01	
   3.6245000e+01	   1.4570667e-01	  -1.8932083e-01	  -1.6882556e-01	
   3.6300000e+01	   1.4817479e-01	  -1.8598473e-01	  -1.6738644e-01	
   3.6355000e+01	   1.5063259e-01	  -1.8223802e-01	  -1.6603644e-01	
   3.6410000e+01	   1.5304780e-01	  -1.7810082e-01	  -1.6485580e-01	
   3.6465000e+01	   1.5539358e-01	  -1.7359942e-01	  -1.6390193e-01	
   3.6520000e+01	   1.5766001e-01	  -1.6875648e-01	  -1.6319610e-01	
   3.6575000e+01	   1.5985967e-01	  -1.6358276e-01	  -1.6271618e-01	
   3.6630000e+01	   1.6202658e-01	  -1.5807248e-01	  -1.6239602e-01	
   3.6685000e+01	   1.6421049e-01	  -1.5220320e-01	  -1.6213103e-01	
   3.6740000e+01	   1.6646993e-01	  -1.4593942e-01	  -1.6178892e-01	
   3.6795000e+01	   1.6886504e-01	  -1.3923897e-01	  -1.6122379e-01	
   3.6850000e+01	   1.7144933e-01	  -1.3206134e-01	  -1.6029143e-01	
   3.6905000e+01	   1.7425950e-01	  -1.2437721e-01	  -1.5886495e-01	
   3.6960000e+01	   1.7730389e-01	  -1.1617733e-01	  -1.5684986e-01	
   3.7015000e+01	   1.8055255e-01	  -1.0747903e-01	  -1.5419613e-01	
   3.7070000e+01	   1.8393385e-01	  -9.8329518e-02	  -1.5090383e-01	
   3.7125000e+01	   1.8734194e-01	  -8.8805427e-02	  -1.4702007e-01	
   3.7180000e+01	   1.9065460e-01	  -7.9008018e-02	  -1.4262799e-01	
   3.7235000e+01	   1.9375599e-01	  -6.9054021e-02	  -1.3783108e-01	
   3.7290000e+01	   1.9655701e-01	  -5.9063925e-02	  -1.3273667e-01	
   3.7345000e+01	   1.9900823e-01	  -4.9150598e-02	  -1.2744185e-01	
   3.7400000e+01	   2.0110356e-01	  -3.9410463e-02	  -1.2202380e-01	
   3.7455000e+01	   2.0287620e-01	  -2.9918237e-02	  -1.1653542e-01	
   3.7510000e+01	   2.0438906e-01	  -2.0725782e-02	  -1.1100623e-01	
   3.7565000e+01	   2.0572052e-01	  -1.1864979e-02	  -1.0544760e-01	
   3.7620000e+01	   2.0694706e-01	  -3.3534816e-03	  -9.9861436e-02	
   3.7675000e+01	   2.0812538e-01	   4.7983548e-03	  -9.4250731e-02	
   3.7730000e+01	   2.0927790e-01	   1.2580414e-02	  -8.8629712e-02	
   3.7785000e+01	   2.1038530e-01	   1.9976234e-02	  -8.3031763e-02	
   3.7840000e+01	   2.1138757e-01	   2.6958018e-02	  -7.7514423e-02	
   3.7895000e+01	   2.1219226e-01	   3.3484798e-02	  -7.2160600e-02	
   3.7950000e+01	   2.1268763e-01	   3.9504926e-02	  -6.7074560e-02	
   3.8005000e+01	   2.1275860e-01	   4.4963025e-02	  -6.2372201e-02	
   3.8060000e+01	   2.1230315e-01	   4.9810056e-02	  -5.8167573e-02	
   3.8115000e+01	   2.1124615e-01	   5.4013597e-02	  -5.4558685e-02	
   3.8170000e+01	   2.0954773e-01	   5.7565203e-02	  -5.1615037e-02	
   3.8225000e+01	   2.0720524e-01	   6.0483287e-02	  -4.9368636e-02	
   3.8280000e+01	   2.0424885e-01	   6.2811979e-02	  -4.7810075e-02	
   3.8335000e+01	   2.0073167e-01	   6.4616955e-02	  -4.6890296e-02	
   3.8390000e+01	   1.9671611e-01	   6.5978922e-02	  -4.6527151e-02	
   3.8445000e+01	   1.9225984e-01	   6.6985531e-02	  -4.6615441e-02	
   3.8500000e+01	   1.8740457e-01	   6.7722922e-02	  -4.7039743e-02	
   3.8555000e+01	   1.8216949e-01	   6.8267877e-02	  -4.7689175e-02	
   3.8610000e+01	   1.7654952e-01	   6.8681130e-02	  -4.8472013e-02	
   3.8665000e+01	   1.7051874e-01	   6.9002504e-02	  -4.9326938e-02	
   3.8720000e+01	   1.6403936e-01	   6.9249174e-02	  -5.0227510e-02	
   3.8775000e+01	   1.5707608e-01	   6.9418410e-02	  -5.1177777e-02	
   3.8830000e+01	   1.4961279e-01	   6.9494665e-02	  -5.2200025e-02	
   3.8885000e+01	   1.4166675e-01	   6.9458903e-02	  -5.3318695e-02	
   3.8940000e+01	   1.3329600e-01	   6.9297594e-02	  -5.4545453e-02	
   3.8995000e+01	   1.2459834e-01	   6.9009767e-02	  -5.5869227e-02	
   3.9050000e+01	   1.1570290e-01	   6.8611125e-02	  -5.7253071e-02	
   3.9105000e+01	   1.0675693e-01	   6.8134466e-02	  -5.8637543e-02	
   3.9160000e+01	   9.7911156e-02	   6.7626749e-02	  -5.9948949e-02	
   3.9215000e+01	   8.9305269e-02	   6.7144466e-02	  -6.1110243e-02	
   3.9270000e+01	   8.1054712e-02	   6.6748703e-02	  -6.2052166e-02	
   3.9325000e+01	   7.3240096e-02	   6.6499974e-02	  -6.2722415e-02	
   3.9380000e+01	   6.5902339e-02	   6.6452949e-02	  -6.3091325e-02	
   3.9435000e+01	   5.9046425e-02	   6.6652148e-02	  -6.3152986e-02	
   3.9490000e+01	   5.2653842e-02	   6.7129945e-02	  -6.2921071e-02	
   3.9545000e+01	   4.6699466e-02	   6.7907649e-02	  -6.2420169e-02	
   3.9600000e+01	   4.1166610e-02	   6.8999678e-02	  -6.1675555e-02	
   3.9655000e+01	   3.6055239e-02	   7.0419575e-02	  -6.0704717e-02	
   3.9710000e+01	   3.1381612e-02	   7.2185558e-02	  -5.9512073e-02	
   3.9765000e+01	   2.7170650e-02	   7.4323322e-02	  -5.8086628e-02	
   3.9820000e+01	   2.3444073e-02	   7.6864999e-02	  -5.6402363e-02	
   3.9875000e+01	   2.0207465e-02	   7.9844686e-02	  -5.4422072e-02	
   3.9930000e+01	   1.7438761e-02	   8.3291966e-02	  -5.2104608e-02	
   3.9985000e+01	   1.5080355e-02	   8.7224938e-02	  -4.9413798e-02	
   4.0040000e+01	   1.3036272e-02	   9.1643715e-02	  -4.6326912e-02	
   4.0095000e+01	   1.1174699e-02	   9.6525014e-02	  -4.2841359e-02	
   4.0150000e+01	   9.3358199e-03	   1.0181858e-01	  -3.8978273e-02	
   4.0205000e+01	   7.3456040e-03	   1.0744643e-01	  -3.4781504e-02	
   4.0260000e+01	   5.0359663e-03	   1.1330588e-01	  -3.0311537e-02	
   4.0315000e+01	   2.2687463e-03	   1.1927687e-01	  -2.5635418e-02	
   4.0370000e+01	  -1.0424545e-03	   1.2523234e-01	  -2.0814747e-02	
   4.0425000e+01	  -4.9179460e-03	   1.3104939e-01	  -1.5894303e-02	
   4.0480000e+01	  -9.3068868e-03	   1.3661922e-01	  -1.0894036e-02	
   4.0535000e+01	  -1.4091544e-02	   1.4185502e-01	  -5.8060506e-03	
   4.0590000e+01	  -1.9100546e-02	   1.4669708e-01	  -5.9670640e-04	
   4.0645000e+01	  -2.4128801e-02	   1.5111391e-01	   4.7866642e-03	
   4.0700000e+01	  -2.8960364e-02	   1.5509921e-01	   1.0404982e-02	
   4.0755000e+01	  -3.3391302e-02	   1.5866593e-01	   1.6313939e-02	
   4.0810000e+01	  -3.7249755e-02	   1.6183839e-01	   2.2549966e-02	
   4.0865000e+01	  -4.0409469e-02	   1.6464337e-01	   2.9117592e-02	
   4.0920000e+01	  -4.2794159e-02	   1.6710182e-01	   3.5979631e-02	
   4.0975000e+01	  -4.4372899e-02	   1.6922304e-01	   4.3052033e-02	
   4.1030000e+01	  -4.5148800e-02	   1.7100235e-01	   5.0205622e-02	
   4.1085000e+01	  -4.5143199e-02	   1.7242277e-01	   5.7275690e-02	
   4.1140000e+01	  -4.4377140e-02	   1.7346138e-01	   6.4077847e-02	
   4.1195000e+01	  -4.2853464e-02	   1.7409920e-01	   7.0426783e-02	
   4.1250000e+01	  -4.0544781e-02	   1.7433147e-01	   7.6154691e-02	
   4.1305000e+01	  -3.7391340e-02	   1.7417468e-01	   8.1126885e-02	
   4.1360000e+01	  -3.3308872e-02	   1.7366904e-01	   8.5252676e-02	
   4.1415000e+01	  -2.8203570e-02	   1.7287684e-01	   8.8490151e-02	
   4.1470000e+01	  -2.1990688e-02	   1.7187731e-01	   9.0844197e-02	
   4.1525000e+01	  -1.4613352e-02	   1.7075849e-01	   9.2358125e-02	
   4.1580000e+01	  -6.0579854e-03	   1.6960711e-01	   9.3100301e-02	
   4.1635000e+01	   3.6366558e-03	   1.6849841e-01	   9.3148113e-02	
   4.1690000e+01	   1.4378074e-02	   1.6748698e-01	   9.2572369e-02	
   4.1745000e+01	   2.6026292e-02	   1.6659884e-01	   9.1425025e-02	
   4.1800000e+01	   3.8407558e-02	   1.6582566e-01	   8.9731572e-02	
   4.1855000e+01	   5.1334759e-02	   1.6512209e-01	   8.7488190e-02	
   4.1910000e+01	   6.4632362e-02	   1.6440727e-01	   8.4664252e-02	
   4.1965000e+01	   7.8161642e-02	   1.6357069e-01	   8.1210792e-02	
   4.2020000e+01	   9.1840408e-02	   1.6248262e-01	   7.7073581e-02	
   4.2075000e+01	   1.0565161e-01	   1.6100820e-01	   7.2207550e-02	
   4.2130000e+01	   1.1963787e-01	   1.5902266e-01	   6.6589482e-02	
   4.2185000e+01	   1.3388346e-01	   1.5642494e-01	   6.0227292e-02	
   4.2240000e+01	   1.4848900e-01	   1.5314795e-01	   5.3164864e-02	
   4.2295000e+01	   1.6354431e-01	   1.4916468e-01	   4.5481685e-02	
   4.2350000e+01	   1.7910321e-01	   1.4448885e-01	   3.7287481e-02	
   4.2405000e+01	   1.9516241e-01	   1.3916973e-01	   2.8712836e-02	
   4.2460000e+01	   2.1164746e-01	   1.3328240e-01	   1.9897077e-02	
   4.2515000e+01	   2.2840830e-01	   1.2691583e-01	   1.0975072e-02	
   4.2570000e+01	   2.4522525e-01	   1.2016103e-01	   2.0649451e-03	
   4.2625000e+01	   2.6182424e-01	   1.1310055e-01	  -6.7416180e-03	
   4.2680000e+01	   2.7789914e-01	   1.0580089e-01	  -1.5385148e-02	
   4.2735000e+01	   2.9313893e-01	   9.8309074e-02	  -2.3838834e-02	
   4.2790000e+01	   3.0725790e-01	   9.0653954e-02	  -3.2102727e-02	
   4.2845000e+01	   3.2002638e-01	   8.2851323e-02	  -4.0192575e-02	
   4.2900000e+01	   3.3129775e-01	   7.4910862e-02	  -4.8126290e-02	
   4.2955000e+01	   3.4102545e-01	   6.6843081e-02	  -5.5911990e-02	
   4.3010000e+01	   3.4926542e-01	   5.8665154e-02	  -6.3540622e-02	
   4.3065000e+01	   3.5616326e-01	   5.0405066e-02	  -7.0984303e-02	
   4.3120000e+01	   3.6193052e-01	   4.2103753e-02	  -7.8199900e-02	
   4.3175000e+01	   3.6681548e-01	   3.3815060e-02	  -8.5136532e-02	
   4.3230000e+01	   3.7107279e-01	   2.5603151e-02	  -9.1745075e-02	
   4.3285000e+01	   3.7493633e-01	   1.7537496e-02	  -9.7987494e-02	
   4.3340000e+01	   3.7859910e-01	   9.6866270e-03	  -1.0384432e-01	
   4.3395000e+01	   3.8220235e-01	   2.1124655e-03	  -1.0931953e-01	
   4.3450000e+01	   3.8583293e-01	  -5.1335214e-03	  -1.1444206e-01	
   4.3505000e+01	   3.8952824e-01	  -1.2011782e-02	  -1.1926310e-01	
   4.3560000e+01	   3.9328790e-01	  -1.8493359e-02	  -1.2384914e-01	
   4.3615000e+01	   3.9709057e-01	  -2.4555869e-02	  -1.2827195e-01	
   4.3670000e+01	   4.0091309e-01	  -3.0178202e-02	  -1.3259753e-01	
   4.3725000e+01	   4.0474748e-01	  -3.5335899e-02	  -1.3687564e-01	
   4.3780000e+01	   4.0861189e-01	  -3.9998124e-02	  -1.4113143e-01	
   4.3835000e+01	   4.1255254e-01	  -4.4126050e-02	  -1.4536064e-01	
   4.3890000e+01	   4.1663651e-01	  -4.7672898e-02	  -1.4952938e-01	
   4.3945000e+01	   4.2093752e-01	  -5.0586450e-02	  -1.5357885e-01	
   4.4000000e+01	   4.2551849e-01	  -5.2814581e-02	  -1.5743474e-01	
   4.4055000e+01	   4.3041453e-01	  -5.4313482e-02	  -1.6102025e-01	
   4.4110000e+01	   4.3561875e-01	  -5.5057356e-02	  -1.6427049e-01	
   4.4165000e+01	   4.4107250e-01	  -5.5047753e-02	  -1.6714492e-01	
   4.4220000e+01	   4.4666183e-01	  -5.4320815e-02	  -1.6963561e-01	
   4.4275000e+01	   4.5222234e-01	  -5.2950867e-02	  -1.7177003e-01	
   4.4330000e+01	   4.5755290e-01	  -5.1048824e-02	  -1.7360843e-01	
   4.4385000e+01	   4.6243528e-01	  -4.8754447e-02	  -1.7523573e-01	
   4.4440000e+01	   4.6665564e-01	  -4.6223208e-02	  -1.7674940e-01	
   4.4495000e+01	   4.7002407e-01	  -4.3610316e-02	  -1.7824603e-01	
   4.4550000e+01	   4.7238931e-01	  -4.1055089e-02	  -1.7980903e-01	
   4.4605000e+01	   4.7364771e-01	  -3.8668383e-02	  -1.8149944e-01	
   4.4660000e+01	   4.7374672e-01	  -3.6524721e-02	  -1.8335083e-01	
   4.4715000e+01	   4.7268319e-01	  -3.4659535e-02	  -1.8536918e-01	
   4.4770000e+01	   4.7049602e-01	  -3.3071305e-02	  -1.8753770e-01	
   4.4825000e+01	   4.6725423e-01	  -3.1728502e-02	  -1.8982526e-01	
   4.4880000e+01	   4.6304314e-01	  -3.0580559e-02	  -1.9219629e-01	
   4.4935000e+01	   4.5795236e-01	  -2.9570720e-02	  -1.9462080e-01	
   4.4990000e+01	   4.5206671e-01	  -2.8648285e-02	  -1.9708308e-01	
   4.5045000e+01	   4.4546156e-01	  -2.7778561e-02	  -1.9958743e-01	
   4.5100000e+01	   4.3820454e-01	  -2.6949240e-02	  -2.0215927e-01	
   4.5155000e+01	   4.3036530e-01	  -2.6171567e-02	  -2.0484061e-01	
   4.5210000e+01	   4.2203063e-01	  -2.5475505e-02	  -2.0768024e-01	
   4.5265000e+01	   4.1331880e-01	  -2.4900376e-02	  -2.1072026e-01	
   4.5320000e+01	   4.0438882e-01	  -2.4484139e-02	  -2.1398222e-01	
   4.5375000e+01	   3.9544280e-01	  -2.4254020e-02	  -2.1745682e-01	
   4.5430000e+01	   3.8672140e-01	  -2.4219750e-02	  -2.2109952e-01	
   4.5485000e+01	   3.7849163e-01	  -2.4370024e-02	  -2.2483222e-01	
   4.5540000e+01	   3.7102740e-01	  -2.4672878e-02	  -2.2854967e-01	
   4.5595000e+01	   3.6458526e-01	  -2.5080271e-02	  -2.3212906e-01	
   4.5650000e+01	   3.5937871e-01	  -2.5535936e-02	  -2.3544196e-01	
   4.5705000e+01	   3.5555433e-01	  -2.5984663e-02	  -2.3836682e-01	
   4.5760000e+01	   3.5317397e-01	  -2.6381395e-02	  -2.4080075e-01	
   4.5815000e+01	   3.5220713e-01	  -2.6699170e-02	  -2.4267025e-01	
   4.5870000e+01	   3.5253554e-01	  -2.6935109e-02	  -2.4394044e-01	
   4.5925000e+01	   3.5396879e-01	  -2.7113536e-02	  -2.4462008e-01	
   4.5980000e+01	   3.5626821e-01	  -2.7285314e-02	  -2.4475942e-01	
   4.6035000e+01	   3.5917618e-01	  -2.7522497e-02	  -2.4444055e-01	
   4.6090000e+01	   3.6244618e-01	  -2.7908426e-02	  -2.4376362e-01	
   4.6145000e+01	   3.6586782e-01	  -2.8525410e-02	  -2.4283280e-01	
   4.6200000e+01	   3.6928316e-01	  -2.9443402e-02	  -2.4174490e-01	
   4.6255000e+01	   3.7259407e-01	  -3.0712057e-02	  -2.4058213e-01	
   4.6310000e+01	   3.7576105e-01	  -3.2356757e-02	  -2.3940917e-01	
   4.6365000e+01	   3.7879308e-01	  -3.4378619e-02	  -2.3827332e-01	
   4.6420000e+01	   3.8172993e-01	  -3.6758398e-02	  -2.3720696e-01	
   4.6475000e+01	   3.8462189e-01	  -3.9463239e-02	  -2.3623264e-01	
   4.6530000e+01	   3.8751251e-01	  -4.2454485e-02	  -2.3537137e-01	
   4.6585000e+01	   3.9042610e-01	  -4.5695204e-02	  -2.3465302e-01	
   4.6640000e+01	   3.9336030e-01	  -4.9156804e-02	  -2.3412598e-01	
   4.6695000e+01	   3.9628344e-01	  -5.2823910e-02	  -2.3386245e-01	
   4.6750000e+01	   3.9913696e-01	  -5.6696363e-02	  -2.3395727e-01	
   4.6805000e+01	   4.0184288e-01	  -6.0787388e-02	  -2.3451976e-01	
   4.6860000e+01	   4.0431670e-01	  -6.5117649e-02	  -2.3565969e-01	
   4.6915000e+01	   4.0648473e-01	  -6.9706023e-02	  -2.3747056e-01	
   4.6970000e+01	   4.0830121e-01	  -7.4559235e-02	  -2.4001446e-01	
   4.7025000e+01	   4.0976067e-01	  -7.9663181e-02	  -2.4331125e-01	
   4.7080000e+01	   4.1090296e-01	  -8.4978051e-02	  -2.4733291e-01	
   4.7135000e+01	   4.1181222e-01	  -9.0438041e-02	  -2.5200340e-01	
   4.7190000e+01	   4.1261058e-01	  -9.5955349e-02	  -2.5720459e-01	
   4.7245000e+01	   4.1344676e-01	  -1.0142784e-01	  -2.6278782e-01	
   4.7300000e+01	   4.1448097e-01	  -1.0674930e-01	  -2.6858886e-01	
   4.7355000e+01	   4.1586918e-01	  -1.1182030e-01	  -2.7444447e-01	
   4.7410000e+01	   4.1774962e-01	  -1.1655776e-01	  -2.8020889e-01	
   4.7465000e+01	   4.2023200e-01	  -1.2090207e-01	  -2.8576810e-01	
   4.7520000e+01	   4.2338991e-01	  -1.2482182e-01	  -2.9104877e-01	
   4.7575000e+01	   4.2725849e-01	  -1.2831541e-01	  -2.9602010e-01	
   4.7630000e+01	   4.3183864e-01	  -1.3140849e-01	  -3.0068807e-01	
   4.7685000e+01	   4.3710656e-01	  -1.3414661e-01	  -3.0508344e-01	
   4.7740000e+01	   4.4302452e-01	  -1.3658456e-01	  -3.0924636e-01	
   4.7795000e+01	   4.4954898e-01	  -1.3877487e-01	  -3.1321239e-01	
   4.7850000e+01	   4.5663370e-01	  -1.4075788e-01	  -3.1700309e-01	
   4.7905000e+01	   4.6422758e-01	  -1.4255520e-01	  -3.2062180e-01	
   4.7960000e+01	   4.7226934e-01	  -1.4416729e-01	  -3.2405349e-01	
   4.8015000e+01	   4.8068174e-01	  -1.4557440e-01	  -3.2726676e-01	
   4.8070000e+01	   4.8936709e-01	  -1.4673995e-01	  -3.3021709e-01	
   4.8125000e+01	   4.9820409e-01	  -1.4761561e-01	  -3.3285125e-01	
   4.8180000e+01	   5.0704710e-01	  -1.4814783e-01	  -3.3511320e-01	
   4.8235000e+01	   5.1573054e-01	  -1.4828542e-01	  -3.3695088e-01	
   4.8290000e+01	   5.2407914e-01	  -1.4798651e-01	  -3.3832220e-01	
   4.8345000e+01	   5.3192301e-01	  -1.4722319e-01	  -3.3919834e-01	
   4.8400000e+01	   5.3911546e-01	  -1.4598238e-01	  -3.3956187e-01	
   4.8455000e+01	   5.4555136e-01	  -1.4426296e-01	  -3.3939930e-01	
   4.8510000e+01	   5.5118249e-01	  -1.4207000e-01	  -3.3868988e-01	
   4.8565000e+01	   5.5602572e-01	  -1.3940775e-01	  -3.3739438e-01	
   4.8620000e+01	   5.6016176e-01	  -1.3627344e-01	  -3.3544665e-01	
   4.8675000e+01	   5.6372624e-01	  -1.3265306e-01	  -3.3275055e-01	
   4.8730000e+01	   5.6689598e-01	  -1.2851947e-01	  -3.2918377e-01	
   4.8785000e+01	   5.6987247e-01	  -1.2383317e-01	  -3.2460847e-01	
   4.8840000e+01	   5.7286338e-01	  -1.1854646e-01	  -3.1888685e-01	
   4.8895000e+01	   5.7606390e-01	  -1.1261085e-01	  -3.1189913e-01	
   4.8950000e+01	   5.7964028e-01	  -1.0598692e-01	  -3.0356183e-01	
   4.9005000e+01	   5.8371713e-01	  -9.8654189e-02	  -2.9384386e-01	
   4.9060000e+01	   5.8836922e-01	  -9.0619698e-02	  -2.8277751e-01	
   4.9115000e+01	   5.9361924e-01	  -8.1923529e-02	  -2.7046162e-01	
   4.9170000e+01	   5.9944289e-01	  -7.2639261e-02	  -2.5705611e-01	
   4.9225000e+01	   6.0578187e-01	  -6.2867685e-02	  -2.4276880e-01	
   4.9280000e+01	   6.1256322e-01	  -5.2724259e-02	  -2.2783653e-01	
   4.9335000e+01	   6.1971987e-01	  -4.2323247e-02	  -2.1250411e-01	
   4.9390000e+01	   6.2720659e-01	  -3.1762261e-02	  -1.9700454e-01	
   4.9445000e+01	   6.3500697e-01	  -2.1110217e-02	  -1.8154329e-01	
   4.9500000e+01	   6.4313103e-01	  -1.0400468e-02	  -1.6628790e-01	
   4.9555000e+01	   6.5160579e-01	   3.7031012e-04	  -1.5136302e-01	
   4.9610000e+01	   6.6046196e-01	   1.1237785e-02	  -1.3685104e-01	
   4.9665000e+01	   6.6971962e-01	   2.2260698e-02	  -1.2279774e-01	
   4.9720000e+01	   6.7937433e-01	   3.3507586e-02	  -1.0922192e-01	
   4.9775000e+01	   6.8938592e-01	   4.5041532e-02	  -9.6126986e-02	
   4.9830000e+01	   6.9967177e-01	   5.6905913e-02	  -8.3512399e-02	
   4.9885000e+01	   7.1010605e-01	   6.9113554e-02	  -7.1383302e-02	
   4.9940000e+01	   7.2052560e-01	   8.1640367e-02	  -5.9756471e-02	
   4.9995000e+01	   7.3074403e-01	   9.4424155e-02	  -4.8660918e-02	
   5.0050000e+01	   7.4057383e-01	   1.0736951e-01	  -3.8132754e-02	
   5.0105000e+01	   7.4985104e-01	   1.2035859e-01	  -2.8205397e-02	
   5.0160000e+01	   7.5845398e-01	   1.3326488e-01	  -1.8897512e-02	
   5.0215000e+01	   7.6631028e-01	   1.4596608e-01	  -1.0202265e-02	
   5.0270000e+01	   7.7339168e-01	   1.5835384e-01	  -2.0811112e-03	
   5.0325000e+01	   7.7969986e-01	   1.7034005e-01	   5.5368095e-03	
   5.0380000e+01	   7.8524748e-01	   1.8185980e-01	   1.2750818e-02	
   5.0435000e+01	   7.9003831e-01	   1.9287132e-01	   1.9681850e-02	
   5.0490000e+01	   7.9405031e-01	   2.0335325e-01	   2.6463174e-02	
   5.0545000e+01	   7.9722529e-01	   2.1330000e-01	   3.3228624e-02	
   5.0600000e+01	   7.9946716e-01	   2.2271516e-01	   4.0098921e-02	
   5.0655000e+01	   8.0064925e-01	   2.3160357e-01	   4.7167951e-02	
   5.0710000e+01	   8.0063043e-01	   2.3996414e-01	   5.4491927e-02	
   5.0765000e+01	   7.9927865e-01	   2.4778562e-01	   6.2084476e-02	
   5.0820000e+01	   7.9649769e-01	   2.5504704e-01	   6.9919282e-02	
   5.0875000e+01	   7.9225184e-01	   2.6172262e-01	   7.7939400e-02	
   5.0930000e+01	   7.8658338e-01	   2.6778991e-01	   8.6069964e-02	
   5.0985000e+01	   7.7961943e-01	   2.7323892e-01	   9.4230924e-02	
   5.1040000e+01	   7.7156678e-01	   2.7807963e-01	   1.0234807e-01	
   5.1095000e+01	   7.6269589e-01	   2.8234581e-01	   1.1036145e-01	
   5.1150000e+01	   7.5331687e-01	   2.8609432e-01	   1.1822984e-01	
   5.1205000e+01	   7.4375051e-01	   2.8940089e-01	   1.2593041e-01	
   5.1260000e+01	   7.3429831e-01	   2.9235327e-01	   1.3345436e-01	
   5.1315000e+01	   7.2521644e-01	   2.9504268e-01	   1.4080090e-01	
   5.1370000e+01	   7.1669829e-01	   2.9755501e-01	   1.4797086e-01	
   5.1425000e+01	   7.0886864e-01	   2.9996273e-01	   1.5496051e-01	
   5.1480000e+01	   7.0178906e-01	   3.0231832e-01	   1.6175604e-01	
   5.1535000e+01	   6.9547169e-01	   3.0464997e-01	   1.6833119e-01	
   5.1590000e+01	   6.8989864e-01	   3.0696069e-01	   1.7465048e-01	
   5.1645000e+01	   6.8504350e-01	   3.0923216e-01	   1.8067791e-01	
   5.1700000e+01	   6.8089075e-01	   3.1143175e-01	   1.8638867e-01	
   5.1755000e+01	   6.7744872e-01	   3.1352017e-01	   1.9177981e-01	
   5.1810000e+01	   6.7475264e-01	   3.1545785e-01	   1.9687728e-01	
   5.1865000e+01	   6.7285765e-01	   3.1721034e-01	   2.0173728e-01	
   5.1920000e+01	   6.7182499e-01	   3.1875231e-01	   2.0644134e-01	
   5.1975000e+01	   6.7170659e-01	   3.2006949e-01	   2.1108632e-01	
   5.2030000e+01	   6.7253218e-01	   3.2115809e-01	   2.1577164e-01	
   5.2085000e+01	   6.7429971e-01	   3.2202259e-01	   2.2058657e-01	
   5.2140000e+01	   6.7696895e-01	   3.2267218e-01	   2.2559937e-01	
   5.2195000e+01	   6.8045791e-01	   3.2311595e-01	   2.3084951e-01	
   5.2250000e+01	   6.8464354e-01	   3.2335789e-01	   2.3634358e-01	
   5.2305000e+01	   6.8936806e-01	   3.2339366e-01	   2.4205577e-01	
   5.2360000e+01	   6.9445146e-01	   3.2321099e-01	   2.4793370e-01	
   5.2415000e+01	   6.9970902e-01	   3.2279382e-01	   2.5390929e-01	
   5.2470000e+01	   7.0496967e-01	   3.2212959e-01	   2.5991249e-01	
   5.2525000e+01	   7.1008975e-01	   3.2121786e-01	   2.6588454e-01	
   5.2580000e+01	   7.1495935e-01	   3.2007782e-01	   2.7178789e-01	
   5.2635000e+01	   7.1950080e-01	   3.1875217e-01	   2.7761161e-01	
   5.2690000e+01	   7.2366033e-01	   3.1730691e-01	   2.8337125e-01	
   5.2745000e+01	   7.2739340e-01	   3.1582759e-01	   2.8910291e-01	
   5.2800000e+01	   7.3064629e-01	   3.1441233e-01	   2.9485229e-01	
   5.2855000e+01	   7.3333857e-01	   3.1316195e-01	   3.0066150e-01	
   5.2910000e+01	   7.3535266e-01	   3.1216870e-01	   3.0655545e-01	
   5.2965000e+01	   7.3653332e-01	   3.1150619e-01	   3.1252956e-01	
   5.3020000e+01	   7.3669616e-01	   3.1122191e-01	   3.1854055e-01	
   5.3075000e+01	   7.3564262e-01	   3.1133236e-01	   3.2450253e-01	
   5.3130000e+01	   7.3317994e-01	   3.1182101e-01	   3.3029036e-01	
   5.3185000e+01	   7.2914565e-01	   3.1264002e-01	   3.3575033e-01	
   5.3240000e+01	   7.2343367e-01	   3.1371673e-01	   3.4071677e-01	
   5.3295000e+01	   7.1601646e-01	   3.1496465e-01	   3.4503189e-01	
   5.3350000e+01	   7.0695692e-01	   3.1629630e-01	   3.4856504e-01	
   5.3405000e+01	   6.9640585e-01	   3.1763471e-01	   3.5122786e-01	
   5.3460000e+01	   6.8458528e-01	   3.1892047e-01	   3.5298298e-01	
   5.3515000e+01	   6.7176214e-01	   3.2011369e-01	   3.5384569e-01	
   5.3570000e+01	   6.5822000e-01	   3.2119162e-01	   3.5387954e-01	
   5.3625000e+01	   6.4423522e-01	   3.2214423e-01	   3.5318680e-01	
   5.3680000e+01	   6.3005985e-01	   3.2296954e-01	   3.5189470e-01	
   5.3735000e+01	   6.1590973e-01	   3.2366913e-01	   3.5013930e-01	
   5.3790000e+01	   6.0195568e-01	   3.2424334e-01	   3.4804862e-01	
   5.3845000e+01	   5.8831736e-01	   3.2468612e-01	   3.4572674e-01	
   5.3900000e+01	   5.7506106e-01	   3.2498016e-01	   3.4324072e-01	
   5.3955000e+01	   5.6220286e-01	   3.2509251e-01	   3.4061292e-01	
   5.4010000e+01	   5.4971837e-01	   3.2497140e-01	   3.3782093e-01	
   5.4065000e+01	   5.3755905e-01	   3.2454610e-01	   3.3480590e-01	
   5.4120000e+01	   5.2567285e-01	   3.2373189e-01	   3.3148779e-01	
   5.4175000e+01	   5.1402493e-01	   3.2243989e-01	   3.2778469e-01	
   5.4230000e+01	   5.0261258e-01	   3.2058951e-01	   3.2363225e-01	
   5.4285000e+01	   4.9146962e-01	   3.1812085e-01	   3.1899895e-01	
   5.4340000e+01	   4.8065885e-01	   3.1500463e-01	   3.1389447e-01	
   5.4395000e+01	   4.7025512e-01	   3.1124781e-01	   3.0837152e-01	
   5.4450000e+01	   4.6032363e-01	   3.0689399e-01	   3.0252244e-01	
   5.4505000e+01	   4.5089842e-01	   3.0201885e-01	   2.9647191e-01	
   5.4560000e+01	   4.4196510e-01	   2.9672212e-01	   2.9036632e-01	
   5.4615000e+01	   4.3345068e-01	   2.9111733e-01	   2.8436093e-01	
   5.4670000e+01	   4.2522240e-01	   2.8531999e-01	   2.7860573e-01	
   5.4725000e+01	   4.1709568e-01	   2.7943532e-01	   2.7323117e-01	
   5.4780000e+01	   4.0884875e-01	   2.7354677e-01	   2.6833447e-01	
   5.4835000e+01	   4.0024135e-01	   2.6770663e-01	   2.6396860e-01	
   5.4890000e+01	   3.9103619e-01	   2.6193015e-01	   2.6013611e-01	
   5.4945000e+01	   3.8102313e-01	   2.5619472e-01	   2.5678942e-01	
   5.5000000e+01	   3.7004478e-01	   2.5044497e-01	   2.5383802e-01	
   5.5055000e+01	   3.5801964e-01	   2.4460320e-01	   2.5116195e-01	
   5.5110000e+01	   3.4495808e-01	   2.3858226e-01	   2.4862933e-01	
   5.5165000e+01	   3.3096633e-01	   2.3229840e-01	   2.4611394e-01	
   5.5220000e+01	   3.1623633e-01	   2.2568233e-01	   2.4350960e-01	
   5.5275000e+01	   3.0102328e-01	   2.1868760e-01	   2.4073986e-01	
   5.5330000e+01	   2.8561732e-01	   2.1129525e-01	   2.3776282e-01	
   5.5385000e+01	   2.7031473e-01	   2.0351487e-01	   2.3457080e-01	
   5.5440000e+01	   2.5539120e-01	   1.9538304e-01	   2.3118528e-01	
   5.5495000e+01	   2.4107858e-01	   1.8695911e-01	   2.2764764e-01	
   5.5550000e+01	   2.2754641e-01	   1.7831804e-01	   2.2400694e-01	
   5.5605000e+01	   2.1488962e-01	   1.6954084e-01	   2.2030625e-01	
   5.5660000e+01	   2.0312290e-01	   1.6070411e-01	   2.1656902e-01	
   5.5715000e+01	   1.9218248e-01	   1.5187050e-01	   2.1278869e-01	
   5.5770000e+01	   1.8193660e-01	   1.4308107e-01	   2.0892422e-01	
   5.5825000e+01	   1.7220507e-01	   1.3435090e-01	   2.0490344e-01	
   5.5880000e+01	   1.6278650e-01	   1.2566986e-01	   2.0063409e-01	
   5.5935000e+01	   1.5349042e-01	   1.1700880e-01	   1.9602019e-01	
   5.5990000e+01	   1.4416895e-01	   1.0832990e-01	   1.9097950e-01	
   5.6045000e+01	   1.3474116e-01	   9.9598132e-02	   1.8545840e-01	
   5.6100000e+01	   1.2520531e-01	   9.0791339e-02	   1.7944237e-01	
   5.6155000e+01	   1.1563705e-01	   8.1907186e-02	   1.7296145e-01	
   5.6210000e+01	   1.0617475e-01	   7.2966776e-02	   1.6609111e-01	
   5.6265000e+01	   9.6995494e-02	   6.4015406e-02	   1.5894878e-01	
   5.6320000e+01	   8.8286909e-02	   5.5120774e-02	   1.5168612e-01	
   5.6375000e+01	   8.0219027e-02	   4.6368557e-02	   1.4447734e-01	
   5.6430000e+01	   7.2919185e-02	   3.7855316e-02	   1.3750438e-01	
   5.6485000e+01	   6.6452892e-02	   2.9679408e-02	   1.3094012e-01	
   5.6540000e+01	   6.0813506e-02	   2.1931236e-02	   1.2493138e-01	
   5.6595000e+01	   5.5922316e-02	   1.4684172e-02	   1.1958450e-01	
   5.6650000e+01	   5.1639469e-02	   7.9874190e-03	   1.1495723e-01	
   5.6705000e+01	   4.7784988e-02	   1.8624027e-03	   1.1105926e-01	
   5.6760000e+01	   4.4166372e-02	  -3.6957077e-03	   1.0786191e-01	
   5.6815000e+01	   4.0606034e-02	  -8.7114197e-03	   1.0531373e-01	
   5.6870000e+01	   3.6961530e-02	  -1.3219720e-02	   1.0335775e-01	
   5.6925000e+01	   3.3134431e-02	  -1.7257152e-02	   1.0194625e-01	
   5.6980000e+01	   2.9067715e-02	  -2.0854703e-02	   1.0105088e-01	
   5.7035000e+01	   2.4734636e-02	  -2.4033125e-02	   1.0066770e-01	
   5.7090000e+01	   2.0123340e-02	  -2.6801325e-02	   1.0081656e-01	
   5.7145000e+01	   1.5221440e-02	  -2.9158099e-02	   1.0153509e-01	
   5.7200000e+01	   1.0003632e-02	  -3.1096282e-02	   1.0286882e-01	
   5.7255000e+01	   4.4237858e-03	  -3.2607687e-02	   1.0485921e-01	
   5.7310000e+01	  -1.5881656e-03	  -3.3687997e-02	   1.0753206e-01	
   5.7365000e+01	  -8.1239913e-03	  -3.4341499e-02	   1.1088751e-01	
   5.7420000e+01	  -1.5289069e-02	  -3.4584865e-02	   1.1489282e-01	
   5.7475000e+01	  -2.3189374e-02	  -3.4448642e-02	   1.1947993e-01	
   5.7530000e+01	  -3.1915794e-02	  -3.3975785e-02	   1.2454992e-01	
   5.7585000e+01	  -4.1528415e-02	  -3.3217177e-02	   1.2998452e-01	
   5.7640000e+01	  -5.2043880e-02	  -3.2224458e-02	   1.3566129e-01	
   5.7695000e+01	  -6.3429283e-02	  -3.1041625e-02	   1.4146852e-01	
   5.7750000e+01	  -7.5604518e-02	  -2.9697886e-02	   1.4731759e-01	
   5.7805000e+01	  -8.8452240e-02	  -2.8203359e-02	   1.5315187e-01	
   5.7860000e+01	  -1.0183294e-01	  -2.6547284e-02	   1.5895049e-01	
   5.7915000e+01	  -1.1560266e-01	  -2.4698058e-02	   1.6472625e-01	
   5.7970000e+01	  -1.2963075e-01	  -2.2605605e-02	   1.7051799e-01	
   5.8025000e+01	  -1.4381529e-01	  -2.0206906e-02	   1.7637984e-01	
   5.8080000e+01	  -1.5809426e-01	  -1.7434439e-02	   1.8236820e-01	
   5.8135000e+01	  -1.7245138e-01	  -1.4226131e-02	   1.8852780e-01	
   5.8190000e+01	  -1.8691533e-01	  -1.0535160e-02	   1.9487850e-01	
   5.8245000e+01	  -2.0155086e-01	  -6.3381817e-03	   2.0140607e-01	
   5.8300000e+01	  -2.1644108e-01	  -1.6406420e-03	   2.0805926e-01	
   5.8355000e+01	  -2.3166291e-01	   3.5221335e-03	   2.1475452e-01	
   5.8410000e+01	  -2.4726065e-01	   9.0887964e-03	   2.2138818e-01	
   5.8465000e+01	  -2.6322397e-01	   1.4980064e-02	   2.2785407e-01	
   5.8520000e+01	  -2.7947609e-01	   2.1109047e-02	   2.3406243e-01	
   5.8575000e+01	  -2.9587472e-01	   2.7391667e-02	   2.3995544e-01	
   5.8630000e+01	  -3.1222499e-01	   3.3755589e-02	   2.4551663e-01	
   5.8685000e+01	  -3.2830138e-01	   4.0146471e-02	   2.5077405e-01	
   5.8740000e+01	  -3.4387300e-01	   4.6530689e-02	   2.5579768e-01	
   5.8795000e+01	  -3.5872720e-01	   5.2894573e-02	   2.6069130e-01	
   5.8850000e+01	  -3.7268903e-01	   5.9240565e-02	   2.6558024e-01	
   5.8905000e+01	  -3.8563538e-01	   6.5580750e-02	   2.7059663e-01	
   5.8960000e+01	  -3.9750338e-01	   7.1928711e-02	   2.7586389e-01	
   5.9015000e+01	  -4.0829370e-01	   7.8291376e-02	   2.8148098e-01	
   5.9070000e+01	  -4.1807003e-01	   8.4662011e-02	   2.8750779e-01	
   5.9125000e+01	  -4.2695385e-01	   9.1014942e-02	   2.9395420e-01	
   5.9180000e+01	  -4.3511177e-01	   9.7303216e-02	   3.0077595e-01	
   5.9235000e+01	  -4.4273378e-01	   1.0346097e-01	   3.0787885e-01	
   5.9290000e+01	  -4.5000555e-01	   1.0941100e-01	   3.1513099e-01	
   5.9345000e+01	  -4.5708148e-01	   1.1507598e-01	   3.2238084e-01	
   5.9400000e+01	  -4.6406568e-01	   1.2039064e-01	   3.2947781e-01	
   5.9455000e+01	  -4.7100489e-01	   1.2531248e-01	   3.3629090e-01	
   5.9510000e+01	  -4.7789319e-01	   1.2982906e-01	   3.4272260e-01	
   5.9565000e+01	  -4.8468460e-01	   1.3396043e-01	   3.4871622e-01	
   5.9620000e+01	  -4.9130855e-01	   1.3775705e-01	   3.5425667e-01	
   5.9675000e+01	  -4.9768455e-01	   1.4129397e-01	   3.5936515e-01	
   5.9730000e+01	  -5.0373503e-01	   1.4466285e-01	   3.6408885e-01	
   5.9785000e+01	  -5.0939523e-01	   1.4796251e-01	   3.6848754e-01	
   5.9840000e+01	  -5.1461761e-01	   1.5128935e-01	   3.7261921e-01	
   5.9895000e+01	  -5.1936905e-01	   1.5472816e-01	   3.7652626e-01	
   5.9950000e+01	  -5.2362245e-01	   1.5834352e-01	   3.8022349e-01	
   6.0005000e+01	  -5.2734546e-01	   1.6217256e-01	   3.8369034e-01	
   6.0060000e+01	  -5.3048860e-01	   1.6622071e-01	   3.8687001e-01	
   6.0115000e+01	  -5.3297455e-01	   1.7046215e-01	   3.8967647e-01	
   6.0170000e+01	  -5.3469146e-01	   1.7484572e-01	   3.9200843e-01	
   6.0225000e+01	  -5.3549290e-01	   1.7930476e-01	   3.9376753e-01	
   6.0280000e+01	  -5.3520499e-01	   1.8376850e-01	   3.9487668e-01	
   6.0335000e+01	  -5.3363922e-01	   1.8817233e-01	   3.9529460e-01	
   6.0390000e+01	  -5.3060969e-01	   1.9246538e-01	   3.9502433e-01	
   6.0445000e+01	  -5.2595351e-01	   1.9661370e-01	   3.9411543e-01	
   6.0500000e+01	  -5.1955125e-01	   2.0059875e-01	   3.9266076e-01	
   6.0555000e+01	  -5.1134383e-01	   2.0441290e-01	   3.9078848e-01	
   6.0610000e+01	  -5.0134284e-01	   2.0805439e-01	   3.8865017e-01	
   6.0665000e+01	  -4.8963373e-01	   2.1152245e-01	   3.8640600e-01	
   6.0720000e+01	  -4.7637180e-01	   2.1481228e-01	   3.8420851e-01	
   6.0775000e+01	  -4.6177265e-01	   2.1791017e-01	   3.8218665e-01	
   6.0830000e+01	  -4.4609976e-01	   2.2078988e-01	   3.8043240e-01	
   6.0885000e+01	  -4.2965137e-01	   2.2341030e-01	   3.7899220e-01	
   6.0940000e+01	  -4.1274599e-01	   2.2571455e-01	   3.7786530e-01	
   6.0995000e+01	  -3.9570489e-01	   2.2763128e-01	   3.7701001e-01	
   6.1050000e+01	  -3.7883264e-01	   2.2908007e-01	   3.7635668e-01	
   6.1105000e+01	  -3.6240092e-01	   2.2998103e-01	   3.7582408e-01	
   6.1160000e+01	  -3.4664020e-01	   2.3026659e-01	   3.7533447e-01	
   6.1215000e+01	  -3.3173980e-01	   2.2989283e-01	   3.7482398e-01	
   6.1270000e+01	  -3.1785326e-01	   2.2884837e-01	   3.7424706e-01	
   6.1325000e+01	  -3.0510525e-01	   2.2715922e-01	   3.7357635e-01	
   6.1380000e+01	  -2.9359660e-01	   2.2488936e-01	   3.7280020e-01	
   6.1435000e+01	  -2.8340481e-01	   2.2213765e-01	   3.7191904e-01	
   6.1490000e+01	  -2.7458131e-01	   2.1903226e-01	   3.7094075e-01	
   6.1545000e+01	  -2.6714881e-01	   2.1572306e-01	   3.6987522e-01	
   6.1600000e+01	  -2.6110110e-01	   2.1237156e-01	   3.6872900e-01	
   6.1655000e+01	  -2.5640480e-01	   2.0913949e-01	   3.6750111e-01	
   6.1710000e+01	  -2.5300164e-01	   2.0617784e-01	   3.6618120e-01	
   6.1765000e+01	  -2.5081032e-01	   2.0361891e-01	   3.6475115e-01	
   6.1820000e+01	  -2.4972732e-01	   2.0157260e-01	   3.6319165e-01	
   6.1875000e+01	  -2.4962754e-01	   2.0012698e-01	   3.6149301e-01	
   6.1930000e+01	  -2.5036719e-01	   1.9935206e-01	   3.5966760e-01	
   6.1985000e+01	  -2.5179094e-01	   1.9930496e-01	   3.5776029e-01	
   6.2040000e+01	  -2.5374221e-01	   2.0003435e-01	   3.5585461e-01	
   6.2095000e+01	  -2.5607363e-01	   2.0158335e-01	   3.5407334e-01	
   6.2150000e+01	  -2.5865569e-01	   2.0399082e-01	   3.5257250e-01	
   6.2205000e+01	  -2.6138404e-01	   2.0729107e-01	   3.5152951e-01	
   6.2260000e+01	  -2.6418642e-01	   2.1151144e-01	   3.5112804e-01	
   6.2315000e+01	  -2.6702760e-01	   2.1666767e-01	   3.5154236e-01	
   6.2370000e+01	  -2.6991029e-01	   2.2275820e-01	   3.5292161e-01	
   6.2425000e+01	  -2.7287140e-01	   2.2975888e-01	   3.5537494e-01	
   6.2480000e+01	  -2.7597458e-01	   2.3761922e-01	   3.5895956e-01	
   6.2535000e+01	  -2.7929847e-01	   2.4626055e-01	   3.6367488e-01	
   6.2590000e+01	  -2.8291988e-01	   2.5557757e-01	   3.6946406e-01	
   6.2645000e+01	  -2.8689293e-01	   2.6544463e-01	   3.7622287e-01	
   6.2700000e+01	  -2.9122831e-01	   2.7572648e-01	   3.8381488e-01	
   6.2755000e+01	  -2.9587675e-01	   2.8629100e-01	   3.9209081e-01	
   6.2810000e+01	  -3.0072066e-01	   2.9702068e-01	   4.0090718e-01	
   6.2865000e+01	  -3.0557631e-01	   3.0782075e-01	   4.1013993e-01	
   6.2920000e+01	  -3.1020663e-01	   3.1862385e-01	   4.1969096e-01	
   6.2975000e+01	  -3.1434054e-01	   3.2939145e-01	   4.2948839e-01	
   6.3030000e+01	  -3.1769262e-01	   3.4011280e-01	   4.3948181e-01	
   6.3085000e+01	  -3.1998015e-01	   3.5080105e-01	   4.4963434e-01	
   6.3140000e+01	  -3.2093824e-01	   3.6148601e-01	   4.5991390e-01	
   6.3195000e+01	  -3.2033423e-01	   3.7220395e-01	   4.7028475e-01	
   6.3250000e+01	  -3.1798033e-01	   3.8298638e-01	   4.8069954e-01	
   6.3305000e+01	  -3.1374355e-01	   3.9384942e-01	   4.9109222e-01	
   6.3360000e+01	  -3.0755242e-01	   4.0478504e-01	   5.0137306e-01	
   6.3415000e+01	  -2.9939872e-01	   4.1575481e-01	   5.1142766e-01	
   6.3470000e+01	  -2.8933303e-01	   4.2668806e-01	   5.2112189e-01	
   6.3525000e+01	  -2.7745554e-01	   4.3748636e-01	   5.3031267e-01	
   6.3580000e+01	  -2.6390520e-01	   4.4803389e-01	   5.3886258e-01	
   6.3635000e+01	  -2.4885008e-01	   4.5821093e-01	   5.4665559e-01	
   6.3690000e+01	  -2.3248011e-01	   4.6790741e-01	   5.5361110e-01	
   6.3745000e+01	  -2.1500222e-01	   4.7703393e-01	   5.5969352e-01	
   6.3800000e+01	  -1.9663689e-01	   4.8552875e-01	   5.6491523e-01	
   6.3855000e+01	  -1.7761538e-01	   4.9336029e-01	   5.6933344e-01	
   6.3910000e+01	  -1.5817746e-01	   5.0052602e-01	   5.7304287e-01	
   6.3965000e+01	  -1.3856977e-01	   5.0704930e-01	   5.7616610e-01	
   6.4020000e+01	  -1.1904488e-01	   5.1297434e-01	   5.7884205e-01	
   6.4075000e+01	  -9.9860209e-02	   5.1835927e-01	   5.8121313e-01	
   6.4130000e+01	  -8.1275536e-02	   5.2326735e-01	   5.8341195e-01	
   6.4185000e+01	  -6.3548718e-02	   5.2775767e-01	   5.8554866e-01	
   6.4240000e+01	  -4.6929538e-02	   5.3187660e-01	   5.8770092e-01	
   6.4295000e+01	  -3.1651856e-02	   5.3565128e-01	   5.8990859e-01	
   6.4350000e+01	  -1.7923899e-02	   5.3908692e-01	   5.9217489e-01	
   6.4405000e+01	  -5.9165380e-03	   5.4216887e-01	   5.9447312e-01	
   6.4460000e+01	   4.2488312e-03	   5.4486853e-01	   5.9675681e-01	
   6.4515000e+01	   1.2508973e-02	   5.4715055e-01	   5.9897066e-01	
   6.4570000e+01	   1.8860621e-02	   5.4897930e-01	   6.0106022e-01	
   6.4625000e+01	   2.3355127e-02	   5.5032401e-01	   6.0297892e-01	
   6.4680000e+01	   2.6089064e-02	   5.5116229e-01	   6.0469230e-01	
   6.4735000e+01	   2.7194953e-02	   5.5148202e-01	   6.0617919e-01	
   6.4790000e+01	   2.6834553e-02	   5.5128164e-01	   6.0742969e-01	
   6.4845000e+01	   2.5194634e-02	   5.5056913e-01	   6.0844010e-01	
   6.4900000e+01	   2.2483705e-02	   5.4935957e-01	   6.0920522e-01	
   6.4955000e+01	   1.8927795e-02	   5.4767101e-01	   6.0970984e-01	
   6.5010000e+01	   1.4763777e-02	   5.4551958e-01	   6.0992151e-01	
   6.5065000e+01	   1.0230602e-02	   5.4291599e-01	   6.0978757e-01	
   6.5120000e+01	   5.5609747e-03	   5.3986584e-01	   6.0923787e-01	
   6.5175000e+01	   9.7606566e-04	   5.3637459e-01	   6.0819371e-01	
   6.5230000e+01	  -3.3158411e-03	   5.3245535e-01	   6.0658083e-01	
   6.5285000e+01	  -7.1179934e-03	   5.2813696e-01	   6.0434331e-01	
   6.5340000e+01	  -1.0243935e-02	   5.2346950e-01	   6.0145476e-01	
   6.5395000e+01	  -1.2519194e-02	   5.1852568e-01	   5.9792501e-01	
   6.5450000e+01	  -1.3786374e-02	   5.1339755e-01	   5.9380127e-01	
   6.5505000e+01	  -1.3912072e-02	   5.0819017e-01	   5.8916380e-01	
   6.5560000e+01	  -1.2794189e-02	   5.0301385e-01	   5.8411640e-01	
   6.5615000e+01	  -1.0368864e-02	   4.9797564e-01	   5.7877325e-01	
   6.5670000e+01	  -6.6158091e-03	   4.9316996e-01	   5.7324468e-01	
   6.5725000e+01	  -1.5604544e-03	   4.8866918e-01	   5.6762366e-01	
   6.5780000e+01	   4.7281187e-03	   4.8451486e-01	   5.6197419e-01	
   6.5835000e+01	   1.2143210e-02	   4.8071095e-01	   5.5632329e-01	
   6.5890000e+01	   2.0549134e-02	   4.7722040e-01	   5.5065924e-01	
   6.5945000e+01	   2.9791109e-02	   4.7396704e-01	   5.4493762e-01	
   6.6000000e+01	   3.9705429e-02	   4.7084312e-01	   5.3909343e-01	
   6.6055000e+01	   5.0128629e-02	   4.6772131e-01	   5.3305609e-01	
   6.6110000e+01	   6.0904441e-02	   4.6446885e-01	   5.2676448e-01	
   6.6165000e+01	   7.1888443e-02	   4.6096168e-01	   5.2017943e-01	
   6.6220000e+01	   8.2950899e-02	   4.5709719e-01	   5.1329173e-01	
   6.6275000e+01	   9.3977844e-02	   4.5280387e-01	   5.0612465e-01	
   6.6330000e+01	   1.0487030e-01	   4.4804623e-01	   4.9873117e-01	
   6.6385000e+01	   1.1554159e-01	   4.4282445e-01	   4.9118697e-01	
   6.6440000e+01	   1.2591266e-01	   4.3716974e-01	   4.8357974e-01	
   6.6495000e+01	   1.3590563e-01	   4.3113663e-01	   4.7599651e-01	
   6.6550000e+01	   1.4543668e-01	   4.2479339e-01	   4.6851098e-01	
   6.6605000e+01	   1.5440987e-01	   4.1821170e-01	   4.6117239e-01	
   6.6660000e+01	   1.6271335e-01	   4.1145704e-01	   4.5399600e-01	
   6.6715000e+01	   1.7021938e-01	   4.0458017e-01	   4.4695550e-01	
   6.6770000e+01	   1.7678925e-01	   3.9760997e-01	   4.3997906e-01	
   6.6825000e+01	   1.8228312e-01	   3.9054798e-01	   4.3295142e-01	
   6.6880000e+01	   1.8657338e-01	   3.8336655e-01	   4.2572348e-01	
   6.6935000e+01	   1.8955868e-01	   3.7601197e-01	   4.1812881e-01	
   6.6990000e+01	   1.9117545e-01	   3.6841271e-01	   4.1000443e-01	
   6.7045000e+01	   1.9140398e-01	   3.6049056e-01	   4.0121140e-01	
   6.7100000e+01	   1.9026871e-01	   3.5217291e-01	   3.9165113e-01	
   6.7155000e+01	   1.8783346e-01	   3.4340398e-01	   3.8127535e-01	
   6.7210000e+01	   1.8419367e-01	   3.3415313e-01	   3.7008980e-01	
   6.7265000e+01	   1.7946806e-01	   3.2441903e-01	   3.5815309e-01	
   6.7320000e+01	   1.7379202e-01	   3.1423022e-01	   3.4557113e-01	
   6.7375000e+01	   1.6731302e-01	   3.0364318e-01	   3.3248733e-01	
   6.7430000e+01	   1.6018676e-01	   2.9273801e-01	   3.1906903e-01	
   6.7485000e+01	   1.5257176e-01	   2.8161171e-01	   3.0549133e-01	
   6.7540000e+01	   1.4462139e-01	   2.7036940e-01	   2.9192000e-01	
   6.7595000e+01	   1.3647422e-01	   2.5911458e-01	   2.7849524e-01	
   6.7650000e+01	   1.2824604e-01	   2.4793943e-01	   2.6531908e-01	
   6.7705000e+01	   1.2002724e-01	   2.3691633e-01	   2.5244838e-01	
   6.7760000e+01	   1.1188736e-01	   2.2609174e-01	   2.3989428e-01	
   6.7815000e+01	   1.0388459e-01	   2.1548391e-01	   2.2762808e-01	
   6.7870000e+01	   9.6075515e-02	   2.0508481e-01	   2.1559295e-01	
   6.7925000e+01	   8.8520780e-02	   1.9486574e-01	   2.0371924e-01	
   6.7980000e+01	   8.1285112e-02	   1.8478504e-01	   1.9193995e-01	
   6.8035000e+01	   7.4432352e-02	   1.7479610e-01	   1.8020365e-01	
   6.8090000e+01	   6.8016978e-02	   1.6485389e-01	   1.6848376e-01	
   6.8145000e+01	   6.2074369e-02	   1.5491934e-01	   1.5678355e-01	
   6.8200000e+01	   5.6612462e-02	   1.4496103e-01	   1.4513580e-01	
   6.8255000e+01	   5.1606370e-02	   1.3495489e-01	   1.3359632e-01	
   6.8310000e+01	   4.6996182e-02	   1.2488254e-01	   1.2223260e-01	
   6.8365000e+01	   4.2688227e-02	   1.1472839e-01	   1.1111063e-01	
   6.8420000e+01	   3.8560452e-02	   1.0447548e-01	   1.0028320e-01	
   6.8475000e+01	   3.4471474e-02	   9.4100774e-02	   8.9781358e-02	
   6.8530000e+01	   3.0271916e-02	   8.3571928e-02	   7.9610178e-02	
   6.8585000e+01	   2.5817246e-02	   7.2847120e-02	   6.9749636e-02	
   6.8640000e+01	   2.0981441e-02	   6.1879065e-02	   6.0161306e-02	
   6.8695000e+01	   1.5669122e-02	   5.0622975e-02	   5.0799599e-02	
   6.8750000e+01	   9.8227501e-03	   3.9046768e-02	   4.1624349e-02	
   6.8805000e+01	   3.4227148e-03	   2.7140950e-02	   3.2610975e-02	
   6.8860000e+01	  -3.5192646e-03	   1.4926254e-02	   2.3755774e-02	
   6.8915000e+01	  -1.0971365e-02	   2.4580811e-03	   1.5076337e-02	
   6.8970000e+01	  -1.8894783e-02	  -1.0173165e-02	   6.6084851e-03	
   6.9025000e+01	  -2.7255410e-02	  -2.2846667e-02	  -1.5991513e-03	
   6.9080000e+01	  -3.6031309e-02	  -3.5420084e-02	  -9.4926819e-03	
   6.9135000e+01	  -4.5215467e-02	  -4.7740840e-02	  -1.7022386e-02	
   6.9190000e+01	  -5.4815128e-02	  -5.9658218e-02	  -2.4152918e-02	
   6.9245000e+01	  -6.4849016e-02	  -7.1035697e-02	  -3.0872480e-02	
   6.9300000e+01	  -7.5342956e-02	  -8.1762651e-02	  -3.7199279e-02	
   6.9355000e+01	  -8.6323397e-02	  -9.1763533e-02	  -4.3184080e-02	
   6.9410000e+01	  -9.7808071e-02	  -1.0100263e-01	  -4.8907953e-02	
   6.9465000e+01	  -1.0979406e-01	  -1.0948332e-01	  -5.4474514e-02	
   6.9520000e+01	  -1.2224563e-01	  -1.1724222e-01	  -5.9997027e-02	
   6.9575000e+01	  -1.3508629e-01	  -1.2433943e-01	  -6.5582687e-02	
   6.9630000e+01	  -1.4819931e-01	  -1.3084739e-01	  -7.1317402e-02	
   6.9685000e+01	  -1.6143793e-01	  -1.3683990e-01	  -7.7253705e-02	
   6.9740000e+01	  -1.7464205e-01	  -1.4238276e-01	  -8.3403368e-02	
   6.9795000e+01	  -1.8765667e-01	  -1.4752696e-01	  -8.9736054e-02	
   6.9850000e+01	  -2.0034904e-01	  -1.5230536e-01	  -9.6184736e-02	
   6.9905000e+01	  -2.1262291e-01	  -1.5673346e-01	  -1.0265651e-01	
   6.9960000e+01	  -2.2442783e-01	  -1.6081336e-01	  -1.0904606e-01	
   7.0015000e+01	  -2.3576313e-01	  -1.6453988e-01	  -1.1525006e-01	
   7.0070000e+01	  -2.4667858e-01	  -1.6790769e-01	  -1.2118199e-01	
   7.0125000e+01	  -2.5727297e-01	  -1.7091943e-01	  -1.2678645e-01	
   7.0180000e+01	  -2.6768889e-01	  -1.7359431e-01	  -1.3205072e-01	
   7.0235000e+01	  -2.7810171e-01	  -1.7597560e-01	  -1.3701124e-01	
   7.0290000e+01	  -2.8870304e-01	  -1.7813528e-01	  -1.4175252e-01	
   7.0345000e+01	  -2.9968037e-01	  -1.8017476e-01	  -1.4639733e-01	
   7.0400000e+01	  -3.1119498e-01	  -1.8222069e-01	  -1.5108912e-01	
   7.0455000e+01	  -3.2336062e-01	  -1.8441541e-01	  -1.5597082e-01	
   7.0510000e+01	  -3.3622743e-01	  -1.8690286e-01	  -1.6116534e-01	
   7.0565000e+01	  -3.4977447e-01	  -1.8981323e-01	  -1.6676093e-01	
   7.0620000e+01	  -3.6391112e-01	  -1.9324983e-01	  -1.7280202e-01	
   7.0675000e+01	  -3.7848582e-01	  -1.9727999e-01	  -1.7928551e-01	
   7.0730000e+01	  -3.9330092e-01	  -2.0193040e-01	  -1.8616238e-01	
   7.0785000e+01	  -4.0813276e-01	  -2.0718664e-01	  -1.9334481e-01	
   7.0840000e+01	  -4.2275441e-01	  -2.1299724e-01	  -2.0071779e-01	
   7.0895000e+01	  -4.3695806e-01	  -2.1928135e-01	  -2.0815457e-01	
   7.0950000e+01	  -4.5057511e-01	  -2.2593843e-01	  -2.1553451e-01	
   7.1005000e+01	  -4.6349147e-01	  -2.3285877e-01	  -2.2276060e-01	
   7.1060000e+01	  -4.7565556e-01	  -2.3993466e-01	  -2.2977337e-01	
   7.1115000e+01	  -4.8707673e-01	  -2.4707157e-01	  -2.3655951e-01	
   7.1170000e+01	  -4.9781502e-01	  -2.5419764e-01	  -2.4315468e-01	
   7.1225000e+01	  -5.0796536e-01	  -2.6126914e-01	  -2.4963943e-01	
   7.1280000e+01	  -5.1764040e-01	  -2.6827017e-01	  -2.5612721e-01	
   7.1335000e+01	  -5.2695442e-01	  -2.7520662e-01	  -2.6274589e-01	
   7.1390000e+01	  -5.3601014e-01	  -2.8209589e-01	  -2.6961701e-01	
   7.1445000e+01	  -5.4488955e-01	  -2.8895553e-01	  -2.7683665e-01	
   7.1500000e+01	  -5.5364942e-01	  -2.9579382e-01	  -2.8446081e-01	
   7.1555000e+01	  -5.6232207e-01	  -3.0260421e-01	  -2.9249692e-01	
   7.1610000e+01	  -5.7092137e-01	  -3.0936318e-01	  -3.0090227e-01	
   7.1665000e+01	  -5.7945331e-01	  -3.1603084e-01	  -3.0958841e-01	
   7.1720000e+01	  -5.8792850e-01	  -3.2255450e-01	  -3.1843019e-01	
   7.1775000e+01	  -5.9637251e-01	  -3.2887525e-01	  -3.2727816e-01	
   7.1830000e+01	  -6.0482998e-01	  -3.3493655e-01	  -3.3597398e-01	
   7.1885000e+01	  -6.1336211e-01	  -3.4069284e-01	  -3.4436747e-01	
   7.1940000e+01	  -6.2204020e-01	  -3.4611691e-01	  -3.5233268e-01	
   7.1995000e+01	  -6.3093764e-01	  -3.5120481e-01	  -3.5977948e-01	
   7.2050000e+01	  -6.4012132e-01	  -3.5597687e-01	  -3.6665785e-01	
   7.2105000e+01	  -6.4964247e-01	  -3.6047400e-01	  -3.7295431e-01	
   7.2160000e+01	  -6.5952853e-01	  -3.6475013e-01	  -3.7868193e-01	
   7.2215000e+01	  -6.6977810e-01	  -3.6886265e-01	  -3.8386685e-01	
   7.2270000e+01	  -6.8036071e-01	  -3.7286291e-01	  -3.8853466e-01	
   7.2325000e+01	  -6.9122152e-01	  -3.7678867e-01	  -3.9270022e-01	
   7.2380000e+01	  -7.0228962e-01	  -3.8065959e-01	  -3.9636203e-01	
   7.2435000e+01	  -7.1348818e-01	  -3.8447564e-01	  -3.9950116e-01	
   7.2490000e+01	  -7.2474351e-01	  -3.8821743e-01	  -4.0208437e-01	
   7.2545000e+01	  -7.3599007e-01	  -3.9184812e-01	  -4.0407073e-01	
   7.2600000e+01	  -7.4717004e-01	  -3.9531760e-01	  -4.0542032e-01	
   7.2655000e+01	  -7.5822828e-01	  -3.9856932e-01	  -4.0610263e-01	
   7.2710000e+01	  -7.6910557e-01	  -4.0154859e-01	  -4.0610365e-01	
   7.2765000e+01	  -7.7973321e-01	  -4.0420964e-01	  -4.0543084e-01	
   7.2820000e+01	  -7.9003061e-01	  -4.0652005e-01	  -4.0411455e-01	
   7.2875000e+01	  -7.9990438e-01	  -4.0846187e-01	  -4.0220453e-01	
   7.2930000e+01	  -8.0924749e-01	  -4.1002873e-01	  -3.9976117e-01	
   7.2985000e+01	  -8.1793870e-01	  -4.1121918e-01	  -3.9684325e-01	
   7.3040000e+01	  -8.2584446e-01	  -4.1202842e-01	  -3.9349489e-01	
   7.3095000e+01	  -8.3282447e-01	  -4.1244121e-01	  -3.8973406e-01	
   7.3150000e+01	  -8.3874085e-01	  -4.1242724e-01	  -3.8554469e-01	
   7.3205000e+01	  -8.4347006e-01	  -4.1193916e-01	  -3.8087426e-01	
   7.3260000e+01	  -8.4691571e-01	  -4.1091378e-01	  -3.7563845e-01	
   7.3315000e+01	  -8.4902029e-01	  -4.0927671e-01	  -3.6973213e-01	
   7.3370000e+01	  -8.4977416e-01	  -4.0695013e-01	  -3.6304455e-01	
   7.3425000e+01	  -8.4922179e-01	  -4.0386182e-01	  -3.5547602e-01	
   7.3480000e+01	  -8.4746473e-01	  -3.9995439e-01	  -3.4695378e-01	
   7.3535000e+01	  -8.4466092e-01	  -3.9519408e-01	  -3.3744481e-01	
   7.3590000e+01	  -8.4101824e-01	  -3.8957824e-01	  -3.2696408e-01	
   7.3645000e+01	  -8.3678091e-01	  -3.8313998e-01	  -3.1557721e-01	
   7.3700000e+01	  -8.3220948e-01	  -3.7594807e-01	  -3.0339588e-01	
   7.3755000e+01	  -8.2755793e-01	  -3.6810168e-01	  -2.9056502e-01	
   7.3810000e+01	  -8.2305293e-01	  -3.5972021e-01	  -2.7724439e-01	
   7.3865000e+01	  -8.1887953e-01	  -3.5093039e-01	  -2.6358925e-01	
   7.3920000e+01	  -8.1517458e-01	  -3.4185306e-01	  -2.4973398e-01	
   7.3975000e+01	  -8.1202701e-01	  -3.3259213e-01	  -2.3578039e-01	
   7.4030000e+01	  -8.0948226e-01	  -3.2322668e-01	  -2.2179188e-01	
   7.4085000e+01	  -8.0754822e-01	  -3.1380649e-01	  -2.0779434e-01	
   7.4140000e+01	  -8.0620096e-01	  -3.0435146e-01	  -1.9378297e-01	
   7.4195000e+01	  -8.0538964e-01	  -2.9485554e-01	  -1.7973317e-01	
   7.4250000e+01	  -8.0504101e-01	  -2.8529436e-01	  -1.6561401e-01	
   7.4305000e+01	  -8.0506433e-01	  -2.7563552e-01	  -1.5140284e-01	
   7.4360000e+01	  -8.0535801e-01	  -2.6584957e-01	  -1.3709962e-01	
   7.4415000e+01	  -8.0581749e-01	  -2.5592039e-01	  -1.2273847e-01	
   7.4470000e+01	  -8.0634343e-01	  -2.4585319e-01	  -1.0839397e-01	
   7.4525000e+01	  -8.0684844e-01	  -2.3567893e-01	  -9.4180290e-02	
   7.4580000e+01	  -8.0726068e-01	  -2.2545426e-01	  -8.0241946e-02	
   7.4635000e+01	  -8.0752380e-01	  -2.1525664e-01	  -6.6737049e-02	
   7.4690000e+01	  -8.0759452e-01	  -2.0517520e-01	  -5.3816591e-02	
   7.4745000e+01	  -8.0743981e-01	  -1.9529955e-01	  -4.1604809e-02	
   7.4800000e+01	  -8.0703451e-01	  -1.8570899e-01	  -3.0184709e-02	
   7.4855000e+01	  -8.0635856e-01	  -1.7646404e-01	  -1.9590547e-02	
   7.4910000e+01	  -8.0539423e-01	  -1.6760123e-01	  -9.8070859e-03	
   7.4965000e+01	  -8.0412422e-01	  -1.5913091e-01	  -7.7485979e-04	
   7.5020000e+01	  -8.0253154e-01	  -1.5103731e-01	   7.5994846e-03	
   7.5075000e+01	  -8.0060061e-01	  -1.4328110e-01	   1.5429290e-02	
   7.5130000e+01	  -7.9831871e-01	  -1.3580494e-01	   2.2832447e-02	
   7.5185000e+01	  -7.9567704e-01	  -1.2854178e-01	   2.9916255e-02	
   7.5240000e+01	  -7.9267148e-01	  -1.2142487e-01	   3.6763900e-02	
   7.5295000e+01	  -7.8930382e-01	  -1.1439845e-01	   4.3423664e-02	
   7.5350000e+01	  -7.8558302e-01	  -1.0742733e-01	   4.9902150e-02	
   7.5405000e+01	  -7.8152467e-01	  -1.0050321e-01	   5.6162952e-02	
   7.5460000e+01	  -7.7714674e-01	  -9.3645781e-02	   6.2132036e-02	
   7.5515000e+01	  -7.7246197e-01	  -8.6898637e-02	   6.7709935e-02	
   7.5570000e+01	  -7.6746946e-01	  -8.0321385e-02	   7.2788361e-02	
   7.5625000e+01	  -7.6214873e-01	  -7.3979649e-02	   7.7267019e-02	
   7.5680000e+01	  -7.5645891e-01	  -6.7934787e-02	   8.1066963e-02	
   7.5735000e+01	  -7.5034379e-01	  -6.2235335e-02	   8.4139142e-02	
   7.5790000e+01	  -7.4374101e-01	  -5.6911552e-02	   8.6468608e-02	
   7.5845000e+01	  -7.3659293e-01	  -5.1973216e-02	   8.8075089e-02	
   7.5900000e+01	  -7.2885627e-01	  -4.7410194e-02	   8.9009992e-02	
   7.5955000e+01	  -7.2050936e-01	  -4.3195508e-02	   8.9350126e-02	
   7.6010000e+01	  -7.1155614e-01	  -3.9290617e-02	   8.9189106e-02	
   7.6065000e+01	  -7.0202672e-01	  -3.5652059e-02	   8.8627348e-02	
   7.6120000e+01	  -6.9197561e-01	  -3.2238280e-02	   8.7761759e-02	
   7.6175000e+01	  -6.8147909e-01	  -2.9015787e-02	   8.6677451e-02	
   7.6230000e+01	  -6.7063262e-01	  -2.5963778e-02	   8.5444105e-02	
   7.6285000e+01	  -6.5954715e-01	  -2.3076034e-02	   8.4117737e-02	
   7.6340000e+01	  -6.4834325e-01	  -2.0359054e-02	   8.2746588e-02	
   7.6395000e+01	  -6.3714230e-01	  -1.7826972e-02	   8.1379400e-02	
   7.6450000e+01	  -6.2605573e-01	  -1.5495000e-02	   8.0074390e-02	
   7.6505000e+01	  -6.1517444e-01	  -1.3372793e-02	   7.8906771e-02	
   7.6560000e+01	  -6.0456160e-01	  -1.1458421e-02	   7.7972370e-02	
   7.6615000e+01	  -5.9425016e-01	  -9.7339738e-03	   7.7385488e-02	
   7.6670000e+01	  -5.8424496e-01	  -8.1645121e-03	   7.7270651e-02	
   7.6725000e+01	  -5.7452720e-01	  -6.7011678e-03	   7.7749735e-02	
   7.6780000e+01	  -5.6505963e-01	  -5.2875624e-03	   7.8927251e-02	
   7.6835000e+01	  -5.5579268e-01	  -3.8680156e-03	   8.0876539e-02	
   7.6890000e+01	  -5.4667230e-01	  -2.3961340e-03	   8.3628755e-02	
   7.6945000e+01	  -5.3764957e-01	  -8.4236905e-04	   8.7165970e-02	
   7.7000000e+01	  -5.2868965e-01	   8.0077138e-04	   9.1419522e-02	
   7.7055000e+01	  -5.1977766e-01	   2.5169146e-03	   9.6274710e-02	
   7.7110000e+01	  -5.1091981e-01	   4.2683113e-03	   1.0158278e-01	
   7.7165000e+01	  -5.0213967e-01	   6.0028957e-03	   1.0717967e-01	
   7.7220000e+01	  -4.9347036e-01	   7.6647962e-03	   1.1290826e-01	
   7.7275000e+01	  -4.8494579e-01	   9.2058792e-03	   1.1863926e-01	
   7.7330000e+01	  -4.7659371e-01	   1.0595577e-02	   1.2428665e-01	
   7.7385000e+01	  -4.6843183e-01	   1.1826968e-02	   1.2981507e-01	
   7.7440000e+01	  -4.6046641e-01	   1.2918301e-02	   1.3523849e-01	
   7.7495000e+01	  -4.5269266e-01	   1.3910153e-02	   1.4061135e-01	
   7.7550000e+01	  -4.4509729e-01	   1.4858938e-02	   1.4601532e-01	
   7.7605000e+01	  -4.3766311e-01	   1.5828098e-02	   1.5154419e-01	
   7.7660000e+01	  -4.3037438e-01	   1.6878742e-02	   1.5728796e-01	
   7.7715000e+01	  -4.2322150e-01	   1.8060981e-02	   1.6331684e-01	
   7.7770000e+01	  -4.1620422e-01	   1.9406159e-02	   1.6966706e-01	
   7.7825000e+01	  -4.0933227e-01	   2.0920353e-02	   1.7633127e-01	
   7.7880000e+01	  -4.0262264e-01	   2.2580463e-02	   1.8325529e-01	
   7.7935000e+01	  -3.9609394e-01	   2.4334339e-02	   1.9034309e-01	
   7.7990000e+01	  -3.8975896e-01	   2.6105653e-02	   1.9747064e-01	
   7.8045000e+01	  -3.8361616e-01	   2.7803392e-02	   2.0450609e-01	
   7.8100000e+01	  -3.7764155e-01	   2.9334751e-02	   2.1133036e-01	
   7.8155000e+01	  -3.7178284e-01	   3.0618883e-02	   2.1785234e-01	
   7.8210000e+01	  -3.6595808e-01	   3.1598411e-02	   2.2401676e-01	
   7.8265000e+01	  -3.6005911e-01	   3.2246507e-02	   2.2980584e-01	
   7.8320000e+01	  -3.5395797e-01	   3.2569159e-02	   2.3523629e-01	
   7.8375000e+01	  -3.4751433e-01	   3.2603314e-02	   2.4035232e-01	
   7.8430000e+01	  -3.4058354e-01	   3.2411609e-02	   2.4521541e-01	
   7.8485000e+01	  -3.3302634e-01	   3.2074208e-02	   2.4989249e-01	
   7.8540000e+01	  -3.2472056e-01	   3.1678549e-02	   2.5444353e-01	
   7.8595000e+01	  -3.1557329e-01	   3.1308125e-02	   2.5890871e-01	
   7.8650000e+01	  -3.0553187e-01	   3.1031178e-02	   2.6329664e-01	
   7.8705000e+01	  -2.9459218e-01	   3.0890326e-02	   2.6757588e-01	
   7.8760000e+01	  -2.8280356e-01	   3.0895212e-02	   2.7167226e-01	
   7.8815000e+01	  -2.7026953e-01	   3.1020563e-02	   2.7547316e-01	
   7.8870000e+01	  -2.5714233e-01	   3.1210397e-02	   2.7883912e-01	
   7.8925000e+01	  -2.4360968e-01	   3.1387188e-02	   2.8162111e-01	
   7.8980000e+01	  -2.2987586e-01	   3.1464047e-02	   2.8367992e-01	
   7.9035000e+01	  -2.1614343e-01	   3.1357777e-02	   2.8490314e-01	
   7.9090000e+01	  -2.0260114e-01	   3.1000408e-02	   2.8521748e-01	
   7.9145000e+01	  -1.8941874e-01	   3.0347128e-02	   2.8459585e-01	
   7.9200000e+01	  -1.7674567e-01	   2.9379759e-02	   2.8305898e-01	
   7.9255000e+01	  -1.6471102e-01	   2.8106273e-02	   2.8067130e-01	
   7.9310000e+01	  -1.5342499e-01	   2.6557643e-02	   2.7753193e-01	
   7.9365000e+01	  -1.4298106e-01	   2.4783256e-02	   2.7376282e-01	
   7.9420000e+01	  -1.3345589e-01	   2.2845521e-02	   2.6949609e-01	
   7.9475000e+01	  -1.2490566e-01	   2.0813653e-02	   2.6486192e-01	
   7.9530000e+01	  -1.1736085e-01	   1.8756773e-02	   2.5997830e-01	
   7.9585000e+01	  -1.1082243e-01	   1.6737429e-02	   2.5494462e-01	
   7.9640000e+01	  -1.0525949e-01	   1.4807449e-02	   2.4984073e-01	
   7.9695000e+01	  -1.0060726e-01	   1.3007689e-02	   2.4473189e-01	
   7.9750000e+01	  -9.6765917e-02	   1.1371571e-02	   2.3967837e-01	
   7.9805000e+01	  -9.3601389e-02	   9.9304277e-03	   2.3474706e-01	
   7.9860000e+01	  -9.0948675e-02	   8.7182930e-03	   2.3002142e-01	
   7.9915000e+01	  -8.8617639e-02	   7.7747840e-03	   2.2560744e-01	
   7.9970000e+01	  -8.6401657e-02	   7.1459090e-03	   2.2163467e-01	
   8.0025000e+01	  -8.4088579e-02	   6.8829460e-03	   2.1825252e-01	
   8.0080000e+01	  -8.1472313e-02	   7.0395927e-03	   2.1562241e-01	
   8.0135000e+01	  -7.8364270e-02	   7.6676937e-03	   2.1390620e-01	
   8.0190000e+01	  -7.4605117e-02	   8.8115418e-03	   2.1325209e-01	
   8.0245000e+01	  -7.0075673e-02	   1.0500589e-02	   2.1378033e-01	
   8.0300000e+01	  -6.4703240e-02	   1.2741458e-02	   2.1557057e-01	
   8.0355000e+01	  -5.8461089e-02	   1.5511476e-02	   2.1865161e-01	
   8.0410000e+01	  -5.1362799e-02	   1.8756051e-02	   2.2299489e-01	
   8.0465000e+01	  -4.3454290e-02	   2.2391481e-02	   2.2851449e-01	
   8.0520000e+01	  -3.4804680e-02	   2.6313654e-02	   2.3507582e-01	
   8.0575000e+01	  -2.5496917e-02	   3.0411258e-02	   2.4251160e-01	
   8.0630000e+01	  -1.5619598e-02	   3.4580026e-02	   2.5064130e-01	
   8.0685000e+01	  -5.2604329e-03	   3.8734421e-02	   2.5929000e-01	
   8.0740000e+01	   5.4988655e-03	   4.2815169e-02	   2.6830324e-01	
   8.0795000e+01	   1.6585844e-02	   4.6793075e-02	   2.7755556e-01	
   8.0850000e+01	   2.7938618e-02	   5.0669693e-02	   2.8695140e-01	
   8.0905000e+01	   3.9506553e-02	   5.4474919e-02	   2.9641993e-01	
   8.0960000e+01	   5.1251503e-02	   5.8261332e-02	   3.0590611e-01	
   8.1015000e+01	   6.3148793e-02	   6.2095509e-02	   3.1536047e-01	
   8.1070000e+01	   7.5186341e-02	   6.6047179e-02	   3.2472853e-01	
   8.1125000e+01	   8.7361951e-02	   7.0177978e-02	   3.3394157e-01	
   8.1180000e+01	   9.9680880e-02	   7.4531961e-02	   3.4291050e-01	
   8.1235000e+01	   1.1215603e-01	   7.9129916e-02	   3.5152535e-01	
   8.1290000e+01	   1.2481150e-01	   8.3968850e-02	   3.5966162e-01	
   8.1345000e+01	   1.3768819e-01	   8.9026390e-02	   3.6719328e-01	
   8.1400000e+01	   1.5084873e-01	   9.4267988e-02	   3.7400957e-01	
   8.1455000e+01	   1.6437881e-01	   9.9654535e-02	   3.8003086e-01	
   8.1510000e+01	   1.7838367e-01	   1.0514920e-01	   3.8522038e-01	
   8.1565000e+01	   1.9298045e-01	   1.1072279e-01	   3.8959060e-01	
   8.1620000e+01	   2.0828816e-01	   1.1635677e-01	   3.9320480e-01	
   8.1675000e+01	   2.2441688e-01	   1.2204329e-01	   3.9617389e-01	
   8.1730000e+01	   2.4145624e-01	   1.2778258e-01	   3.9864758e-01	
   8.1785000e+01	   2.5946317e-01	   1.3357805e-01	   4.0080003e-01	
   8.1840000e+01	   2.7844968e-01	   1.3943016e-01	   4.0281116e-01	
   8.1895000e+01	   2.9837157e-01	   1.4533053e-01	   4.0484597e-01	
   8.1950000e+01	   3.1911995e-01	   1.5125754e-01	   4.0703541e-01	
   8.2005000e+01	   3.4051886e-01	   1.5717326e-01	   4.0946244e-01	
   8.2060000e+01	   3.6233265e-01	   1.6302106e-01	   4.1215576e-01	
   8.2115000e+01	   3.8428361e-01	   1.6872525e-01	   4.1509187e-01	
   8.2170000e+01	   4.0607607e-01	   1.7419483e-01	   4.1820489e-01	
   8.2225000e+01	   4.2742069e-01	   1.7933167e-01	   4.2140214e-01	
   8.2280000e+01	   4.4805317e-01	   1.8404117e-01	   4.2458171e-01	
   8.2335000e+01	   4.6774504e-01	   1.8824267e-01	   4.2764811e-01	
   8.2390000e+01	   4.8630830e-01	   1.9187771e-01	   4.3052326e-01	
   8.2445000e+01	   5.0359728e-01	   1.9491510e-01	   4.3315197e-01	
   8.2500000e+01	   5.1950916e-01	   1.9735194e-01	   4.3550291e-01	
   8.2555000e+01	   5.3398255e-01	   1.9921120e-01	   4.3756582e-01	
   8.2610000e+01	   5.4699222e-01	   2.0053698e-01	   4.3934617e-01	
   8.2665000e+01	   5.5854036e-01	   2.0138857e-01	   4.4085830e-01	
   8.2720000e+01	   5.6864684e-01	   2.0183348e-01	   4.4211797e-01	
   8.2775000e+01	   5.7734224e-01	   2.0194033e-01	   4.4313432e-01	
   8.2830000e+01	   5.8466501e-01	   2.0177249e-01	   4.4390223e-01	
   8.2885000e+01	   5.9066230e-01	   2.0138351e-01	   4.4439706e-01	
   8.2940000e+01	   5.9539386e-01	   2.0081444e-01	   4.4457441e-01	
   8.2995000e+01	   5.9893879e-01	   2.0009384e-01	   4.4437630e-01	
   8.3050000e+01	   6.0140369e-01	   1.9924057e-01	   4.4374216e-01	
   8.3105000e+01	   6.0292862e-01	   1.9826847e-01	   4.4262147e-01	
   8.3160000e+01	   6.0368799e-01	   1.9719146e-01	   4.4098492e-01	
   8.3215000e+01	   6.0388557e-01	   1.9602761e-01	   4.3883219e-01	
   8.3270000e+01	   6.0374579e-01	   1.9480184e-01	   4.3619543e-01	
   8.3325000e+01	   6.0350313e-01	   1.9354642e-01	   4.3313866e-01	
   8.3380000e+01	   6.0339152e-01	   1.9229904e-01	   4.2975301e-01	
   8.3435000e+01	   6.0363447e-01	   1.9109852e-01	   4.2614801e-01	
   8.3490000e+01	   6.0443641e-01	   1.8997949e-01	   4.2243933e-01	
   8.3545000e+01	   6.0597382e-01	   1.8896706e-01	   4.1873425e-01	
   8.3600000e+01	   6.0838678e-01	   1.8807174e-01	   4.1511762e-01	
   8.3655000e+01	   6.1177349e-01	   1.8728555e-01	   4.1164092e-01	
   8.3710000e+01	   6.1619056e-01	   1.8658085e-01	   4.0831653e-01	
   8.3765000e+01	   6.2165951e-01	   1.8591345e-01	   4.0511903e-01	
   8.3820000e+01	   6.2817769e-01	   1.8522981e-01	   4.0199418e-01	
   8.3875000e+01	   6.3572993e-01	   1.8447645e-01	   3.9887343e-01	
   8.3930000e+01	   6.4429657e-01	   1.8360952e-01	   3.9568913e-01	
   8.3985000e+01	   6.5385537e-01	   1.8260240e-01	   3.9238694e-01	
   8.4040000e+01	   6.6437771e-01	   1.8144987e-01	   3.8893390e-01	
   8.4095000e+01	   6.7582084e-01	   1.8016872e-01	   3.8532204e-01	
   8.4150000e+01	   6.8811825e-01	   1.7879571e-01	   3.8156715e-01	
   8.4205000e+01	   7.0116926e-01	   1.7738339e-01	   3.7770293e-01	
   8.4260000e+01	   7.1482970e-01	   1.7599275e-01	   3.7377146e-01	
   8.4315000e+01	   7.2890585e-01	   1.7468258e-01	   3.6981180e-01	
   8.4370000e+01	   7.4315319e-01	   1.7349697e-01	   3.6584854e-01	
   8.4425000e+01	   7.5728027e-01	   1.7245326e-01	   3.6188240e-01	
   8.4480000e+01	   7.7095867e-01	   1.7153310e-01	   3.5788439e-01	
   8.4535000e+01	   7.8384101e-01	   1.7067889e-01	   3.5379497e-01	
   8.4590000e+01	   7.9558823e-01	   1.6979740e-01	   3.4952916e-01	
   8.4645000e+01	   8.0590241e-01	   1.6877096e-01	   3.4498718e-01	
   8.4700000e+01	   8.1455777e-01	   1.6747416e-01	   3.4006860e-01	
   8.4755000e+01	   8.2142304e-01	   1.6579214e-01	   3.3468740e-01	
   8.4810000e+01	   8.2647207e-01	   1.6363667e-01	   3.2878450e-01	
   8.4865000e+01	   8.2978238e-01	   1.6095710e-01	   3.2233585e-01	
   8.4920000e+01	   8.3152165e-01	   1.5774573e-01	   3.1535481e-01	
   8.4975000e+01	   8.3192357e-01	   1.5403797e-01	   3.0788977e-01	
   8.5030000e+01	   8.3125768e-01	   1.4990795e-01	   3.0001764e-01	
   8.5085000e+01	   8.2980002e-01	   1.4546024e-01	   2.9183406e-01	
   8.5140000e+01	   8.2780951e-01	   1.4081841e-01	   2.8344142e-01	
   8.5195000e+01	   8.2551132e-01	   1.3611149e-01	   2.7493567e-01	
   8.5250000e+01	   8.2308612e-01	   1.3146006e-01	   2.6639288e-01	
   8.5305000e+01	   8.2066347e-01	   1.2696396e-01	   2.5785697e-01	
   8.5360000e+01	   8.1831918e-01	   1.2269238e-01	   2.4933076e-01	
   8.5415000e+01	   8.1607815e-01	   1.1867701e-01	   2.4077306e-01	
   8.5470000e+01	   8.1392503e-01	   1.1490898e-01	   2.3210332e-01	
   8.5525000e+01	   8.1182242e-01	   1.1134096e-01	   2.2321387e-01	
   8.5580000e+01	   8.0973233e-01	   1.0789458e-01	   2.1398802e-01	
   8.5635000e+01	   8.0763427e-01	   1.0447170e-01	   2.0432074e-01	
   8.5690000e+01	   8.0553522e-01	   1.0096774e-01	   1.9413798e-01	
   8.5745000e+01	   8.0347057e-01	   9.7284938e-02	   1.8341130e-01	
   8.5800000e+01	   8.0149742e-01	   9.3343909e-02	   1.7216545e-01	
   8.5855000e+01	   7.9968240e-01	   8.9091867e-02	   1.6047815e-01	
   8.5910000e+01	   7.9808676e-01	   8.4506960e-02	   1.4847296e-01	
   8.5965000e+01	   7.9675117e-01	   7.9598558e-02	   1.3630664e-01	
   8.6020000e+01	   7.9568363e-01	   7.4403458e-02	   1.2415295e-01	
   8.6075000e+01	   7.9485278e-01	   6.8978474e-02	   1.1218533e-01	
   8.6130000e+01	   7.9418696e-01	   6.3390868e-02	   1.0055964e-01	
   8.6185000e+01	   7.9357753e-01	   5.7708422e-02	   8.9397973e-02	
   8.6240000e+01	   7.9288561e-01	   5.1990238e-02	   7.8775172e-02	
   8.6295000e+01	   7.9195263e-01	   4.6278805e-02	   6.8710455e-02	
   8.6350000e+01	   7.9061608e-01	   4.0594355e-02	   5.9166051e-02	
   8.6405000e+01	   7.8873003e-01	   3.4933248e-02	   5.0053692e-02	
   8.6460000e+01	   7.8618655e-01	   2.9271608e-02	   4.1248275e-02	
   8.6515000e+01	   7.8293132e-01	   2.3573466e-02	   3.2606257e-02	
   8.6570000e+01	   7.7896873e-01	   1.7801050e-02	   2.3985140e-02	
   8.6625000e+01	   7.7435622e-01	   1.1924898e-02	   1.5260913e-02	
   8.6680000e+01	   7.6919106e-01	   5.9318772e-03	   6.3416041e-03	
   8.6735000e+01	   7.6359373e-01	  -1.7036944e-04	  -2.8243613e-03	
   8.6790000e+01	   7.5769002e-01	  -6.3529366e-03	  -1.2246391e-02	
   8.6845000e+01	   7.5159282e-01	  -1.2568486e-02	  -2.1897009e-02	
   8.6900000e+01	   7.4538479e-01	  -1.8756723e-02	  -3.1723015e-02	
   8.6955000e+01	   7.3910444e-01	  -2.4852250e-02	  -4.1660266e-02	
   8.7010000e+01	   7.3273870e-01	  -3.0794056e-02	  -5.1649572e-02	
   8.7065000e+01	   7.2622355e-01	  -3.6534959e-02	  -6.1650972e-02	
   8.7120000e+01	   7.1945231e-01	  -4.2049198e-02	  -7.1653569e-02	
   8.7175000e+01	   7.1229047e-01	  -4.7336642e-02	  -8.1678589e-02	
   8.7230000e+01	   7.0459584e-01	  -5.2422197e-02	  -9.1774586e-02	
   8.7285000e+01	   6.9624128e-01	  -5.7349609e-02	  -1.0200568e-01	
   8.7340000e+01	   6.8713478e-01	  -6.2170923e-02	  -1.1243566e-01	
   8.7395000e+01	   6.7723133e-01	  -6.6934792e-02	  -1.2311167e-01	
   8.7450000e+01	   6.6653414e-01	  -7.1676622e-02	  -1.3405090e-01	
   8.7505000e+01	   6.5508730e-01	  -7.6411879e-02	  -1.4523252e-01	
   8.7560000e+01	   6.4296382e-01	  -8.1133020e-02	  -1.5659533e-01	
   8.7615000e+01	   6.3025168e-01	  -8.5810267e-02	  -1.6804104e-01	
   8.7670000e+01	   6.1703945e-01	  -9.0395808e-02	  -1.7944268e-01	
   8.7725000e+01	   6.0340218e-01	  -9.4830467e-02	  -1.9065756e-01	
   8.7780000e+01	   5.8938850e-01	  -9.9052178e-02	  -2.0154321e-01	
   8.7835000e+01	   5.7501086e-01	  -1.0300567e-01	  -2.1197360e-01	
   8.7890000e+01	   5.6024255e-01	  -1.0665217e-01	  -2.2185360e-01	
   8.7945000e+01	   5.4502299e-01	  -1.0997785e-01	  -2.3113033e-01	
   8.8000000e+01	   5.2926993e-01	  -1.1300046e-01	  -2.3980082e-01	
   8.8055000e+01	   5.1289607e-01	  -1.1577372e-01	  -2.4791434e-01	
   8.8110000e+01	   4.9582841e-01	  -1.1838788e-01	  -2.5556811e-01	
   8.8165000e+01	   4.7802818e-01	  -1.2096417e-01	  -2.6289560e-01	
   8.8220000e+01	   4.5950672e-01	  -1.2364298e-01	  -2.7004781e-01	
   8.8275000e+01	   4.4033179e-01	  -1.2656854e-01	  -2.7717041e-01	
   8.8330000e+01	   4.2062250e-01	  -1.2987342e-01	  -2.8438137e-01	
   8.8385000e+01	   4.0053484e-01	  -1.3366484e-01	  -2.9175373e-01	
   8.8440000e+01	   3.8024158e-01	  -1.3801387e-01	  -2.9930646e-01	
   8.8495000e+01	   3.5991072e-01	  -1.4294879e-01	  -3.0700390e-01	
   8.8550000e+01	   3.3968537e-01	  -1.4845321e-01	  -3.1476251e-01	
   8.8605000e+01	   3.1966742e-01	  -1.5446926e-01	  -3.2246354e-01	
   8.8660000e+01	   2.9990631e-01	  -1.6090547e-01	  -3.2997047e-01	
   8.8715000e+01	   2.8039363e-01	  -1.6764830e-01	  -3.3714926e-01	
   8.8770000e+01	   2.6106402e-01	  -1.7457507e-01	  -3.4388925e-01	
   8.8825000e+01	   2.4180186e-01	  -1.8156623e-01	  -3.5012200e-01	
   8.8880000e+01	   2.2245215e-01	  -1.8851613e-01	  -3.5583579e-01	
   8.8935000e+01	   2.0283386e-01	  -1.9534242e-01	  -3.6108361e-01	
   8.8990000e+01	   1.8275602e-01	  -2.0199369e-01	  -3.6598298e-01	
   8.9045000e+01	   1.6203795e-01	  -2.0845356e-01	  -3.7070710e-01	
   8.9100000e+01	   1.4053299e-01	  -2.1473892e-01	  -3.7546713e-01	
   8.9155000e+01	   1.1815159e-01	  -2.2089250e-01	  -3.8048810e-01	
   8.9210000e+01	   9.4877376e-02	  -2.2697176e-01	  -3.8598294e-01	
   8.9265000e+01	   7.0771422e-02	  -2.3303760e-01	  -3.9212922e-01	
   8.9320000e+01	   4.5965039e-02	  -2.3914477e-01	  -3.9905201e-01	
   8.9375000e+01	   2.0645325e-02	  -2.4533524e-01	  -4.0681449e-01	
   8.9430000e+01	  -4.9617511e-03	  -2.5163436e-01	  -4.1541616e-01	
   8.9485000e+01	  -3.0609007e-02	  -2.5804904e-01	  -4.2479770e-01	
   8.9540000e+01	  -5.6046698e-02	  -2.6456742e-01	  -4.3485093e-01	
   8.9595000e+01	  -8.1041647e-02	  -2.7116081e-01	  -4.4543310e-01	
   8.9650000e+01	  -1.0539417e-01	  -2.7778870e-01	  -4.5638444e-01	
   8.9705000e+01	  -1.2894981e-01	  -2.8440625e-01	  -4.6754750e-01	
   8.9760000e+01	  -1.5160525e-01	  -2.9097298e-01	  -4.7878555e-01	
   8.9815000e+01	  -1.7330994e-01	  -2.9746111e-01	  -4.8999663e-01	
   8.9870000e+01	  -1.9406468e-01	  -3.0386216e-01	  -5.0112033e-01	
   8.9925000e+01	  -2.1391606e-01	  -3.1019024e-01	  -5.1213656e-01	
   8.9980000e+01	  -2.3294606e-01	  -3.1648071e-01	  -5.2305700e-01	
   9.0035000e+01	  -2.5125833e-01	  -3.2278431e-01	  -5.3391100e-01	
   9.0090000e+01	  -2.6896507e-01	  -3.2915861e-01	  -5.4472875e-01	
   9.0145000e+01	  -2.8617855e-01	  -3.3565970e-01	  -5.5552532e-01	
   9.0200000e+01	  -3.0300837e-01	  -3.4233577e-01	  -5.6628896e-01	
   9.0255000e+01	  -3.1956245e-01	  -3.4922350e-01	  -5.7697505e-01	
   9.0310000e+01	  -3.3594722e-01	  -3.5634662e-01	  -5.8750578e-01	
   9.0365000e+01	  -3.5226422e-01	  -3.6371640e-01	  -5.9777522e-01	
   9.0420000e+01	  -3.6860397e-01	  -3.7133363e-01	  -6.0765895e-01	
   9.0475000e+01	  -3.8504051e-01	  -3.7919205e-01	  -6.1702677e-01	
   9.0530000e+01	  -4.0162777e-01	  -3.8728305e-01	  -6.2575558e-01	
   9.0585000e+01	  -4.1839715e-01	  -3.9560089e-01	  -6.3374135e-01	
   9.0640000e+01	  -4.3535601e-01	  -4.0414650e-01	  -6.4090931e-01	
   9.0695000e+01	  -4.5248821e-01	  -4.1292881e-01	  -6.4722164e-01	
   9.0750000e+01	  -4.6975519e-01	  -4.2196348e-01	  -6.5268068e-01	
   9.0805000e+01	  -4.8709450e-01	  -4.3126941e-01	  -6.5732603e-01	
   9.0860000e+01	  -5.0441552e-01	  -4.4086196e-01	  -6.6122524e-01	
   9.0915000e+01	  -5.2159637e-01	  -4.5074339e-01	  -6.6445960e-01	
   9.0970000e+01	  -5.3848576e-01	  -4.6089274e-01	  -6.6710827e-01	
   9.1025000e+01	  -5.5491043e-01	  -4.7125772e-01	  -6.6923435e-01	
   9.1080000e+01	  -5.7068650e-01	  -4.8174994e-01	  -6.7087524e-01	
   9.1135000e+01	  -5.8563260e-01	  -4.9224446e-01	  -6.7203797e-01	
   9.1190000e+01	  -5.9958261e-01	  -5.0258383e-01	  -6.7269913e-01	
   9.1245000e+01	  -6.1239595e-01	  -5.1258645e-01	  -6.7280959e-01	
   9.1300000e+01	  -6.2396487e-01	  -5.2205812e-01	  -6.7230376e-01	
   9.1355000e+01	  -6.3421967e-01	  -5.3080599e-01	  -6.7111247e-01	
   9.1410000e+01	  -6.4313292e-01	  -5.3865323e-01	  -6.6917829e-01	
   9.1465000e+01	  -6.5072196e-01	  -5.4545280e-01	  -6.6647139e-01	
   9.1520000e+01	  -6.5704826e-01	  -5.5109827e-01	  -6.6300381e-01	
   9.1575000e+01	  -6.6221361e-01	  -5.5553141e-01	  -6.5883897e-01	
   9.1630000e+01	  -6.6635307e-01	  -5.5874599e-01	  -6.5409267e-01	
   9.1685000e+01	  -6.6962309e-01	  -5.6078711e-01	  -6.4892435e-01	
   9.1740000e+01	  -6.7218558e-01	  -5.6174442e-01	  -6.4352016e-01	
   9.1795000e+01	  -6.7419324e-01	  -5.6174004e-01	  -6.3807159e-01	
   9.1850000e+01	  -6.7578159e-01	  -5.6091406e-01	  -6.3275369e-01	
   9.1905000e+01	  -6.7706884e-01	  -5.5941062e-01	  -6.2770634e-01	
   9.1960000e+01	  -6.7816104e-01	  -5.5736655e-01	  -6.2302095e-01	
   9.2015000e+01	  -6.7915999e-01	  -5.5490322e-01	  -6.1873398e-01	
   9.2070000e+01	  -6.8017174e-01	  -5.5212237e-01	  -6.1482716e-01	
   9.2125000e+01	  -6.8131394e-01	  -5.4910564e-01	  -6.1123471e-01	
   9.2180000e+01	  -6.8272101e-01	  -5.4591695e-01	  -6.0785655e-01	
   9.2235000e+01	  -6.8454744e-01	  -5.4260680e-01	  -6.0457515e-01	
   9.2290000e+01	  -6.8696887e-01	  -5.3921829e-01	  -6.0127306e-01	
   9.2345000e+01	  -6.9017972e-01	  -5.3579449e-01	  -5.9784916e-01	
   9.2400000e+01	  -6.9438640e-01	  -5.3238553e-01	  -5.9423259e-01	
   9.2455000e+01	  -6.9979570e-01	  -5.2905347e-01	  -5.9039232e-01	
   9.2510000e+01	  -7.0659831e-01	  -5.2587366e-01	  -5.8634008e-01	
   9.2565000e+01	  -7.1494856e-01	  -5.2293152e-01	  -5.8212518e-01	
   9.2620000e+01	  -7.2494272e-01	  -5.2031443e-01	  -5.7782189e-01	
   9.2675000e+01	  -7.3660007e-01	  -5.1810008e-01	  -5.7351224e-01	
   9.2730000e+01	  -7.4985037e-01	  -5.1634448e-01	  -5.6926861e-01	
   9.2785000e+01	  -7.6453011e-01	  -5.1507273e-01	  -5.6513963e-01	
   9.2840000e+01	  -7.8038854e-01	  -5.1427367e-01	  -5.6114093e-01	
   9.2895000e+01	  -7.9710245e-01	  -5.1389839e-01	  -5.5725110e-01	
   9.2950000e+01	  -8.1429860e-01	  -5.1386289e-01	  -5.5341261e-01	
   9.3005000e+01	  -8.3158104e-01	  -5.1405466e-01	  -5.4953764e-01	
   9.3060000e+01	  -8.4855897e-01	  -5.1434214e-01	  -5.4551812e-01	
   9.3115000e+01	  -8.6487128e-01	  -5.1458580e-01	  -5.4123876e-01	
   9.3170000e+01	  -8.8020588e-01	  -5.1464979e-01	  -5.3659133e-01	
   9.3225000e+01	  -8.9431398e-01	  -5.1441301e-01	  -5.3148876e-01	
   9.3280000e+01	  -9.0701881e-01	  -5.1377866e-01	  -5.2587815e-01	
   9.3335000e+01	  -9.1821866e-01	  -5.1268132e-01	  -5.1975119e-01	
   9.3390000e+01	  -9.2788380e-01	  -5.1109117e-01	  -5.1314914e-01	
   9.3445000e+01	  -9.3604597e-01	  -5.0901507e-01	  -5.0616081e-01	
   9.3500000e+01	  -9.4278113e-01	  -5.0649350e-01	  -4.9891336e-01	
   9.3555000e+01	  -9.4818992e-01	  -5.0359307e-01	  -4.9155733e-01	
   9.3610000e+01	  -9.5238183e-01	  -5.0039593e-01	  -4.8424873e-01	
   9.3665000e+01	  -9.5546602e-01	  -4.9698791e-01	  -4.7713169e-01	
   9.3720000e+01	  -9.5754761e-01	  -4.9344728e-01	  -4.7032501e-01	
   9.3775000e+01	  -9.5872786e-01	  -4.8983588e-01	  -4.6391387e-01	
   9.3830000e+01	  -9.5910578e-01	  -4.8619415e-01	  -4.5794653e-01	
   9.3885000e+01	  -9.5877817e-01	  -4.8254076e-01	  -4.5243499e-01	
   9.3940000e+01	  -9.5783648e-01	  -4.7887603e-01	  -4.4735864e-01	
   9.3995000e+01	  -9.5636277e-01	  -4.7518781e-01	  -4.4267097e-01	
   9.4050000e+01	  -9.5442795e-01	  -4.7145853e-01	  -4.3830940e-01	
   9.4105000e+01	  -9.5209315e-01	  -4.6767243e-01	  -4.3420765e-01	
   9.4160000e+01	  -9.4941235e-01	  -4.6382183e-01	  -4.3030841e-01	
   9.4215000e+01	  -9.4643412e-01	  -4.5991177e-01	  -4.2657269e-01	
   9.4270000e+01	  -9.4320108e-01	  -4.5596214e-01	  -4.2298253e-01	
   9.4325000e+01	  -9.3974657e-01	  -4.5200687e-01	  -4.1953607e-01	
   9.4380000e+01	  -9.3609039e-01	  -4.4808920e-01	  -4.1623705e-01	
   9.4435000e+01	  -9.3223637e-01	  -4.4425362e-01	  -4.1308258e-01	
   9.4490000e+01	  -9.2817282e-01	  -4.4053711e-01	  -4.1005274e-01	
   9.4545000e+01	  -9.2387476e-01	  -4.3696230e-01	  -4.0710413e-01	
   9.4600000e+01	  -9.1930665e-01	  -4.3353381e-01	  -4.0416900e-01	
   9.4655000e+01	  -9.1442606e-01	  -4.3023752e-01	  -4.0115978e-01	
   9.4710000e+01	  -9.0918912e-01	  -4.2704259e-01	  -3.9797747e-01	
   9.4765000e+01	  -9.0355845e-01	  -4.2390586e-01	  -3.9452225e-01	
   9.4820000e+01	  -8.9751241e-01	  -4.2077762e-01	  -3.9070558e-01	
   9.4875000e+01	  -8.9105429e-01	  -4.1760770e-01	  -3.8646270e-01	
   9.4930000e+01	  -8.8421970e-01	  -4.1435193e-01	  -3.8176336e-01	
   9.4985000e+01	  -8.7708035e-01	  -4.1097843e-01	  -3.7661837e-01	
   9.5040000e+01	  -8.6974275e-01	  -4.0747242e-01	  -3.7108122e-01	
   9.5095000e+01	  -8.6234071e-01	  -4.0383773e-01	  -3.6524331e-01	
   9.5150000e+01	  -8.5502167e-01	  -4.0009430e-01	  -3.5922234e-01	
   9.5205000e+01	  -8.4792944e-01	  -3.9627178e-01	  -3.5314451e-01	
   9.5260000e+01	  -8.4118847e-01	  -3.9240072e-01	  -3.4712508e-01	
   9.5315000e+01	  -8.3489393e-01	  -3.8850336e-01	  -3.4125161e-01	
   9.5370000e+01	  -8.2910817e-01	  -3.8458665e-01	  -3.3557310e-01	
   9.5425000e+01	  -8.2386132e-01	  -3.8063825e-01	  -3.3009542e-01	
   9.5480000e+01	  -8.1915381e-01	  -3.7662594e-01	  -3.2478309e-01	
   9.5535000e+01	  -8.1496031e-01	  -3.7249988e-01	  -3.1956638e-01	
   9.5590000e+01	  -8.1123646e-01	  -3.6819758e-01	  -3.1435271e-01	
