
   0.0000000e+00	   1.6666574e+00	   3.6427110e-01	   4.4899080e-01	
   5.5000000e-02	   1.9896659e+00	   2.4220713e-01	   2.6437415e-01	
   1.1000000e-01	   2.1871514e+00	   3.5883774e-01	   4.9345261e-01	
   1.6500000e-01	   1.1802557e+00	   3.2337603e-01	   3.8536367e-01	
   2.2000000e-01	   1.2868669e+00	   2.1556067e-01	   4.5681150e-01	
   2.7500000e-01	   1.6434889e+00	   2.3323009e-01	   1.7934036e-01	
   3.3000000e-01	   1.1740099e+00	   3.1757382e-01	   2.0171424e-01	
   3.8500000e-01	   1.4665134e+00	   7.4595161e-02	   1.2044350e-01	
   4.4000000e-01	   1.4032996e+00	  -2.6677277e-02	   6.6410906e-02	
   4.9500000e-01	   1.9409839e+00	   2.0569023e-01	   2.4841905e-01	
   5.5000000e-01	   1.6669644e+00	   4.1758277e-01	   3.8883208e-01	
   6.0500000e-01	   1.6482700e+00	   3.4485127e-01	   5.5113734e-01	
   6.6000000e-01	   1.8839422e+00	   6.6853140e-02	   1.5954898e-01	
   7.1500000e-01	   2.0890782e+00	   4.1748719e-01	   4.2048222e-01	
   7.7000000e-01	   1.6443308e+00	   4.0691241e-01	   3.1018298e-01	
   8.2500000e-01	   1.7489447e+00	   1.3451652e-01	   2.6956377e-01	
   8.8000000e-01	   1.7173151e+00	   1.9352360e-01	   2.6444050e-01	
   9.3500000e-01	   1.5300761e+00	   7.6026074e-02	   8.1480391e-02	
   9.9000000e-01	   1.1176886e+00	   3.2197470e-01	   4.7286832e-02	
   1.0450000e+00	   1.3536947e+00	  -1.9820500e-01	  -1.5508868e-01	
   1.1000000e+00	   1.2354054e+00	   5.9086780e-02	   1.9474554e-01	
   1.1550000e+00	   2.0441015e+00	   3.7798695e-01	   5.4747923e-01	
   1.2100000e+00	   2.0121528e+00	   3.9734912e-01	   3.1163584e-01	
   1.2650000e+00	   2.0497961e+00	   3.0651298e-01	   4.2469508e-01	
   1.3200000e+00	   2.0855194e+00	   2.5395973e-01	   5.0336556e-01	
   1.3750000e+00	   1.7588458e+00	   2.8642099e-01	   4.2196859e-01	
   1.4300000e+00	   1.5757132e+00	   3.1123942e-01	   2.6059227e-01	
   1.4850000e+00	   1.4936238e+00	   2.4839453e-01	   3.7979466e-01	
   1.5400000e+00	   1.4526532e+00	   1.0471879e-01	   3.1602921e-01	
   1.5950000e+00	   1.7938450e+00	   2.3566851e-01	   7.0095157e-02	
   1.6500000e+00	   1.0449214e+00	   8.2045472e-02	  -9.0382656e-02	
   1.7050000e+00	   1.3087265e+00	  -1.2624492e-02	  -2.7757987e-02	
   1.7600000e+00	   1.7752529e+00	  -4.9501220e-02	   4.5141749e-01	
   1.8150000e+00	   2.0672323e+00	   3.7150741e-01	   4.5767756e-01	
   1.8700000e+00	   1.9949195e+00	   6.7215404e-01	   4.5423425e-01	
   1.9250000e+00	   1.8099694e+00	   3.6355598e-01	   6.8910992e-01	
   1.9800000e+00	   1.8650560e+00	   3.1228926e-01	   6.4748558e-01	
   2.0350000e+00	   2.2223909e+00	   4.9535386e-01	   4.0886119e-01	
   2.0900000e+00	   1.8494030e+00	   5.4128259e-01	   3.7837299e-01	
   2.1450000e+00	   1.4936238e+00	   4.9320397e-01	   3.9514468e-01	
   2.2000000e+00	   1.9536706e+00	   2.7546741e-01	   2.9384901e-01	
   2.2550000e+00	   1.8682167e+00	   2.8821166e-01	   1.6590662e-01	
   2.3100000e+00	   1.2262358e+00	   3.3259965e-01	   1.7783743e-01	
   2.3650000e+00	   1.3301358e+00	   1.8787713e-02	   3.4225147e-01	
   2.4200000e+00	   1.9294006e+00	   8.1022268e-02	   3.7730239e-01	
   2.4750000e+00	   2.2446110e+00	   4.6137373e-01	   5.1068945e-01	
   2.5300000e+00	   2.0780275e+00	   5.8201670e-01	   6.0002795e-01	
   2.5850000e+00	   1.9998994e+00	   4.2673494e-01	   8.6395907e-01	
   2.6400000e+00	   2.2426557e+00	   4.6375488e-01	   7.9583577e-01	
   2.6950000e+00	   2.1385376e+00	   4.9720310e-01	   6.8986153e-01	
   2.7500000e+00	   2.3529819e+00	   5.5131121e-01	   5.8051657e-01	
   2.8050000e+00	   2.1720047e+00	   3.8252199e-01	   5.5842091e-01	
   2.8600000e+00	   1.9806867e+00	   2.8559884e-01	   7.5445105e-01	
   2.9150000e+00	   1.7844563e+00	   3.7702428e-01	   3.7430865e-01	
   2.9700000e+00	   2.1300860e+00	   3.8352041e-01	   2.1373723e-01	
   3.0250000e+00	   1.7026032e+00	   3.1023993e-01	   4.1190987e-01	
   3.0800000e+00	   1.7752529e+00	   2.0587299e-01	   4.0517303e-01	
   3.1350000e+00	   1.5353967e+00	   2.2298092e-01	   1.7171101e-01	
   3.1900000e+00	   2.1113606e+00	   3.8710646e-01	   6.5082381e-01	
   3.2450000e+00	   2.2286600e+00	   3.5359127e-01	   8.9841909e-01	
   3.3000000e+00	   2.7506718e+00	   3.5896458e-01	   9.5237400e-01	
   3.3550000e+00	   2.7066520e+00	   5.7273969e-01	   7.8410016e-01	
   3.4100000e+00	   2.4745734e+00	   5.4585074e-01	   6.6592181e-01	
   3.4650000e+00	   2.1904734e+00	   5.4199465e-01	   9.1847886e-01	
   3.5200000e+00	   2.6031562e+00	   4.5383403e-01	   9.2522651e-01	
   3.5750000e+00	   2.0546918e+00	   5.1382558e-01	   5.4063442e-01	
   3.6300000e+00	   2.4331918e+00	   3.2619109e-01	   7.4135030e-01	
   3.6850000e+00	   2.1204104e+00	   3.6503817e-01	   5.5519565e-01	
   3.7400000e+00	   2.1806371e+00	   2.9163999e-01	   3.0829173e-01	
   3.7950000e+00	   1.6974737e+00	   3.9968927e-01	   3.1874937e-01	
   3.8500000e+00	   2.2623141e+00	   4.3201634e-01	   5.0373296e-01	
   3.9050000e+00	   1.9934984e+00	   4.1096088e-01	   8.1716482e-01	
   3.9600000e+00	   2.7191039e+00	   5.2901732e-01	   7.4481605e-01	
   4.0150000e+00	   2.7212051e+00	   6.0799902e-01	   6.8016265e-01	
   4.0700000e+00	   2.7863186e+00	   4.7099663e-01	   7.6629674e-01	
   4.1250000e+00	   2.6578215e+00	   4.2966250e-01	   8.1410435e-01	
   4.1800000e+00	   2.4796549e+00	   5.1546264e-01	   6.9059614e-01	
   4.2350000e+00	   2.2381382e+00	   5.8359064e-01	   7.2886122e-01	
   4.2900000e+00	   2.1870879e+00	   4.9131729e-01	   4.8781135e-01	
   4.3450000e+00	   1.9791575e+00	   3.3894890e-01	   6.3449759e-01	
   4.4000000e+00	   2.4063193e+00	   2.8768776e-01	   6.9169017e-01	
   4.4550000e+00	   2.3964709e+00	   2.6178249e-01	   2.5317392e-01	
   4.5100000e+00	   1.7344584e+00	   3.0492733e-01	   1.6243214e-01	
   4.5650000e+00	   2.5774301e+00	   2.7953376e-01	   8.4544059e-01	
   4.6200000e+00	   2.1871514e+00	   5.2971800e-01	   8.9039860e-01	
   4.6750000e+00	   2.8120578e+00	   5.9208790e-01	   7.5808185e-01	
   4.7300000e+00	   2.6290423e+00	   9.4710039e-01	   6.3995869e-01	
   4.7850000e+00	   2.6941906e+00	   5.9029650e-01	   8.5530493e-01	
   4.8400000e+00	   2.8991314e+00	   4.0600310e-01	   8.4668892e-01	
   4.8950000e+00	   2.4796549e+00	   7.1823022e-01	   6.3004774e-01	
   4.9500000e+00	   2.4187443e+00	   4.9442051e-01	   7.1220540e-01	
   5.0050000e+00	   2.6148554e+00	   5.2809693e-01	   7.2591608e-01	
   5.0600000e+00	   2.2614675e+00	   4.1587970e-01	   6.2888636e-01	
   5.1150000e+00	   2.5009519e+00	   4.7487752e-01	   4.4133805e-01	
   5.1700000e+00	   1.8909849e+00	   3.9526727e-01	   3.6936356e-01	
   5.2250000e+00	   1.7730070e+00	   1.3042019e-01	   3.0984327e-01	
   5.2800000e+00	   2.3944175e+00	   4.2487543e-01	   6.9765677e-01	
   5.3350000e+00	   2.9408223e+00	   7.7032331e-01	   7.4064147e-01	
   5.3900000e+00	   2.8659583e+00	   7.2280176e-01	   8.7917758e-01	
   5.4450000e+00	   3.3021679e+00	   7.6722380e-01	   8.6868352e-01	
   5.5000000e+00	   3.1274506e+00	   5.2579612e-01	   8.7077006e-01	
   5.5550000e+00	   2.6626363e+00	   7.1765217e-01	   8.6092788e-01	
   5.6100000e+00	   3.1040223e+00	   5.8704025e-01	   7.0582983e-01	
   5.6650000e+00	   2.6401871e+00	   6.6147427e-01	   7.8749134e-01	
   5.7200000e+00	   2.0890782e+00	   3.1194709e-01	   8.3910582e-01	
   5.7750000e+00	   2.8106008e+00	   5.9807731e-01	   3.6506721e-01	
   5.8300000e+00	   2.6167946e+00	   6.3391765e-01	   5.0199598e-01	
   5.8850000e+00	   2.2187670e+00	   5.2791158e-01	   5.5128133e-01	
   5.9400000e+00	   2.2934925e+00	   2.2694921e-01	   3.9671991e-01	
   5.9950000e+00	   2.0796159e+00	   2.8144082e-01	   4.6208690e-01	
   6.0500000e+00	   2.4622924e+00	   4.9790268e-01	   6.1916063e-01	
   6.1050000e+00	   2.5920810e+00	   5.7426112e-01	   1.0432277e+00	
   6.1600000e+00	   2.4874007e+00	   5.5655465e-01	   6.9168309e-01	
   6.2150000e+00	   2.8258861e+00	   8.1073519e-01	   7.5168358e-01	
   6.2700000e+00	   2.8363710e+00	   7.2529811e-01	   6.3490494e-01	
   6.3250000e+00	   2.6816956e+00	   5.5895032e-01	   7.0679417e-01	
   6.3800000e+00	   2.6012231e+00	   5.1252232e-01	   6.9356095e-01	
   6.4350000e+00	   2.5620079e+00	   6.0338757e-01	   6.9619938e-01	
   6.4900000e+00	   2.3777737e+00	   4.6913894e-01	   5.0547568e-01	
   6.5450000e+00	   2.1998719e+00	   3.0895072e-01	   2.5217458e-01	
   6.6000000e+00	   2.3960157e+00	   4.1251542e-01	   3.7445081e-01	
   6.6550000e+00	   2.5601778e+00	   3.6432851e-01	   2.9053863e-01	
   6.7100000e+00	   2.1108363e+00	   3.5123561e-01	   1.9689316e-01	
   6.7650000e+00	   2.3608972e+00	   2.6129812e-01	   5.0433735e-01	
   6.8200000e+00	   2.6000593e+00	   2.5373904e-01	   6.5983742e-01	
   6.8750000e+00	   2.7289497e+00	   4.4440199e-01	   6.2100912e-01	
   6.9300000e+00	   2.3750319e+00	   5.1779947e-01	   2.2407337e-01	
   6.9850000e+00	   2.5162643e+00	   4.2495511e-01	   6.9572332e-01	
   7.0400000e+00	   2.7965404e+00	   2.7268776e-01	   5.1818967e-01	
   7.0950000e+00	   2.6961350e+00	   3.5159871e-01	   5.9662082e-01	
   7.1500000e+00	   1.7641478e+00	   4.2468774e-01	   2.3768188e-01	
   7.2050000e+00	   1.9351437e+00	   1.7896363e-01	   3.8493153e-01	
   7.2600000e+00	   2.3753456e+00	   2.6129110e-01	   2.7760402e-01	
   7.3150000e+00	   2.5267269e+00	   2.4068582e-01	   1.1207511e-01	
   7.3700000e+00	   1.6659159e+00	   2.6076909e-01	   5.3268166e-03	
   7.4250000e+00	   2.1810178e+00	   2.6785498e-01	   5.2467250e-01	
   7.4800000e+00	   2.5136795e+00	   3.8177920e-01	   5.0151275e-01	
   7.5350000e+00	   2.1745710e+00	   4.4772311e-01	   5.2710258e-01	
   7.5900000e+00	   2.8382313e+00	   5.6259511e-01	   3.6708229e-01	
   7.6450000e+00	   2.4429424e+00	   2.1643964e-01	   6.8464975e-01	
   7.7000000e+00	   2.3750319e+00	   3.9425175e-01	   6.0552861e-01	
   7.7550000e+00	   2.2127558e+00	   5.3561014e-01	   3.2621508e-01	
   7.8100000e+00	   2.0745431e+00	   3.6459304e-01	   3.9923172e-01	
   7.8650000e+00	   1.7989920e+00	   2.2009012e-01	   3.1250453e-01	
   7.9200000e+00	   1.6124561e+00	   2.5943039e-04	   3.8716028e-01	
   7.9750000e+00	   2.5756463e+00	   1.8359890e-01	   1.1787834e-01	
   8.0300000e+00	   1.8494030e+00	   1.4886140e-01	   3.0761353e-01	
   8.0850000e+00	   2.6696522e+00	   2.5079235e-01	   6.5955875e-01	
   8.1400000e+00	   2.5239133e+00	   2.7284963e-01	   6.8819753e-01	
   8.1950000e+00	   2.1677229e+00	   3.8336752e-01	   6.6845906e-01	
   8.2500000e+00	   2.4879113e+00	   3.1119082e-01	   6.5268129e-01	
   8.3050000e+00	   2.3724638e+00	   3.5820639e-01	   8.0598772e-01	
   8.3600000e+00	   2.3914653e+00	   2.3524302e-01	   5.7469375e-01	
   8.4150000e+00	   2.3116088e+00	   4.0606521e-01	   4.0319210e-01	
   8.4700000e+00	   1.2905253e+00	   2.1222600e-01	   3.1276723e-01	
   8.5250000e+00	   1.1476883e+00	   2.9600945e-01	   5.7544739e-01	
   8.5800000e+00	   1.1652099e+00	   3.5895836e-02	   4.7179817e-01	
   8.6350000e+00	   6.5484075e-01	  -4.6150221e-02	   1.0580014e-01	
   8.6900000e+00	   9.1074239e-01	   1.4909558e-01	   3.7907919e-01	
   8.7450000e+00	   1.4398190e+00	   2.7995501e-01	   6.1785511e-01	
   8.8000000e+00	   1.5308212e+00	   1.9587974e-01	   6.9835926e-01	
   8.8550000e+00	   1.4351697e+00	   4.8445355e-01	   6.2159260e-01	
   8.9100000e+00	   1.4938537e+00	   3.6150096e-01	   4.7567247e-01	
   8.9650000e+00	   1.3132641e+00	   3.1667764e-01	   6.1365759e-01	
   9.0200000e+00	   1.1781040e+00	   1.5932475e-01	   8.1370937e-01	
   9.0750000e+00	   1.4124270e+00	   2.6759047e-01	   5.4845286e-01	
   9.1300000e+00	   1.4424297e+00	   1.8749594e-01	   6.2523950e-01	
   9.1850000e+00	   1.4303086e+00	   2.7380477e-01	   3.7530214e-01	
   9.2400000e+00	   1.7920216e+00	   3.1399070e-02	   5.8291639e-01	
   9.2950000e+00	   1.6569408e+00	   3.4968751e-01	   3.2430552e-01	
   9.3500000e+00	   2.0136326e+00	   2.7439706e-01	   7.4333905e-01	
   9.4050000e+00	   2.2479377e+00	   3.2731430e-01	   8.1311492e-01	
   9.4600000e+00	   1.8885984e+00	   4.1675387e-01	   9.8313958e-01	
   9.5150000e+00	   2.3019061e+00	   4.6873303e-01	   8.9141920e-01	
   9.5700000e+00	   1.7711823e+00	   5.3077885e-01	   7.0271235e-01	
   9.6250000e+00	   1.6805756e+00	   5.3383051e-01	   7.9473245e-01	
   9.6800000e+00	   1.5540903e+00	   2.2727831e-01	   8.0288848e-01	
   9.7350000e+00	   1.2449024e+00	   3.4315518e-01	   8.8689521e-01	
   9.7900000e+00	   1.2435777e+00	   2.0406863e-01	   6.7518268e-01	
   9.8450000e+00	   9.8454059e-01	   2.0512808e-01	   6.6583080e-01	
   9.9000000e+00	   1.1565534e+00	   1.1063780e-01	   5.5008656e-01	
   9.9550000e+00	   1.5331583e+00	   1.5317065e-01	   5.1077315e-01	
   1.0010000e+01	   1.7229346e+00	   3.1878635e-01	   8.8563880e-01	
   1.0065000e+01	   1.6089652e+00	   4.8775234e-01	   8.9759039e-01	
   1.0120000e+01	   1.4424297e+00	   5.8377082e-01	   1.1089423e+00	
   1.0175000e+01	   1.7547192e+00	   5.0151317e-01	   1.0645579e+00	
   1.0230000e+01	   1.5512454e+00	   6.4146590e-01	   1.0355316e+00	
   1.0285000e+01	   1.6497582e+00	   4.2514081e-01	   9.1296110e-01	
   1.0340000e+01	   5.6804621e-01	   3.7278972e-01	   8.6765544e-01	
   1.0395000e+01	   7.9348106e-01	   4.0745317e-01	   7.1336654e-01	
   1.0450000e+01	   1.3778285e+00	   6.2379349e-01	   6.6080217e-01	
   1.0505000e+01	   1.5381327e+00	   3.6787454e-01	   5.9734603e-01	
   1.0560000e+01	   1.4143517e+00	   4.0840815e-02	   6.1292350e-01	
   1.0615000e+01	   1.8800089e+00	   4.4561694e-01	   9.4830003e-01	
   1.0670000e+01	   2.0783629e+00	   6.5352473e-01	   1.1100107e+00	
   1.0725000e+01	   2.1853250e+00	   6.0469229e-01	   1.0001814e+00	
   1.0780000e+01	   1.9785954e+00	   4.3648995e-01	   1.2647417e+00	
   1.0835000e+01	   1.4780226e+00	   5.9072167e-01	   9.8395324e-01	
   1.0890000e+01	   1.2628909e+00	   6.7272679e-01	   8.9049001e-01	
   1.0945000e+01	   1.1178292e+00	   4.6289456e-01	   9.3953695e-01	
   1.1000000e+01	   1.1651521e+00	   4.8509231e-01	   8.7064715e-01	
   1.1055000e+01	   1.6618415e+00	   3.8065913e-01	   8.1214831e-01	
   1.1110000e+01	   1.7533250e+00	   4.2277582e-01	   5.7719787e-01	
   1.1165000e+01	   1.2886366e+00	   4.0574290e-01	   5.8038253e-01	
   1.1220000e+01	   2.2458344e+00	   3.5093119e-01	   9.2761671e-01	
   1.1275000e+01	   2.2669391e+00	   5.8067519e-01	   1.2000662e+00	
   1.1330000e+01	   2.1328953e+00	   5.6823898e-01	   1.0273265e+00	
   1.1385000e+01	   2.2623141e+00	   5.2579029e-01	   1.0325518e+00	
   1.1440000e+01	   2.3385363e+00	   5.1052484e-01	   1.1306220e+00	
   1.1495000e+01	   1.9099031e+00	   6.3033256e-01	   8.9061943e-01	
   1.1550000e+01	   1.5147602e+00	   6.3685323e-01	   5.9263905e-01	
   1.1605000e+01	   1.6431843e+00	   4.9753168e-01	   8.0656266e-01	
   1.1660000e+01	   1.7080506e+00	   4.1137954e-01	   7.6979368e-01	
   1.1715000e+01	   1.9906704e+00	   4.7538652e-01	   6.5359382e-01	
   1.1770000e+01	   1.6709908e+00	   4.4420513e-01	   5.4212814e-01	
   1.1825000e+01	   1.6720645e+00	   3.1732861e-01	   8.6535058e-01	
   1.1880000e+01	   2.0891153e+00	   5.0242821e-01	   1.1176797e+00	
   1.1935000e+01	   2.5132234e+00	   5.8930605e-01	   8.9031767e-01	
   1.1990000e+01	   2.5818592e+00	   6.9810923e-01	   1.0407443e+00	
   1.2045000e+01	   1.6752562e+00	   7.2293840e-01	   1.0646647e+00	
   1.2100000e+01	   1.7919675e+00	   4.1757769e-01	   1.0284255e+00	
   1.2155000e+01	   1.6646084e+00	   6.2457618e-01	   8.7998118e-01	
   1.2210000e+01	   1.8843035e+00	   4.9649544e-01	   9.4852461e-01	
   1.2265000e+01	   1.4607723e+00	   4.9756785e-01	   7.9240281e-01	
   1.2320000e+01	   1.4356507e+00	   3.7129875e-01	   7.6582482e-01	
   1.2375000e+01	   1.7700718e+00	   2.5571470e-01	   6.0393749e-01	
   1.2430000e+01	   1.0899953e+00	   4.3971280e-01	   5.3945992e-01	
   1.2485000e+01	   1.2718513e+00	   2.9375427e-01	   8.2214417e-01	
   1.2540000e+01	   1.6734677e+00	   5.3032614e-01	   9.2109455e-01	
   1.2595000e+01	   2.0512183e+00	   5.4885128e-01	   1.0789784e+00	
   1.2650000e+01	   2.0637303e+00	   6.9974793e-01	   1.0221874e+00	
   1.2705000e+01	   1.7236321e+00	   6.5977629e-01	   8.8333039e-01	
   1.2760000e+01	   1.7644267e+00	   5.4604778e-01	   1.0667508e+00	
   1.2815000e+01	   2.1355588e+00	   6.4236028e-01	   9.7373499e-01	
   1.2870000e+01	   1.8135399e+00	   5.8197427e-01	   6.8489161e-01	
   1.2925000e+01	   2.1283350e+00	   4.6411893e-01	   6.4835067e-01	
   1.2980000e+01	   1.6493258e+00	   3.8360104e-01	   8.5833273e-01	
   1.3035000e+01	   1.5649709e+00	   4.2344486e-01	   5.7392450e-01	
   1.3090000e+01	   1.5008767e+00	   3.7035138e-01	   4.8979675e-01	
   1.3145000e+01	   1.5872255e+00	   5.2386214e-01	   7.4192026e-01	
   1.3200000e+01	   1.5709585e+00	   3.5866224e-01	   8.1985627e-01	
   1.3255000e+01	   1.9409839e+00	   6.5775949e-01	   9.5237615e-01	
   1.3310000e+01	   2.2281472e+00	   5.2410906e-01	   8.6426194e-01	
   1.3365000e+01	   2.2526979e+00	   4.5905685e-01	   1.0877489e+00	
   1.3420000e+01	   2.0168207e+00	   5.2691335e-01	   8.1014482e-01	
   1.3475000e+01	   1.8884300e+00	   5.3691097e-01	   8.4697210e-01	
   1.3530000e+01	   1.4391490e+00	   5.9509934e-01	   5.5329847e-01	
   1.3585000e+01	   1.5425346e+00	   4.8234272e-01	   5.8877798e-01	
   1.3640000e+01	   1.8045083e+00	   2.2449319e-01	   7.0895188e-01	
   1.3695000e+01	   1.7672813e+00	   3.1151095e-01	   6.3901111e-01	
   1.3750000e+01	   1.6527266e+00	   3.3801032e-01	   3.9218023e-01	
   1.3805000e+01	   1.2907680e+00	   2.7705175e-01	   5.3706041e-01	
   1.3860000e+01	   1.4164174e+00	   1.5870428e-01	   8.2288652e-01	
   1.3915000e+01	   2.2692955e+00	   5.0907557e-01	   7.6511562e-01	
   1.3970000e+01	   2.3555361e+00	   5.3372183e-01	   8.6916758e-01	
   1.4025000e+01	   2.2921054e+00	   5.6087069e-01	   7.0722241e-01	
   1.4080000e+01	   2.0890782e+00	   5.6720937e-01	   8.8987114e-01	
   1.4135000e+01	   2.2252761e+00	   6.3433148e-01	   9.6296861e-01	
   1.4190000e+01	   2.0384743e+00	   6.4094540e-01	   8.4804593e-01	
   1.4245000e+01	   1.7489447e+00	   6.9547508e-01	   6.8463980e-01	
   1.4300000e+01	   1.4346864e+00	   4.2360470e-01	   7.1559237e-01	
   1.4355000e+01	   1.8028302e+00	   3.5169673e-01	   7.0573248e-01	
   1.4410000e+01	   1.5346941e+00	   3.9099959e-01	   4.9015307e-01	
   1.4465000e+01	   1.4576339e+00	   4.3781165e-01	   5.6479726e-01	
   1.4520000e+01	   1.3669715e+00	   1.7916401e-01	   4.3183169e-01	
   1.4575000e+01	   1.1070064e+00	   2.5584454e-01	   3.9935282e-01	
   1.4630000e+01	   1.8661396e+00	   4.8122976e-01	   3.6066167e-01	
   1.4685000e+01	   1.7631445e+00	   4.6946550e-01	   6.8489328e-01	
   1.4740000e+01	   2.0217731e+00	   4.1375334e-01	   1.0360869e+00	
   1.4795000e+01	   2.4204484e+00	   5.4123575e-01	   7.8184103e-01	
   1.4850000e+01	   2.2141220e+00	   5.5451326e-01	   5.0600461e-01	
   1.4905000e+01	   2.1652369e+00	   5.0757590e-01	   7.7767473e-01	
   1.4960000e+01	   2.1332433e+00	   4.9279811e-01	   7.8431436e-01	
   1.5015000e+01	   2.3051366e+00	   3.5770987e-01	   7.0503856e-01	
   1.5070000e+01	   2.0927224e+00	   4.1107254e-01	   5.0968870e-01	
   1.5125000e+01	   1.8716406e+00	   4.2796552e-01	   5.4806372e-01	
   1.5180000e+01	   1.8307582e+00	   5.5731731e-01	   5.6563702e-01	
   1.5235000e+01	   1.5209715e+00	   3.3617139e-01	   4.2683201e-01	
   1.5290000e+01	   1.4757893e+00	   4.4486619e-01	   1.2710729e-01	
   1.5345000e+01	   1.6569408e+00	   3.3043610e-01	   2.1388173e-01	
   1.5400000e+01	   1.4078119e+00	   2.2423773e-01	   2.6081441e-01	
   1.5455000e+01	   1.9746245e+00	   4.0440077e-01	   4.9904672e-01	
   1.5510000e+01	   1.8839422e+00	   4.8331058e-01	   2.8634545e-01	
   1.5565000e+01	   2.1104008e+00	   6.0696128e-01	   5.6823233e-01	
   1.5620000e+01	   1.9491995e+00	   4.9464355e-01	   6.3470314e-01	
   1.5675000e+01	   2.2733517e+00	   4.2072802e-01	   5.7955141e-01	
   1.5730000e+01	   1.9427062e+00	   4.8172912e-01	   4.9163443e-01	
   1.5785000e+01	   1.8839422e+00	   4.9279811e-01	   5.0727286e-01	
   1.5840000e+01	   2.0477504e+00	   3.6804115e-01	   4.3618825e-01	
   1.5895000e+01	   2.1716965e+00	   4.1360793e-01	   4.8104230e-01	
   1.5950000e+01	   1.6709553e+00	   4.9604716e-01	   1.9316111e-01	
   1.6005000e+01	   1.4117707e+00	   4.4164246e-01	   2.5145812e-01	
   1.6060000e+01	   1.5892783e+00	  -2.6459009e-02	  -3.1552055e-02	
   1.6115000e+01	   1.3536947e+00	   1.5476545e-01	   6.5081566e-02	
   1.6170000e+01	   1.1196042e+00	   1.5737653e-01	  -7.7747901e-02	
   1.6225000e+01	   1.0392219e+00	   1.7153156e-01	   2.8684997e-01	
   1.6280000e+01	   2.0855194e+00	   2.3879457e-01	   3.4042191e-01	
   1.6335000e+01	   1.8559193e+00	   3.6140603e-01	   4.6406939e-01	
   1.6390000e+01	   1.7733980e+00	   4.3790719e-01	   4.1595935e-01	
   1.6445000e+01	   1.8372698e+00	   4.8637204e-01	   3.3233485e-01	
   1.6500000e+01	   1.7131510e+00	   4.0883999e-01	   4.5258484e-01	
   1.6555000e+01	   1.7765168e+00	   3.3553905e-01	   3.0419000e-01	
   1.6610000e+01	   1.7220852e+00	   5.2660932e-01	   2.2013504e-01	
   1.6665000e+01	   1.7820395e+00	   3.5756589e-01	  -2.9498394e-03	
   1.6720000e+01	   1.2032578e+00	   1.6852185e-01	  -8.0592670e-02	
   1.6775000e+01	   1.6252962e+00	   1.5753989e-01	   1.1447770e-02	
   1.6830000e+01	   1.0683443e+00	   1.8953310e-01	  -3.5615861e-01	
   1.6885000e+01	   1.1358660e+00	   7.2101035e-02	  -1.7883413e-01	
   1.6940000e+01	   1.7411571e+00	  -2.0900735e-03	   3.0789147e-01	
   1.6995000e+01	   2.1457335e+00	   2.0746799e-01	   5.5972273e-02	
   1.7050000e+01	   2.2159890e+00	   4.5418024e-01	   1.2536363e-01	
   1.7105000e+01	   1.8383202e+00	   3.7636572e-01	   1.7929102e-01	
   1.7160000e+01	   1.8099694e+00	   2.8504946e-01	   2.8256981e-01	
   1.7215000e+01	   1.7083374e+00	   3.1436066e-01	  -6.1635110e-02	
   1.7270000e+01	   1.5023465e+00	   4.0287653e-01	  -1.9244608e-01	
   1.7325000e+01	   1.4474797e+00	   1.6421339e-01	  -1.0268658e-01	
   1.7380000e+01	   1.3438657e+00	   6.6966934e-02	  -6.5495550e-02	
   1.7435000e+01	   1.4438625e+00	   5.5666610e-02	  -2.4523416e-01	
   1.7490000e+01	   1.6383259e+00	  -1.1459038e-02	  -3.7677581e-01	
   1.7545000e+01	   6.5866709e-01	  -1.9556829e-03	  -2.8452334e-01	
   1.7600000e+01	   1.0878732e+00	  -2.3255776e-01	  -2.9890711e-01	
   1.7655000e+01	   1.3722546e+00	  -1.3477523e-01	  -4.4332227e-01	
   1.7710000e+01	   1.8775380e+00	   4.9141380e-02	  -4.0808496e-03	
   1.7765000e+01	   1.4876034e+00	   1.8775921e-01	  -2.5964820e-02	
   1.7820000e+01	   1.7172297e+00	   2.1371287e-01	   6.2201603e-02	
   1.7875000e+01	   2.1801372e+00	   2.3759355e-01	   7.8019569e-02	
   1.7930000e+01	   2.0027737e+00	   2.7912024e-01	  -9.0255504e-02	
   1.7985000e+01	   1.8796480e+00	   2.7821915e-01	   1.9300765e-01	
   1.8040000e+01	   1.3364361e+00	   3.0232081e-01	   1.5423052e-01	
   1.8095000e+01	   1.6533385e+00	   1.8439149e-01	  -3.3704956e-02	
   1.8150000e+01	   1.6667371e+00	   2.3407205e-01	  -2.1322478e-01	
   1.8205000e+01	   1.2385288e+00	   9.3492179e-02	  -3.2791373e-01	
   1.8260000e+01	   1.1303716e+00	  -2.0379709e-02	  -3.1370482e-01	
   1.8315000e+01	   1.3080540e+00	   1.6136639e-02	  -2.5283644e-01	
   1.8370000e+01	   1.2772264e+00	  -6.6175191e-02	  -6.1579132e-01	
   1.8425000e+01	   1.0261993e+00	   1.1965255e-02	  -5.6824251e-01	
   1.8480000e+01	   1.0526682e+00	  -4.0925824e-01	  -5.0047380e-01	
   1.8535000e+01	   1.5936213e+00	  -1.0775939e-01	  -1.1412871e-01	
   1.8590000e+01	   1.6076517e+00	   9.1141705e-02	  -3.2197561e-01	
   1.8645000e+01	   1.7774437e+00	   2.8844909e-01	   5.9076037e-02	
   1.8700000e+01	   1.6847622e+00	   1.1861045e-01	   9.3022320e-03	
   1.8755000e+01	   1.8650560e+00	   1.3013358e-01	   6.4927270e-02	
   1.8810000e+01	   1.6809150e+00	   3.6388824e-01	  -7.5174970e-02	
   1.8865000e+01	   1.6395420e+00	   9.5540401e-02	  -9.4673866e-02	
   1.8920000e+01	   1.9938656e+00	  -1.3210424e-02	  -1.5082684e-02	
   1.8975000e+01	   1.6402321e+00	   6.6633517e-02	  -1.4175816e-01	
   1.9030000e+01	   1.4255427e+00	   2.0996238e-01	  -3.3770496e-01	
   1.9085000e+01	   1.5440895e+00	   1.5036550e-01	  -4.0926254e-01	
   1.9140000e+01	   9.0499559e-01	  -9.6441828e-02	  -3.5604721e-01	
   1.9195000e+01	   1.0417892e+00	  -9.9391189e-02	  -6.6546409e-01	
   1.9250000e+01	   1.2881672e+00	  -3.6271941e-01	  -5.4386858e-01	
   1.9305000e+01	   1.0953331e+00	  -2.8063999e-01	  -4.8077394e-01	
   1.9360000e+01	   1.3203818e+00	  -9.0622503e-02	   6.7254681e-03	
   1.9415000e+01	   1.8099694e+00	  -7.1105970e-03	  -2.8858156e-02	
   1.9470000e+01	   1.9013784e+00	   3.8686060e-01	  -1.7085967e-01	
   1.9525000e+01	   1.6946923e+00	   7.1328957e-02	  -5.3445287e-02	
   1.9580000e+01	   1.8280118e+00	   1.1916481e-01	   1.2119309e-01	
   1.9635000e+01	   1.6913680e+00	   1.2723836e-01	  -2.0216199e-01	
   1.9690000e+01	   1.4530656e+00	   9.3172184e-02	  -3.6647016e-01	
   1.9745000e+01	   1.3030253e+00	   5.7267608e-02	  -2.2079753e-01	
   1.9800000e+01	   1.0308322e+00	  -2.0037201e-01	  -3.1752708e-01	
   1.9855000e+01	   1.5074494e+00	  -1.2704609e-01	  -8.9441683e-02	
   1.9910000e+01	   1.1955915e+00	   4.9631582e-02	  -4.4036226e-01	
   1.9965000e+01	   1.1196042e+00	  -7.1867411e-02	  -4.6599803e-01	
   2.0020000e+01	   6.3634671e-01	  -2.8065629e-01	  -5.3626330e-01	
   2.0075000e+01	   1.1600507e+00	  -3.8392329e-01	  -2.1707615e-01	
   2.0130000e+01	   1.1796437e+00	  -1.6381034e-01	  -3.2073909e-01	
   2.0185000e+01	   1.7909436e+00	   1.7365555e-01	  -1.9130886e-01	
   2.0240000e+01	   1.5982726e+00	  -7.4877359e-02	   3.4446910e-02	
   2.0295000e+01	   1.7128465e+00	   1.4240854e-01	  -2.0358575e-01	
   2.0350000e+01	   1.7368271e+00	   5.1238124e-02	  -1.8191216e-01	
   2.0405000e+01	   1.4614379e+00	   4.2803563e-02	  -1.4577227e-01	
   2.0460000e+01	   1.4796349e+00	  -2.1351987e-01	  -9.3568460e-02	
   2.0515000e+01	   1.1955915e+00	   3.2872900e-02	  -2.2394656e-01	
   2.0570000e+01	   1.3080540e+00	  -4.5251131e-02	  -3.5018521e-01	
   2.0625000e+01	   1.3637819e+00	   9.1277470e-02	  -6.3872642e-01	
   2.0680000e+01	   1.1144389e+00	  -2.0345028e-01	  -4.9111580e-01	
   2.0735000e+01	   8.7649576e-01	  -1.5565448e-01	  -5.7891494e-01	
   2.0790000e+01	   1.2727153e+00	  -1.8918042e-01	  -2.9918406e-01	
   2.0845000e+01	   1.4712032e+00	  -6.7847115e-02	  -3.1171835e-01	
   2.0900000e+01	   1.6032715e+00	  -1.6306571e-01	  -1.0427381e-01	
   2.0955000e+01	   1.7311669e+00	   9.0097348e-02	   2.1034520e-02	
   2.1010000e+01	   1.4244476e+00	   1.2230779e-01	  -2.9930443e-01	
   2.1065000e+01	   1.6167725e+00	   8.4701349e-02	  -1.4072528e-01	
   2.1120000e+01	   1.6172045e+00	   4.4693844e-02	  -1.6704108e-01	
   2.1175000e+01	   1.4337213e+00	   8.5764859e-03	  -1.6579228e-01	
   2.1230000e+01	   1.5028390e+00	  -1.1530129e-01	  -4.7543018e-01	
   2.1285000e+01	   1.3625050e+00	  -1.3381809e-01	  -4.2844086e-01	
   2.1340000e+01	   1.0823221e+00	  -2.5352923e-01	  -5.4689193e-01	
   2.1395000e+01	   1.4300573e+00	  -3.7538170e-01	  -4.3425504e-01	
   2.1450000e+01	   1.0792437e+00	  -1.7440608e-01	  -4.8434847e-01	
   2.1505000e+01	   1.0897519e+00	  -1.8670758e-01	  -1.5509197e-01	
   2.1560000e+01	   1.5119978e+00	  -1.4915573e-02	  -1.4656129e-01	
   2.1615000e+01	   1.7953304e+00	  -1.8086641e-02	   7.6596711e-03	
   2.1670000e+01	   1.8015221e+00	   7.6554671e-02	  -2.5668117e-01	
   2.1725000e+01	   1.3794079e+00	   7.2764458e-02	  -2.3758105e-01	
   2.1780000e+01	   1.1921535e+00	  -1.4221722e-02	  -1.8396601e-01	
   2.1835000e+01	   1.4936238e+00	  -4.0111538e-02	  -1.2663795e-01	
   2.1890000e+01	   1.5709585e+00	  -8.2654011e-02	  -3.2279446e-01	
   2.1945000e+01	   1.0362286e+00	  -4.8512446e-02	  -3.6791049e-01	
   2.2000000e+01	   1.5296947e+00	  -1.7483733e-02	  -2.1084102e-01	
   2.2055000e+01	   1.1196042e+00	  -2.1359655e-01	  -3.6042570e-01	
   2.2110000e+01	   1.1426528e+00	  -3.6338550e-01	  -5.0379842e-01	
   2.2165000e+01	   7.4082507e-01	  -2.2401729e-01	  -7.5864227e-01	
   2.2220000e+01	   8.9436472e-01	  -3.1813423e-01	  -3.0488587e-01	
   2.2275000e+01	   1.6667371e+00	  -4.3856875e-02	  -4.1361599e-02	
   2.2330000e+01	   1.8905831e+00	  -9.1340312e-03	   1.3629842e-01	
   2.2385000e+01	   1.9652291e+00	   2.4317767e-01	  -9.1651046e-02	
   2.2440000e+01	   1.2132579e+00	  -1.5396144e-01	   1.0167288e-01	
   2.2495000e+01	   1.3332630e+00	  -2.2825618e-01	   4.4075217e-02	
   2.2550000e+01	   1.9409839e+00	   5.0629873e-02	  -2.6880284e-01	
   2.2605000e+01	   1.3846603e+00	   1.7934206e-01	  -2.0051662e-01	
   2.2660000e+01	   1.5300761e+00	  -8.7757756e-02	  -3.1126322e-02	
   2.2715000e+01	   1.7571093e+00	  -1.8723849e-01	  -1.9927322e-01	
   2.2770000e+01	   1.4720221e+00	  -5.8358330e-02	  -3.8655615e-01	
   2.2825000e+01	   1.3624698e+00	  -8.4661826e-02	  -2.9751061e-01	
   2.2880000e+01	   9.2881233e-01	  -2.2246211e-01	  -2.5478685e-01	
   2.2935000e+01	   9.9951500e-01	  -2.5773604e-01	  -2.7749020e-01	
   2.2990000e+01	   1.7695345e+00	  -2.6486285e-01	  -2.3425795e-01	
   2.3045000e+01	   1.6349101e+00	  -1.7942210e-01	   1.7440885e-02	
   2.3100000e+01	   1.7765168e+00	  -1.4773667e-01	   1.3269026e-01	
   2.3155000e+01	   1.8921032e+00	   2.2442863e-02	   6.4663338e-02	
   2.3210000e+01	   1.9000133e+00	   1.4484570e-01	  -2.0636427e-02	
   2.3265000e+01	   1.7581096e+00	   1.5423554e-01	   1.5727878e-01	
   2.3320000e+01	   1.6026065e+00	  -7.6227642e-02	   1.5272905e-01	
   2.3375000e+01	   1.6659159e+00	   1.4864940e-01	   7.9054741e-02	
   2.3430000e+01	   1.3450099e+00	   1.2071157e-02	  -6.7864822e-02	
   2.3485000e+01	   1.2905253e+00	  -1.0930743e-01	  -9.9377294e-02	
   2.3540000e+01	   9.3477152e-01	  -1.4138741e-01	   1.7646701e-02	
   2.3595000e+01	   1.3221092e+00	  -2.0290659e-01	  -1.6842432e-01	
   2.3650000e+01	   1.3710618e+00	  -1.2333053e-01	  -3.3846438e-01	
   2.3705000e+01	   7.6696609e-01	  -1.8942780e-01	  -4.1658303e-01	
   2.3760000e+01	   7.3841707e-01	  -2.5452857e-01	  -4.2116733e-01	
   2.3815000e+01	   8.7881443e-01	  -4.6051976e-01	  -1.4854051e-01	
   2.3870000e+01	   1.9947675e+00	  -6.3957812e-02	  -5.9609465e-02	
   2.3925000e+01	   1.8754799e+00	   4.7571995e-02	  -1.3536871e-01	
   2.3980000e+01	   1.6445478e+00	  -3.8322615e-02	   1.3663567e-01	
   2.4035000e+01	   1.7774959e+00	   4.4862905e-02	   1.3246204e-01	
   2.4090000e+01	   1.7581096e+00	   1.1514139e-01	  -1.0453008e-02	
   2.4145000e+01	   1.0571263e+00	   2.2191582e-01	  -1.8629466e-01	
   2.4200000e+01	   1.4672854e+00	   1.4031865e-02	  -1.5425878e-01	
   2.4255000e+01	   1.4171874e+00	  -1.6431167e-01	  -1.7536746e-01	
   2.4310000e+01	   1.4668435e+00	   2.3735844e-02	  -2.3560067e-01	
   2.4365000e+01	   1.1741357e+00	   2.4982023e-02	  -2.8637227e-01	
   2.4420000e+01	   9.9086667e-01	  -1.4812693e-01	  -2.8652307e-01	
   2.4475000e+01	   1.5410660e+00	  -2.0846122e-01	  -1.5751058e-01	
   2.4530000e+01	   9.1591692e-01	   3.0942801e-02	  -4.6448738e-01	
   2.4585000e+01	   9.1727501e-01	  -3.0962550e-01	  -5.9349698e-01	
   2.4640000e+01	   9.9086667e-01	  -3.9989677e-01	  -3.7829947e-01	
   2.4695000e+01	   1.2540573e+00	  -2.3251128e-01	  -2.6276167e-02	
   2.4750000e+01	   1.3805844e+00	   8.5723425e-03	   5.3465416e-02	
   2.4805000e+01	   1.3385255e+00	   6.4749182e-02	  -1.4584824e-01	
   2.4860000e+01	   1.1977342e+00	  -3.6570281e-02	   4.3362955e-02	
   2.4915000e+01	   1.7434856e+00	   9.4205390e-02	   2.4641923e-01	
   2.4970000e+01	   1.6847600e+00	   2.1262541e-01	  -8.3483479e-02	
   2.5025000e+01	   1.0739924e+00	  -4.6489994e-02	  -1.7164301e-01	
   2.5080000e+01	   1.2323547e+00	  -2.1285492e-01	   7.9761830e-03	
   2.5135000e+01	   1.0792437e+00	  -2.2477281e-01	  -2.3093736e-01	
   2.5190000e+01	   1.0930287e+00	   1.6204438e-02	  -6.2425757e-01	
   2.5245000e+01	   6.8717862e-01	  -1.2869530e-01	  -4.3719600e-01	
   2.5300000e+01	   7.6057267e-01	  -7.0267887e-02	  -4.4609597e-01	
   2.5355000e+01	   6.8078520e-01	  -1.5268102e-01	  -2.0679979e-01	
   2.5410000e+01	   1.3309719e+00	  -1.1971826e-01	  -1.7102222e-01	
   2.5465000e+01	   1.5936213e+00	   8.3954024e-03	  -2.2673588e-01	
   2.5520000e+01	   1.4303628e+00	  -2.2510451e-02	   1.7627544e-01	
   2.5575000e+01	   1.3709762e+00	  -1.9100898e-02	  -9.5027456e-02	
   2.5630000e+01	   1.4759493e+00	   1.1138906e-01	  -2.4247448e-01	
   2.5685000e+01	   1.5346941e+00	   2.7882234e-01	  -2.1703245e-01	
   2.5740000e+01	   1.4799894e+00	   1.5697417e-01	  -1.8562392e-01	
   2.5795000e+01	   1.1740082e+00	   2.3973457e-02	  -2.4174968e-01	
   2.5850000e+01	   1.2820437e+00	  -9.2590218e-02	  -3.0414763e-01	
   2.5905000e+01	   9.4020056e-01	  -2.6066244e-02	  -3.9018185e-01	
   2.5960000e+01	   8.4634572e-01	  -2.4582627e-01	  -3.7829067e-01	
   2.6015000e+01	   5.6501121e-01	  -2.7862403e-01	  -5.5427022e-01	
   2.6070000e+01	   1.1649731e+00	  -6.3561608e-02	  -4.2317670e-01	
   2.6125000e+01	   1.1037185e+00	   5.7746070e-02	  -8.8359945e-02	
   2.6180000e+01	   1.2301391e+00	   1.4036308e-02	  -7.2900724e-02	
   2.6235000e+01	   1.2740066e+00	   8.5658249e-02	   1.3269026e-01	
   2.6290000e+01	   1.1246083e+00	   1.8942606e-01	  -5.2832192e-02	
   2.6345000e+01	   1.7631445e+00	   2.7446945e-01	  -1.5859734e-01	
   2.6400000e+01	   1.2385288e+00	   1.1573145e-01	  -7.3192575e-02	
   2.6455000e+01	   1.5754887e+00	  -7.3473126e-02	  -9.5152459e-02	
   2.6510000e+01	   1.4166330e+00	   9.1571097e-02	  -2.3533368e-01	
   2.6565000e+01	   1.3351729e+00	  -5.6853881e-03	  -3.6357541e-01	
   2.6620000e+01	   8.4804499e-01	   1.3845651e-01	  -3.1148462e-01	
   2.6675000e+01	   1.0561115e+00	   2.8967377e-03	  -1.2222174e-01	
   2.6730000e+01	   1.0209679e+00	   1.1504565e-02	  -6.2391840e-01	
   2.6785000e+01	   1.2817024e+00	  -7.7299650e-02	  -7.7493049e-01	
   2.6840000e+01	   6.1702139e-01	  -1.2645182e-01	  -5.5634432e-01	
   2.6895000e+01	   8.7365875e-01	  -3.1836893e-01	  -2.6830200e-01	
   2.6950000e+01	   1.4983099e+00	   1.8091973e-03	  -2.6117828e-01	
   2.7005000e+01	   1.4337213e+00	   2.3840362e-01	  -1.5494342e-01	
   2.7060000e+01	   1.5662337e+00	   1.5934607e-01	   2.1694909e-01	
   2.7115000e+01	   1.2282697e+00	   2.5596207e-01	   3.1466217e-01	
   2.7170000e+01	   1.5383824e+00	   2.9662057e-01	   5.3057895e-02	
   2.7225000e+01	   1.1474615e+00	   3.8222118e-01	   2.5981450e-02	
   2.7280000e+01	   1.4699182e+00	   3.3594621e-01	   1.8115895e-01	
   2.7335000e+01	   1.5994376e+00	   1.0490978e-01	   8.9055860e-02	
   2.7390000e+01	   1.1895194e+00	   5.9162380e-02	  -1.9455535e-01	
   2.7445000e+01	   1.0069784e+00	   1.8625208e-01	  -2.3414059e-01	
   2.7500000e+01	   1.1124671e+00	   4.0268101e-02	  -2.2452812e-01	
   2.7555000e+01	   1.2491343e+00	   9.5212938e-02	  -4.3787034e-01	
   2.7610000e+01	   1.0186032e+00	  -1.0147052e-01	  -5.4572786e-01	
   2.7665000e+01	   4.6174099e-01	  -9.7880366e-02	  -4.2261480e-01	
   2.7720000e+01	   6.6876937e-01	  -1.3984895e-01	  -4.8434847e-01	
   2.7775000e+01	   8.6212181e-01	  -1.4097156e-01	  -1.1187776e-01	
   2.7830000e+01	   1.4117707e+00	   1.2194722e-01	  -5.5208327e-02	
   2.7885000e+01	   1.4699182e+00	   9.0010420e-02	   3.2331185e-02	
   2.7940000e+01	   1.1682584e+00	   1.9829165e-01	   1.5608211e-01	
   2.7995000e+01	   9.6631215e-01	   2.2619122e-03	   2.1102451e-01	
   2.8050000e+01	   1.8188571e+00	   2.3365569e-01	  -5.9226190e-02	
   2.8105000e+01	   1.6030848e+00	   2.1404549e-01	   1.4116249e-01	
   2.8160000e+01	   9.7169010e-01	   2.5792754e-01	   3.2331185e-02	
   2.8215000e+01	   1.5574243e+00	   1.5034680e-01	   1.2795271e-01	
   2.8270000e+01	   9.5159473e-01	   1.3396911e-01	   1.6877469e-01	
   2.8325000e+01	   5.7128934e-01	   2.2727471e-01	  -1.6020609e-01	
   2.8380000e+01	   9.0499559e-01	   1.0181724e-02	   1.8916883e-02	
   2.8435000e+01	   1.5720189e+00	  -1.4870308e-01	  -2.5613510e-02	
   2.8490000e+01	   1.4127012e+00	  -1.1729964e-01	  -3.1755877e-01	
   2.8545000e+01	   1.0253303e+00	  -1.3311510e-01	  -4.3142622e-01	
   2.8600000e+01	   7.8931021e-01	  -2.2635160e-01	  -1.5699917e-01	
   2.8655000e+01	   1.4386225e+00	  -4.1332831e-01	  -3.4565823e-01	
   2.8710000e+01	   1.3080540e+00	   1.1428907e-01	  -1.6617265e-01	
   2.8765000e+01	   1.7032715e+00	   1.4294162e-01	   1.7432071e-02	
   2.8820000e+01	   1.4917157e+00	   3.5395497e-03	   9.5648928e-04	
   2.8875000e+01	   1.9988791e+00	  -1.6009229e-02	   1.7419639e-01	
   2.8930000e+01	   1.6079887e+00	   3.3218744e-01	  -6.5439441e-02	
   2.8985000e+01	   1.4746920e+00	   1.1648455e-01	  -6.0804862e-02	
   2.9040000e+01	   1.7765168e+00	   7.5767044e-02	   1.1825830e-02	
   2.9095000e+01	   1.4892816e+00	   5.6848218e-02	   5.2660365e-03	
   2.9150000e+01	   1.4711910e+00	   1.0567498e-01	   3.0034043e-02	
   2.9205000e+01	   1.4127012e+00	   6.3355678e-02	  -2.4685366e-01	
   2.9260000e+01	   1.1489865e+00	  -1.4627318e-01	  -2.3874452e-01	
   2.9315000e+01	   1.2184645e+00	  -9.4304999e-02	  -2.7540984e-01	
   2.9370000e+01	   1.1196042e+00	  -7.2097662e-02	  -4.4540894e-01	
   2.9425000e+01	   8.2554326e-01	  -1.0568052e-01	  -3.8490354e-01	
   2.9480000e+01	   9.7207202e-01	  -1.5942240e-01	  -3.4049690e-01	
   2.9535000e+01	   1.4255427e+00	  -1.4706190e-01	   1.8523479e-01	
   2.9590000e+01	   1.7631445e+00	   1.2827456e-01	   1.4047245e-01	
   2.9645000e+01	   1.5568996e+00	   1.9328335e-01	  -3.8694413e-03	
   2.9700000e+01	   1.3248321e+00	  -5.3017350e-02	   2.4134553e-02	
   2.9755000e+01	   1.5392806e+00	   1.1432350e-01	  -1.1656260e-01	
   2.9810000e+01	   1.4665134e+00	   1.7690977e-01	   9.8395059e-02	
   2.9865000e+01	   1.2491343e+00	   5.4660331e-02	  -1.0212239e-01	
   2.9920000e+01	   1.2272665e+00	  -1.4321197e-01	  -8.6718000e-02	
   2.9975000e+01	   1.3492502e+00	  -3.0844976e-01	  -1.5114770e-01	
   3.0030000e+01	   1.2501648e+00	  -2.5660148e-01	  -2.0412949e-01	
   3.0085000e+01	   1.0084936e+00	  -1.7454515e-01	  -2.1209386e-01	
   3.0140000e+01	   8.5201208e-01	  -2.3274989e-01	  -5.8331194e-01	
   3.0195000e+01	   1.0035341e+00	  -3.3119083e-01	  -2.4823704e-01	
   3.0250000e+01	   1.2540573e+00	  -6.7698558e-02	  -9.6785636e-02	
   3.0305000e+01	   1.8307582e+00	   2.1874267e-02	   1.2998403e-02	
   3.0360000e+01	   1.9437119e+00	  -1.2423257e-01	  -9.0201055e-02	
   3.0415000e+01	   1.4387525e+00	  -1.6501240e-01	   1.5805068e-01	
   3.0470000e+01	   1.5528802e+00	  -8.5785814e-02	   3.3735621e-02	
   3.0525000e+01	   1.4803519e+00	   8.4642698e-02	  -4.6864176e-02	
   3.0580000e+01	   1.1037185e+00	   2.3419878e-02	   4.6930394e-02	
   3.0635000e+01	   1.4529648e+00	  -1.3596291e-01	  -4.6364703e-02	
   3.0690000e+01	   1.4171874e+00	  -7.6735324e-02	  -1.2295283e-01	
   3.0745000e+01	   1.2054197e+00	  -1.2294567e-01	  -3.9328090e-01	
   3.0800000e+01	   1.2636094e+00	  -2.7478376e-01	  -2.4575011e-01	
   3.0855000e+01	   8.6547892e-01	  -3.8487214e-01	  -1.9939312e-01	
   3.0910000e+01	   1.3440165e+00	  -2.5907299e-01	  -5.3371473e-01	
   3.0965000e+01	   7.4082507e-01	  -4.1687689e-01	  -5.1307365e-01	
   3.1020000e+01	   1.3985294e+00	  -2.3908270e-01	  -6.4302796e-02	
   3.1075000e+01	   1.3438657e+00	  -1.8885953e-01	   2.3161776e-01	
   3.1130000e+01	   1.6579208e+00	   7.2888358e-02	   1.9309011e-01	
   3.1185000e+01	   1.7454904e+00	   3.8448426e-02	   1.6402400e-01	
   3.1240000e+01	   1.6900186e+00	   2.3190098e-01	   9.3288389e-02	
   3.1295000e+01	   1.5075726e+00	  -6.8106594e-02	   3.1569250e-01	
   3.1350000e+01	   1.8907761e+00	   1.7350680e-02	   1.2728823e-01	
   3.1405000e+01	   1.2839917e+00	  -5.9984795e-02	  -4.8922887e-02	
   3.1460000e+01	   1.6752562e+00	   4.2013863e-02	   1.1606842e-01	
   3.1515000e+01	   1.3536947e+00	  -2.2055637e-01	   7.3683403e-03	
   3.1570000e+01	   1.4316616e+00	  -3.4731514e-02	   3.3194798e-02	
   3.1625000e+01	   1.2905253e+00	  -2.1952976e-01	  -1.6586812e-01	
   3.1680000e+01	   9.8579254e-01	  -1.4336146e-01	  -2.6927389e-01	
   3.1735000e+01	   9.4190603e-01	  -4.2706333e-01	  -3.1677752e-01	
   3.1790000e+01	   1.2726485e+00	  -4.2056935e-01	  -4.2696432e-01	
   3.1845000e+01	   7.8357391e-01	  -3.3090459e-01	  -4.2250500e-01	
   3.1900000e+01	   8.0698596e-01	  -2.3941009e-01	  -2.8454326e-01	
   3.1955000e+01	   1.5530016e+00	  -2.5921587e-01	   5.7019376e-02	
   3.2010000e+01	   1.7909436e+00	  -1.3010514e-01	   2.6741253e-01	
   3.2065000e+01	   2.2094046e+00	   1.4946897e-01	   3.0142917e-01	
   3.2120000e+01	   1.9121737e+00	   7.6474978e-02	   1.9895871e-01	
   3.2175000e+01	   1.4100452e+00	   7.0061315e-02	   4.1565422e-01	
   3.2230000e+01	   1.6579208e+00	   1.7640666e-01	   4.4708972e-01	
   3.2285000e+01	   1.8230102e+00	   1.7665180e-01	   2.7130885e-01	
   3.2340000e+01	   1.4303086e+00	   6.3193781e-02	   3.1762320e-01	
   3.2395000e+01	   1.4711910e+00	  -1.7075536e-04	   3.9803921e-01	
   3.2450000e+01	   1.5709585e+00	  -1.0673486e-02	   2.3079826e-01	
   3.2505000e+01	   1.4981669e+00	   1.6223561e-01	  -2.5061442e-01	
   3.2560000e+01	   1.3809040e+00	  -1.9849847e-01	  -1.3578757e-01	
   3.2615000e+01	   1.4526163e+00	  -1.7375789e-01	   2.1183671e-02	
   3.2670000e+01	   1.7579082e+00	  -1.6529360e-01	  -1.3232566e-02	
   3.2725000e+01	   1.4607723e+00	  -1.7791354e-01	  -1.6555751e-01	
   3.2780000e+01	   1.0223595e+00	  -1.8027481e-01	  -3.2235821e-01	
   3.2835000e+01	   9.2946774e-01	  -3.6116702e-01	   1.0916240e-01	
   3.2890000e+01	   1.6026065e+00	  -1.5089970e-01	  -1.4531262e-02	
   3.2945000e+01	   1.7543598e+00	  -7.7925367e-03	   2.5320903e-01	
   3.3000000e+01	   1.7454904e+00	   8.8550232e-02	   2.4497648e-01	
   3.3055000e+01	   1.4972341e+00	   2.3729979e-01	   4.3513394e-01	
   3.3110000e+01	   2.2510714e+00	   1.5238900e-01	   3.9949253e-01	
   3.3165000e+01	   1.6210639e+00	   6.1385571e-02	   3.6185327e-01	
   3.3220000e+01	   1.5255394e+00	   1.5676236e-01	   2.7911867e-01	
   3.3275000e+01	   1.3943144e+00	   7.3157697e-02	   2.4501034e-01	
   3.3330000e+01	   1.3985294e+00	  -1.3144443e-01	   2.1633250e-01	
   3.3385000e+01	   1.6734677e+00	   3.7703658e-02	  -2.1402051e-01	
   3.3440000e+01	   1.4705902e+00	  -7.9592833e-02	   1.8921267e-01	
   3.3495000e+01	   1.3758845e+00	  -1.4846048e-01	  -5.7601842e-02	
   3.3550000e+01	   1.1158449e+00	  -2.4103011e-01	   1.2127686e-01	
   3.3605000e+01	   1.4295088e+00	  -2.2795904e-01	  -2.0942321e-01	
   3.3660000e+01	   1.0585387e+00	  -2.7020794e-01	  -2.6128857e-01	
   3.3715000e+01	   1.2980158e+00	  -5.4263300e-01	  -1.2607181e-01	
   3.3770000e+01	   1.4922757e+00	  -3.3105863e-01	   9.1054586e-02	
   3.3825000e+01	   1.7899637e+00	   8.5881672e-03	   1.9231170e-01	
   3.3880000e+01	   1.9281710e+00	   1.9498310e-01	   2.5716706e-01	
   3.3935000e+01	   1.4526532e+00	   5.6373023e-04	   2.5055216e-01	
   3.3990000e+01	   2.1428644e+00	  -1.9246643e-02	   3.9147792e-01	
   3.4045000e+01	   2.2022635e+00	   2.9193731e-01	   2.0572139e-01	
   3.4100000e+01	   1.5891263e+00	   3.9368699e-02	   8.6846362e-02	
   3.4155000e+01	   1.5520502e+00	  -4.0492494e-02	   3.0078577e-01	
   3.4210000e+01	   1.5387865e+00	   4.3590899e-02	   9.3018497e-02	
   3.4265000e+01	   1.3354379e+00	  -6.7669008e-02	  -5.7828701e-02	
   3.4320000e+01	   1.6457780e+00	   7.8864542e-02	  -1.2572818e-01	
   3.4375000e+01	   1.0492751e+00	  -1.1907618e-01	   7.2403232e-02	
   3.4430000e+01	   1.2455036e+00	  -1.6701062e-01	  -3.5600824e-03	
   3.4485000e+01	   1.4406214e+00	  -2.0172263e-01	  -2.9713672e-01	
   3.4540000e+01	   7.5215313e-01	  -3.8652461e-01	  -2.7130735e-01	
   3.4595000e+01	   7.1225457e-01	  -4.4234082e-01	  -3.7414836e-01	
   3.4650000e+01	   1.2192856e+00	  -4.1765250e-01	   7.3393338e-02	
   3.4705000e+01	   1.3309719e+00	  -7.0330201e-02	  -1.4165940e-01	
   3.4760000e+01	   1.7344584e+00	  -1.0680058e-03	  -7.9858468e-02	
   3.4815000e+01	   1.1124671e+00	  -2.9712609e-02	   3.0240965e-01	
   3.4870000e+01	   1.5891263e+00	  -1.2998246e-01	   2.4647034e-01	
   3.4925000e+01	   1.9229390e+00	   4.1228621e-02	   1.4320338e-01	
   3.4980000e+01	   1.2323547e+00	   6.4938039e-02	   4.0770856e-02	
   3.5035000e+01	   1.1383884e+00	   5.1926669e-02	   2.7261279e-01	
   3.5090000e+01	   1.2858190e+00	  -1.3003333e-01	  -3.8724986e-02	
   3.5145000e+01	   1.4922757e+00	  -1.4626411e-01	   1.8040193e-02	
   3.5200000e+01	   1.2995794e+00	  -1.5103614e-01	  -2.4147993e-01	
   3.5255000e+01	   1.1565082e+00	  -1.8816528e-01	   1.1254031e-02	
   3.5310000e+01	   9.9231050e-01	  -4.8994484e-01	  -1.4425856e-01	
   3.5365000e+01	   1.5728312e+00	  -3.3587095e-01	  -3.8895808e-01	
   3.5420000e+01	   8.1519660e-01	  -4.1429066e-01	  -3.4467796e-01	
   3.5475000e+01	   7.4082507e-01	  -2.0343743e-01	  -1.7206575e-01	
   3.5530000e+01	   1.5702277e+00	  -1.9912018e-01	   1.7722428e-01	
   3.5585000e+01	   1.4981669e+00	   1.3318232e-01	   2.3749861e-02	
   3.5640000e+01	   1.6124654e+00	   1.8337558e-01	   1.1260621e-02	
   3.5695000e+01	   1.4351548e+00	  -1.8336831e-02	   3.0640611e-01	
   3.5750000e+01	   1.4705902e+00	  -7.3267564e-02	   9.4889476e-02	
   3.5805000e+01	   1.3088434e+00	   1.7071008e-01	   2.3514240e-02	
   3.5860000e+01	   1.6493258e+00	  -2.0462019e-02	  -3.8507274e-02	
   3.5915000e+01	   1.4518291e+00	  -1.4463679e-01	  -2.1475943e-02	
   3.5970000e+01	   1.5196127e+00	  -1.8726974e-01	  -8.7764119e-02	
   3.6025000e+01	   1.0585387e+00	  -2.5900330e-01	   2.6788877e-02	
   3.6080000e+01	   1.0943515e+00	  -1.4741878e-01	  -2.2621575e-01	
   3.6135000e+01	   1.0984743e+00	  -2.2374949e-01	  -3.8385855e-01	
   3.6190000e+01	   8.8660434e-01	  -4.0772897e-01	  -3.3507043e-01	
   3.6245000e+01	   1.0102078e+00	  -2.7195190e-01	  -2.3759399e-01	
   3.6300000e+01	   1.3004941e+00	  -1.4495709e-01	  -1.5487365e-01	
   3.6355000e+01	   1.5530016e+00	  -2.1440818e-01	   1.8717700e-01	
   3.6410000e+01	   1.4351697e+00	  -3.5845783e-02	   3.6092473e-01	
   3.6465000e+01	   1.7581096e+00	   5.6681685e-02	   1.6311511e-01	
   3.6520000e+01	   1.7344584e+00	   1.8483243e-01	   1.3350876e-01	
   3.6575000e+01	   9.6346133e-01	   4.0108917e-02	   3.3684282e-01	
   3.6630000e+01	   1.3985294e+00	  -5.1443644e-02	   4.6930394e-02	
   3.6685000e+01	   1.3354379e+00	  -1.0113343e-03	  -4.5558759e-02	
   3.6740000e+01	   1.5101049e+00	   3.1762800e-02	  -7.6946234e-02	
   3.6795000e+01	   1.3308725e+00	  -4.7947658e-02	   6.3147701e-02	
   3.6850000e+01	   1.4124270e+00	  -2.6426559e-01	  -2.1219760e-02	
   3.6905000e+01	   1.2324592e+00	  -2.1044141e-01	  -3.8270771e-01	
   3.6960000e+01	   5.2622934e-01	  -7.5129114e-02	  -4.4166809e-01	
   3.7015000e+01	   8.1816745e-01	  -2.2669638e-01	  -4.2536846e-01	
   3.7070000e+01	   1.0407447e+00	  -3.3126660e-01	  -1.9208562e-01	
   3.7125000e+01	   1.7011785e+00	  -1.1793982e-01	  -1.9782627e-03	
   3.7180000e+01	   1.4030221e+00	  -2.0862154e-02	   1.2547276e-01	
   3.7235000e+01	   2.1300860e+00	   2.7301663e-01	   1.6626035e-01	
   3.7290000e+01	   1.5032491e+00	   1.2455109e-02	   1.8870448e-01	
   3.7345000e+01	   1.3168654e+00	   2.1816484e-01	   3.6540140e-01	
   3.7400000e+01	   1.6797322e+00	   2.1672185e-01	  -2.6393978e-02	
   3.7455000e+01	   1.4892482e+00	   2.1386617e-01	   2.3060274e-01	
   3.7510000e+01	   1.3087494e+00	   6.0544049e-04	   2.1889229e-01	
   3.7565000e+01	   1.3133416e+00	  -6.4033990e-03	  -1.3567983e-01	
   3.7620000e+01	   9.6931955e-01	   1.4484462e-01	  -4.5179260e-02	
   3.7675000e+01	   8.3095492e-01	   1.4530388e-02	  -1.2002191e-01	
   3.7730000e+01	   1.0633368e+00	  -7.7719412e-02	  -1.0311969e-02	
   3.7785000e+01	   1.2069588e+00	  -1.1697368e-01	  -7.2920440e-02	
   3.7840000e+01	   1.2809972e+00	  -5.9721684e-02	  -4.7478373e-01	
   3.7895000e+01	   1.1251900e+00	  -1.6586367e-01	  -1.6756875e-02	
   3.7950000e+01	   1.4216986e+00	   1.0755164e-01	   1.0374351e-01	
   3.8005000e+01	   1.7953304e+00	   2.6382798e-01	   1.3994498e-01	
   3.8060000e+01	   1.3438657e+00	   3.9966011e-01	   1.5520502e-01	
   3.8115000e+01	   1.7302999e+00	   2.7351946e-01	   2.9463874e-01	
   3.8170000e+01	   1.4391490e+00	   1.2187713e-01	   3.4740262e-01	
   3.8225000e+01	   1.5020017e+00	   2.4935111e-01	   3.7629462e-01	
   3.8280000e+01	   1.4920062e+00	   2.5046712e-01	  -1.2578000e-02	
   3.8335000e+01	   9.0319441e-01	   7.0540029e-02	   2.6770390e-01	
   3.8390000e+01	   1.1431243e+00	   7.1947912e-02	   2.3518897e-01	
   3.8445000e+01	   1.1651521e+00	   1.1978083e-01	   6.9776875e-02	
   3.8500000e+01	   1.0104765e+00	   3.6776052e-02	  -3.6732674e-02	
   3.8555000e+01	   1.1782085e+00	   8.5511588e-02	  -1.4383015e-01	
   3.8610000e+01	   9.0421734e-01	  -9.7355153e-02	  -3.8857815e-01	
   3.8665000e+01	   9.7479365e-01	  -1.9970556e-01	  -4.1077294e-01	
   3.8720000e+01	   1.4920062e+00	   6.1920888e-02	   1.0740663e-02	
   3.8775000e+01	   1.5374828e+00	   2.2010473e-01	   1.1640816e-01	
   3.8830000e+01	   1.6607320e+00	   2.2444780e-01	   3.4244268e-01	
   3.8885000e+01	   1.4488877e+00	   1.4992572e-01	   3.7400487e-01	
   3.8940000e+01	   1.5448673e+00	   3.1208427e-01	   4.0834627e-01	
   3.8995000e+01	   1.0765714e+00	   3.4403811e-01	   1.7213075e-01	
   3.9050000e+01	   1.0982293e+00	   2.3311571e-01	   2.2232782e-01	
   3.9105000e+01	   1.2504241e+00	  -1.3240397e-01	   8.3283432e-02	
   3.9160000e+01	   1.0579898e+00	   2.6723932e-01	  -7.1228416e-02	
   3.9215000e+01	   1.0004923e+00	   1.7156559e-01	  -8.7376682e-02	
   3.9270000e+01	   7.9975731e-01	   6.8585734e-02	  -8.0950494e-02	
   3.9325000e+01	   4.2087010e-01	  -3.8769446e-02	  -8.9834039e-02	
   3.9380000e+01	   1.0663895e+00	   5.7648441e-02	  -3.8857054e-01	
   3.9435000e+01	   1.1018637e+00	  -7.7807133e-02	   1.0379472e-01	
   3.9490000e+01	   1.6197747e+00	  -1.9714335e-02	   1.8036269e-01	
   3.9545000e+01	   1.3788631e+00	   1.5065740e-01	   2.7578358e-01	
   3.9600000e+01	   1.5021356e+00	   2.7530598e-01	   1.8623027e-01	
   3.9655000e+01	   1.2050506e+00	   2.8932382e-01	  -1.5919018e-03	
   3.9710000e+01	   1.0005134e+00	   2.9793828e-01	   2.4204659e-01	
   3.9765000e+01	   1.0857128e+00	   2.0101652e-01	   3.5985416e-01	
   3.9820000e+01	   9.5206755e-01	   7.8530762e-02	   1.0603486e-01	
   3.9875000e+01	   6.7705713e-01	   9.9385598e-02	  -6.7037750e-02	
   3.9930000e+01	   9.5510142e-01	   1.2833888e-01	   1.5267275e-02	
   3.9985000e+01	   7.9846544e-01	   2.9070062e-02	   1.1432118e-01	
   4.0040000e+01	   9.6060546e-01	   7.1248999e-02	  -2.7092804e-01	
   4.0095000e+01	   6.2434409e-01	  -3.1664553e-02	  -1.2963210e-01	
   4.0150000e+01	   7.7110613e-01	  -3.7214069e-02	  -7.5452664e-02	
   4.0205000e+01	   8.2371795e-01	  -7.0870320e-02	   1.5340549e-03	
   4.0260000e+01	   2.0278285e+00	   9.8327445e-02	   1.0106135e-01	
   4.0315000e+01	   1.0590229e+00	   4.3335675e-01	   1.7518071e-01	
   4.0370000e+01	   1.2706479e+00	   1.3529004e-01	   5.0898566e-01	
   4.0425000e+01	   1.5358724e+00	   1.6423967e-01	   1.9616493e-01	
   4.0480000e+01	   1.4525652e+00	   4.5538186e-01	   2.6858276e-01	
   4.0535000e+01	   7.8103427e-01	   4.0777743e-01	   2.8586738e-01	
   4.0590000e+01	   1.0179917e+00	   2.7517653e-01	   3.4605553e-01	
   4.0645000e+01	   1.1223597e+00	   1.0868462e-01	   4.3113361e-02	
   4.0700000e+01	   5.6509460e-01	   4.1887498e-01	   6.0102579e-02	
   4.0755000e+01	   4.9581154e-01	   1.7579631e-01	   4.7893325e-02	
   4.0810000e+01	   5.9145780e-01	   8.7710227e-03	   5.2612228e-02	
   4.0865000e+01	   6.8294993e-01	   4.7922941e-03	  -1.7161529e-01	
   4.0920000e+01	   8.4818691e-01	   2.2088214e-01	  -2.2094151e-01	
   4.0975000e+01	   9.6841088e-01	  -5.0417737e-02	  -2.2585069e-01	
   4.1030000e+01	   4.7024225e-01	  -1.3952049e-01	   1.8137236e-01	
   4.1085000e+01	   1.4549856e+00	   2.5068046e-01	   2.4793158e-01	
   4.1140000e+01	   1.4713168e+00	   4.2294795e-01	   1.5488288e-01	
   4.1195000e+01	   1.3139276e+00	   4.9502315e-01	   5.4980428e-01	
   4.1250000e+01	   1.2925254e+00	   3.0742490e-01	   3.1784026e-01	
   4.1305000e+01	   9.4658622e-01	   2.4113149e-01	   4.9695923e-01	
   4.1360000e+01	   9.7293003e-01	   4.5672941e-01	   5.5753329e-01	
   4.1415000e+01	   9.9280113e-01	   2.5722542e-01	   2.9677597e-01	
   4.1470000e+01	   3.8403963e-01	   2.3553362e-01	   4.0328309e-01	
   4.1525000e+01	   7.1793458e-01	   1.9664988e-02	   2.2549737e-01	
   4.1580000e+01	   8.2157126e-01	   2.0106431e-01	  -5.8061281e-04	
   4.1635000e+01	   4.0351708e-01	   2.6459715e-01	  -1.0918798e-01	
   4.1690000e+01	   1.0335388e+00	  -5.3364938e-02	   1.6904839e-01	
   4.1745000e+01	   3.9962016e-01	   1.1829960e-03	   8.8704920e-02	
   4.1800000e+01	   1.1602227e+00	   1.3260447e-01	  -1.9254867e-01	
   4.1855000e+01	   1.0983311e+00	  -1.1000664e-02	  -4.3362656e-02	
   4.1910000e+01	   1.4534320e+00	  -9.9575531e-02	   1.5773237e-01	
   4.1965000e+01	   1.8628736e+00	   1.7170679e-01	   4.2282162e-01	
   4.2020000e+01	   1.4824972e+00	   3.4393420e-01	   2.6951207e-01	
   4.2075000e+01	   1.5238165e+00	   3.5115254e-01	   3.1310912e-01	
   4.2130000e+01	   7.9202343e-01	   2.3923542e-01	   4.4054189e-01	
   4.2185000e+01	   1.0380921e+00	   4.2370348e-01	   4.7007806e-01	
   4.2240000e+01	   1.0298782e+00	   4.8500311e-01	   1.7079468e-01	
   4.2295000e+01	   8.0362857e-01	   3.8987554e-01	   3.6211330e-01	
   4.2350000e+01	   7.4176725e-01	   2.4348749e-01	   2.4034702e-01	
   4.2405000e+01	   5.0137626e-01	   5.6128302e-02	   1.4100262e-02	
   4.2460000e+01	   1.0053307e+00	   1.3858894e-01	   7.2972246e-02	
   4.2515000e+01	   6.5250074e-01	   1.4601012e-01	  -3.6887057e-02	
   4.2570000e+01	   1.2038471e+00	  -1.8206808e-01	  -2.2220537e-02	
   4.2625000e+01	   1.0133722e+00	   3.2236118e-02	  -2.2604324e-01	
   4.2680000e+01	   1.0385503e+00	  -1.3209249e-01	  -1.8706350e-01	
   4.2735000e+01	   1.3521431e+00	   3.3769140e-02	  -2.9622436e-02	
   4.2790000e+01	   1.4934734e+00	   2.9507427e-01	   1.7936771e-01	
   4.2845000e+01	   1.9901029e+00	  -1.6854189e-02	   3.4548118e-01	
   4.2900000e+01	   2.0920346e+00	   2.6993110e-01	   2.8971023e-01	
   4.2955000e+01	   1.5722361e+00	   1.4675187e-01	   3.2969465e-01	
   4.3010000e+01	   1.3906918e+00	   1.3450316e-01	   1.0294212e-01	
   4.3065000e+01	   1.1901371e+00	   1.3301435e-01	   2.4803858e-01	
   4.3120000e+01	   1.4246509e+00	   2.6770014e-01	  -1.4505276e-02	
   4.3175000e+01	   8.0153147e-01	   9.9654510e-02	  -1.6106600e-01	
   4.3230000e+01	   6.1919833e-01	  -1.1633062e-02	   1.7953905e-03	
   4.3285000e+01	   1.2770389e+00	  -8.0652700e-02	  -7.3735078e-02	
   4.3340000e+01	   8.8365962e-01	  -6.0260361e-02	  -1.9589845e-01	
   4.3395000e+01	   9.5206755e-01	  -8.9662742e-03	  -2.3139778e-01	
   4.3450000e+01	   1.1216240e+00	  -2.1717478e-01	  -9.9261049e-02	
   4.3505000e+01	   1.0821305e+00	  -1.1873084e-01	  -7.2075896e-02	
   4.3560000e+01	   1.3137093e+00	   1.5251023e-01	   1.1187165e-01	
   4.3615000e+01	   1.6431843e+00	   1.0975486e-01	  -3.3619516e-02	
   4.3670000e+01	   1.5818860e+00	  -1.5288957e-02	   1.3297128e-01	
   4.3725000e+01	   1.8214475e+00	  -6.5450961e-02	   2.4456850e-01	
   4.3780000e+01	   1.4690325e+00	   1.9666504e-01	   9.9226009e-02	
   4.3835000e+01	   1.4841534e+00	   4.2251654e-02	   1.6252553e-01	
   4.3890000e+01	   1.2265785e+00	   7.7310186e-02	   1.6630423e-01	
   4.3945000e+01	   9.6828619e-01	   1.3017861e-01	   6.7811542e-02	
   4.4000000e+01	   1.3459119e+00	  -1.6046673e-01	  -1.7110816e-01	
   4.4055000e+01	   1.0142923e+00	  -1.0133070e-01	  -2.6341077e-01	
   4.4110000e+01	   9.7760970e-01	  -1.5135673e-01	  -2.9165420e-01	
   4.4165000e+01	   7.5534829e-01	  -2.5673656e-01	  -2.1969160e-01	
   4.4220000e+01	   1.0286186e+00	  -2.9993438e-01	  -2.5693941e-01	
   4.4275000e+01	   1.3860481e+00	  -3.8991701e-01	  -3.6345398e-01	
   4.4330000e+01	   1.2741897e+00	  -1.1139104e-01	  -7.6032484e-02	
   4.4385000e+01	   1.6033992e+00	   1.5508614e-02	   8.2934241e-02	
   4.4440000e+01	   1.5850567e+00	   4.8695393e-02	   3.1258937e-02	
   4.4495000e+01	   1.5410660e+00	   2.2092646e-01	   6.7719678e-02	
   4.4550000e+01	   1.3117870e+00	   2.2277575e-01	   1.1800127e-01	
   4.4605000e+01	   1.6925172e+00	   3.2598867e-02	   2.3667849e-01	
   4.4660000e+01	   1.4661798e+00	   1.9430592e-01	   7.2721562e-02	
   4.4715000e+01	   1.5839921e+00	   2.0385913e-01	  -1.0169808e-01	
   4.4770000e+01	   9.8610699e-01	   1.1119850e-01	  -6.8708565e-02	
   4.4825000e+01	   9.9504508e-01	  -2.1560856e-01	  -5.0059455e-02	
   4.4880000e+01	   1.5884214e+00	  -6.7735371e-02	  -2.4499751e-01	
   4.4935000e+01	   8.2483442e-01	  -1.1742419e-01	  -2.3655803e-01	
   4.4990000e+01	   8.2061400e-01	  -1.9365714e-01	  -3.6947032e-01	
   4.5045000e+01	   9.1195924e-01	  -3.9530836e-01	  -2.6729436e-01	
   4.5100000e+01	   1.2660632e+00	  -2.7466845e-01	  -3.4775686e-01	
   4.5155000e+01	   1.8004255e+00	  -3.7956067e-02	  -1.0878871e-01	
   4.5210000e+01	   1.4063496e+00	   1.7006396e-01	   8.6936193e-02	
   4.5265000e+01	   1.3399862e+00	   1.8658293e-02	   1.6716157e-01	
   4.5320000e+01	   1.5685584e+00	   8.8273276e-02	   3.0300441e-01	
   4.5375000e+01	   1.6564334e+00	   1.3656280e-01	  -5.6012643e-02	
   4.5430000e+01	   1.2667318e+00	   1.5024292e-01	  -5.4574913e-02	
   4.5485000e+01	   1.2898617e+00	   2.0901725e-01	   8.7425816e-02	
   4.5540000e+01	   9.9504508e-01	  -2.7273991e-02	  -3.6666188e-02	
   4.5595000e+01	   1.1481115e+00	  -1.1726628e-01	  -3.5760793e-01	
   4.5650000e+01	   6.9969762e-01	   1.1447904e-02	  -1.3259394e-01	
   4.5705000e+01	   2.6137283e-01	  -1.2022625e-01	  -1.8314851e-02	
   4.5760000e+01	   1.0555931e+00	  -1.6381418e-01	  -2.2724323e-01	
   4.5815000e+01	   6.5097477e-01	  -1.2166239e-01	  -5.2322027e-01	
   4.5870000e+01	   9.9504508e-01	  -2.1700512e-01	  -6.8467429e-01	
   4.5925000e+01	   9.2556988e-01	  -2.8525353e-01	  -1.9189959e-01	
   4.5980000e+01	   1.3155907e+00	  -2.4734696e-01	  -1.4078732e-02	
   4.6035000e+01	   1.8723712e+00	   1.0408843e-01	  -1.6012532e-01	
   4.6090000e+01	   1.3894043e+00	   2.2562864e-01	   1.7918727e-01	
   4.6145000e+01	   1.1652099e+00	   8.4887514e-02	   4.2260509e-02	
   4.6200000e+01	   1.6618415e+00	   3.2854271e-02	   1.2938353e-02	
   4.6255000e+01	   1.6528444e+00	   1.9621671e-01	  -1.8941234e-01	
   4.6310000e+01	   1.2806320e+00	   1.7366339e-01	   1.2603590e-02	
   4.6365000e+01	   6.9016772e-01	  -1.3218652e-01	  -2.0303809e-03	
   4.6420000e+01	   9.3861050e-01	  -4.9901866e-02	   1.0627755e-01	
   4.6475000e+01	   1.1158054e+00	  -7.8955710e-02	  -1.5491598e-01	
   4.6530000e+01	   8.3467281e-01	  -4.5113183e-02	  -3.5242006e-01	
   4.6585000e+01	   9.8958682e-01	  -2.1606181e-01	  -4.7704419e-01	
   4.6640000e+01	   9.5585213e-01	  -2.2311670e-01	  -3.1601293e-01	
   4.6695000e+01	   1.0467611e+00	  -1.6953377e-01	  -4.3420920e-01	
   4.6750000e+01	   6.8232216e-01	  -3.4768723e-01	  -3.7424224e-01	
   4.6805000e+01	   1.0409975e+00	  -4.8934726e-02	   4.1929039e-02	
   4.6860000e+01	   1.6190898e+00	  -6.1999213e-02	   2.3839245e-01	
   4.6915000e+01	   1.5320261e+00	   1.8863949e-01	  -2.6339647e-02	
   4.6970000e+01	   1.2821805e+00	   8.4123561e-02	  -3.5046629e-02	
   4.7025000e+01	   1.2278813e+00	   8.0962670e-02	   2.2927490e-01	
   4.7080000e+01	   1.4351768e+00	   3.9704143e-03	   1.5602854e-01	
   4.7135000e+01	   1.3354295e+00	   7.1512162e-02	  -4.0417125e-02	
   4.7190000e+01	   1.2993615e+00	  -4.1445873e-02	  -2.3465608e-01	
   4.7245000e+01	   7.2602862e-01	  -2.6870218e-01	  -8.5862854e-03	
   4.7300000e+01	   9.9504508e-01	  -2.4057142e-01	  -1.7608909e-01	
   4.7355000e+01	   1.4019331e+00	  -1.9902127e-01	  -4.7106055e-01	
   4.7410000e+01	   6.9969762e-01	  -1.5296424e-01	  -5.1433486e-01	
   4.7465000e+01	   8.4726473e-01	  -2.9832783e-01	  -3.9500942e-01	
   4.7520000e+01	   7.7299842e-01	  -4.8978662e-01	  -5.0036868e-01	
   4.7575000e+01	   1.1446947e+00	  -2.6320162e-01	  -4.9182201e-01	
   4.7630000e+01	   1.3374273e+00	  -9.6983062e-02	   1.2116065e-02	
   4.7685000e+01	   1.2726485e+00	  -1.6962531e-01	   8.5812605e-02	
   4.7740000e+01	   1.5721305e+00	   5.0640912e-02	   2.0899971e-02	
   4.7795000e+01	   1.1384942e+00	   5.3156204e-02	  -3.9986532e-02	
   4.7850000e+01	   1.3426519e+00	  -5.9255063e-04	  -1.2099542e-01	
   4.7905000e+01	   7.0422140e-01	  -1.2573822e-01	  -2.7147471e-01	
   4.7960000e+01	   1.3833290e+00	  -1.4045563e-01	  -1.6440501e-01	
   4.8015000e+01	   1.1411378e+00	  -4.7228098e-02	  -1.0830421e-01	
   4.8070000e+01	   1.0090526e+00	  -1.1383902e-01	  -1.1876484e-01	
   4.8125000e+01	   5.4991034e-01	  -1.8135741e-01	  -3.4231203e-01	
   4.8180000e+01	   1.3181515e+00	  -2.0339208e-01	  -2.0366717e-01	
   4.8235000e+01	   1.0004923e+00	  -4.5240039e-01	  -4.7341354e-01	
   4.8290000e+01	   1.1481115e+00	  -2.8327164e-01	  -5.8790796e-01	
   4.8345000e+01	   1.1481115e+00	  -2.8265254e-01	  -4.6993030e-01	
   4.8400000e+01	   1.6830828e+00	  -2.5532613e-01	  -8.6703227e-02	
   4.8455000e+01	   1.6344056e+00	  -1.2918063e-01	  -1.0129427e-01	
   4.8510000e+01	   1.6836930e+00	   2.0531222e-02	  -1.5136935e-01	
   4.8565000e+01	   1.2145425e+00	  -1.1377836e-01	   1.9019319e-01	
   4.8620000e+01	   1.2009381e+00	  -8.7506558e-02	   9.9630130e-02	
   4.8675000e+01	   1.4748617e+00	  -6.8974585e-02	  -6.0487312e-02	
   4.8730000e+01	   1.3166175e+00	   1.1470791e-01	  -1.4105766e-01	
   4.8785000e+01	   9.0431245e-01	  -4.1590096e-02	  -2.6876443e-01	
   4.8840000e+01	   1.1987045e+00	  -2.0243728e-01	  -1.5699866e-01	
   4.8895000e+01	   1.0444745e+00	  -2.2123211e-01	  -3.7557070e-01	
   4.8950000e+01	   1.0090526e+00	  -1.3984202e-01	  -7.0767760e-01	
   4.9005000e+01	   9.7855303e-01	  -3.2106050e-01	  -3.9076230e-01	
   4.9060000e+01	   8.7268519e-01	  -4.5403075e-01	  -5.8525809e-01	
   4.9115000e+01	   7.9913430e-01	  -4.5884858e-01	  -3.8345609e-01	
   4.9170000e+01	   1.2002948e+00	  -2.6127341e-01	  -2.5266890e-01	
   4.9225000e+01	   1.4152703e+00	   6.1996169e-02	  -4.1839589e-02	
   4.9280000e+01	   1.8135399e+00	  -2.2144634e-02	   6.5244613e-02	
   4.9335000e+01	   1.6556095e+00	   2.2559717e-01	   1.8747172e-01	
   4.9390000e+01	   1.4882647e+00	   1.7186334e-01	   4.8858267e-02	
   4.9445000e+01	   1.4805571e+00	   1.5372769e-01	   1.3609004e-01	
   4.9500000e+01	   1.0942289e+00	   9.5991165e-02	   1.9494484e-01	
   4.9555000e+01	   1.3963781e+00	   2.2046935e-01	   1.1743194e-01	
   4.9610000e+01	   1.1698273e+00	   8.0420816e-02	   7.3143372e-02	
   4.9665000e+01	   1.1431708e+00	  -2.7132672e-02	  -9.6402499e-02	
   4.9720000e+01	   8.5598618e-01	  -2.5011297e-01	  -4.4509872e-02	
   4.9775000e+01	   1.2413580e+00	  -1.7370364e-01	  -2.4248116e-02	
   4.9830000e+01	   1.1664418e+00	  -4.4996369e-02	  -3.3580576e-01	
   4.9885000e+01	   5.1626157e-01	  -2.1453072e-01	  -1.8325157e-01	
   4.9940000e+01	   1.0702059e+00	  -3.5157551e-01	  -1.1907014e-01	
   4.9995000e+01	   1.8868276e+00	  -1.1250579e-01	  -8.9422539e-02	
   5.0050000e+01	   1.8170128e+00	   2.3138639e-01	   2.8397442e-02	
   5.0105000e+01	   2.0433855e+00	   3.7064670e-01	   4.6039870e-01	
   5.0160000e+01	   1.6395429e+00	   1.0156793e-01	   3.5637030e-01	
   5.0215000e+01	   1.4248074e+00	   2.2493705e-01	   2.3791428e-01	
   5.0270000e+01	   1.4659278e+00	   3.6341294e-01	   2.1106410e-01	
   5.0325000e+01	   1.3385544e+00	   1.6925640e-01	   8.5009771e-02	
   5.0380000e+01	   9.5946719e-01	   1.6021225e-01	   3.4925446e-01	
   5.0435000e+01	   9.9640605e-01	   2.8672926e-01	   1.7261655e-01	
   5.0490000e+01	   1.0829109e+00	   2.7547985e-01	   2.1375676e-01	
   5.0545000e+01	   1.0712590e+00	   1.7580382e-01	   5.8578053e-02	
   5.0600000e+01	   9.2323065e-01	   4.1720536e-02	  -1.6281088e-01	
   5.0655000e+01	   1.1256276e+00	  -5.5273046e-02	  -1.2468719e-01	
   5.0710000e+01	   1.6872102e+00	   2.8974651e-02	  -2.7519135e-01	
   5.0765000e+01	   1.4986131e+00	   2.8982316e-02	   3.9462003e-02	
   5.0820000e+01	   1.8214475e+00	   2.3562866e-01	   3.6935721e-01	
   5.0875000e+01	   2.0625058e+00	   2.1424709e-01	   2.4114343e-01	
   5.0930000e+01	   1.6190898e+00	   4.2408104e-01	   2.1006181e-01	
   5.0985000e+01	   1.6405470e+00	   5.8562401e-01	   3.6021821e-01	
   5.1040000e+01	   1.6789962e+00	   2.2852894e-01	   4.5044913e-01	
   5.1095000e+01	   1.1574478e+00	   3.4260948e-01	   5.4905436e-01	
   5.1150000e+01	   1.3950466e+00	   4.1401738e-01	   1.1756944e-01	
   5.1205000e+01	   8.2493574e-01	   1.8278696e-01	   2.2966821e-01	
   5.1260000e+01	   7.2231714e-01	   2.3743143e-01	   2.1817810e-01	
   5.1315000e+01	   6.7474826e-01	   1.5040525e-01	   3.4409434e-01	
   5.1370000e+01	   1.1998794e+00	   2.4694602e-01	   2.1211453e-01	
   5.1425000e+01	   7.8669097e-01	   1.7800933e-01	  -8.5249043e-02	
   5.1480000e+01	   1.3729246e+00	  -2.4395640e-02	  -1.2342856e-01	
   5.1535000e+01	   1.0108255e+00	  -5.7114399e-02	   2.5300113e-01	
   5.1590000e+01	   1.7092512e+00	   4.2492632e-01	   3.3208116e-01	
   5.1645000e+01	   1.5851133e+00	   4.3411006e-01	   4.5429602e-01	
   5.1700000e+01	   1.6431843e+00	   2.2491845e-01	   5.3342905e-01	
   5.1755000e+01	   1.7507797e+00	   2.2173215e-01	   5.7324694e-01	
   5.1810000e+01	   1.0054070e+00	   4.2982944e-01	   6.0851702e-01	
   5.1865000e+01	   1.0173983e+00	   4.6554378e-01	   3.5863827e-01	
   5.1920000e+01	   1.0194507e+00	   2.6852100e-01	   3.0621235e-01	
   5.1975000e+01	   1.0912896e+00	   2.5230113e-01	   2.0808886e-01	
   5.2030000e+01	   1.1710814e+00	   3.9592101e-01	   2.0408412e-01	
   5.2085000e+01	   1.0446700e+00	   3.8437090e-01	   2.1829116e-01	
   5.2140000e+01	   8.5172643e-01	   1.7318561e-01	   1.4994267e-01	
   5.2195000e+01	   1.0398286e+00	   3.3136769e-02	   1.6941866e-01	
   5.2250000e+01	   8.5181785e-01	   1.3692048e-01	   6.1754136e-02	
   5.2305000e+01	   9.4946088e-01	   2.0959246e-01	   1.0912586e-01	
   5.2360000e+01	   1.5980287e+00	   8.8190746e-02	   5.2477353e-01	
   5.2415000e+01	   1.6629493e+00	   3.3903972e-01	   5.0047859e-01	
   5.2470000e+01	   1.3567760e+00	   4.9467094e-01	   6.0212603e-01	
   5.2525000e+01	   1.4800771e+00	   5.4811286e-01	   4.3708106e-01	
   5.2580000e+01	   1.4224491e+00	   2.8174439e-01	   7.7019409e-01	
   5.2635000e+01	   1.5358984e+00	   3.5014033e-01	   6.2408938e-01	
   5.2690000e+01	   1.2056882e+00	   4.9259538e-01	   4.4741444e-01	
   5.2745000e+01	   9.1936923e-01	   3.9539180e-01	   3.3386684e-01	
   5.2800000e+01	   4.6119482e-01	   1.4052264e-01	   3.6361698e-01	
   5.2855000e+01	   9.7465072e-01	   3.5355721e-02	   4.6638337e-01	
   5.2910000e+01	   9.9734011e-01	   2.5191205e-01	   3.5020848e-02	
   5.2965000e+01	   1.1806452e+00	   1.8797641e-01	   2.1151727e-01	
   5.3020000e+01	   8.5472665e-01	   1.3086685e-01	   7.4041053e-02	
   5.3075000e+01	   1.0424232e+00	   6.6431931e-02	   1.2049649e-01	
   5.3130000e+01	   1.2248766e+00	  -7.1417104e-02	   4.1295491e-01	
   5.3185000e+01	   1.8614719e+00	   2.2957265e-01	   3.4415850e-01	
   5.3240000e+01	   1.5814658e+00	   2.8028807e-01	   6.8198216e-01	
   5.3295000e+01	   2.0943838e+00	   5.4726811e-01	   8.2474379e-01	
   5.3350000e+01	   1.4940978e+00	   5.0011286e-01	   6.9305932e-01	
   5.3405000e+01	   1.2655712e+00	   4.3185085e-01	   7.3821479e-01	
   5.3460000e+01	   7.4564530e-01	   4.1440429e-01	   5.6120122e-01	
   5.3515000e+01	   7.2708709e-01	   1.4954085e-01	   7.1264470e-01	
   5.3570000e+01	   8.0832803e-01	   1.7426463e-01	   5.9026378e-01	
   5.3625000e+01	   1.2990758e+00	   3.8283034e-01	   3.9655592e-01	
   5.3680000e+01	   8.2342149e-01	   3.4906006e-01	   4.5511096e-01	
   5.3735000e+01	   9.9617819e-01	   1.5198270e-01	   4.2142521e-01	
   5.3790000e+01	   7.7418034e-01	   2.2365263e-01	   2.6740437e-01	
   5.3845000e+01	   8.8382754e-01	   3.8397668e-01	   1.0709599e-01	
   5.3900000e+01	   4.4619172e-01	   1.6950710e-01	   1.7444002e-02	
   5.3955000e+01	   1.0354796e+00	  -5.9272887e-02	   2.2502688e-01	
   5.4010000e+01	   7.1965734e-01	  -1.0502947e-02	   2.7204673e-01	
   5.4065000e+01	   1.2060192e+00	   1.9125911e-01	   3.5249273e-01	
   5.4120000e+01	   1.5469804e+00	   3.4728750e-01	   6.5111833e-01	
   5.4175000e+01	   1.5108365e+00	   2.7481294e-01	   8.9569737e-01	
   5.4230000e+01	   1.2447323e+00	   5.0813440e-01	   6.8325969e-01	
   5.4285000e+01	   1.1591843e+00	   4.3933136e-01	   5.7214586e-01	
   5.4340000e+01	   8.5956666e-01	   5.7318218e-01	   5.1844324e-01	
   5.4395000e+01	   5.2428999e-01	   3.1150611e-01	   6.0863555e-01	
   5.4450000e+01	   7.8040676e-01	   2.5860248e-01	   5.3342767e-01	
   5.4505000e+01	   4.5749534e-01	   3.7919160e-01	   3.6181936e-01	
   5.4560000e+01	   2.2661584e-01	   2.5970376e-01	   4.4831075e-01	
   5.4615000e+01	   7.4264435e-01	   1.7884753e-01	   3.9604483e-01	
   5.4670000e+01	   6.4753095e-01	   1.3819272e-01	   3.6916093e-01	
   5.4725000e+01	   8.6763037e-01	   1.2612562e-01	   1.2457890e-01	
   5.4780000e+01	   6.2127735e-01	   1.9606491e-02	   8.4055101e-02	
   5.4835000e+01	   5.5374519e-01	  -6.8114873e-02	   1.5461680e-01	
   5.4890000e+01	   8.8150616e-01	  -1.0908493e-01	   1.0086600e-01	
   5.4945000e+01	   1.1365759e+00	   6.6006837e-02	   5.6794287e-02	
   5.5000000e+01	   1.0530053e+00	   3.7202307e-01	   4.1316121e-01	
   5.5055000e+01	   1.4965306e+00	   1.9512012e-01	   6.4003964e-01	
   5.5110000e+01	   1.5185750e+00	   2.2835132e-01	   5.3974647e-01	
   5.5165000e+01	   7.3057895e-01	   3.3597783e-01	   4.7348364e-01	
   5.5220000e+01	   5.3068028e-01	   4.6700203e-01	   6.1383835e-01	
   5.5275000e+01	   5.4753144e-01	   9.7147165e-02	   4.9731718e-01	
   5.5330000e+01	   7.3715905e-01	   1.8081709e-01	   6.0827723e-01	
   5.5385000e+01	   2.9469008e-01	   3.4490781e-01	   3.5921415e-01	
   5.5440000e+01	   3.7706459e-01	   3.1493331e-01	   4.2282896e-01	
   5.5495000e+01	   3.7706459e-01	   9.7262466e-02	   4.5903647e-01	
   5.5550000e+01	   4.0710191e-01	  -1.3306592e-02	   1.4968924e-01	
   5.5605000e+01	   1.6403038e-01	   1.3336175e-01	   1.2192250e-01	
   5.5660000e+01	   1.2025643e-01	   3.3924017e-03	  -6.0006667e-02	
   5.5715000e+01	   3.2577460e-01	  -1.7388999e-01	   5.6675713e-02	
   5.5770000e+01	   2.5243667e-01	  -2.2364657e-01	  -1.0956312e-01	
   5.5825000e+01	   3.3392447e-01	  -8.1194459e-02	   4.4350357e-01	
   5.5880000e+01	   9.2221540e-01	  -3.8715929e-02	   4.3577695e-01	
   5.5935000e+01	   1.2118289e+00	   1.8271284e-01	   5.1852556e-01	
   5.5990000e+01	   8.1909747e-01	   2.2123113e-01	   5.2454788e-01	
   5.6045000e+01	   1.2070915e+00	   1.4061824e-01	   4.4619145e-01	
   5.6100000e+01	   8.3396982e-01	   1.3940972e-01	   4.5969590e-01	
   5.6155000e+01	   5.8255152e-01	   8.4530791e-02	   3.9411870e-01	
   5.6210000e+01	   2.3200302e-01	   5.8296188e-02	   5.3505241e-01	
   5.6265000e+01	   4.6451250e-01	   1.6853191e-01	   3.4910221e-01	
   5.6320000e+01	   2.2673797e-01	   8.8572090e-02	   3.2380060e-01	
   5.6375000e+01	  -6.6903430e-02	  -3.3522353e-02	   3.2733807e-01	
   5.6430000e+01	  -1.3141842e-02	  -6.5010779e-02	   2.5388358e-01	
   5.6485000e+01	   3.0115992e-02	  -9.1583380e-02	  -8.8764807e-02	
   5.6540000e+01	  -2.8353772e-02	  -1.7407268e-01	  -1.4809078e-01	
   5.6595000e+01	  -2.0840468e-01	  -1.9076636e-01	  -1.5179277e-01	
   5.6650000e+01	   4.9236775e-01	  -5.4626132e-01	  -1.7165700e-01	
   5.6705000e+01	   7.1870089e-01	  -1.0881543e-01	   2.5123050e-01	
   5.6760000e+01	   9.0670808e-01	   9.4494707e-02	   4.5977886e-01	
   5.6815000e+01	   8.6587450e-01	  -7.5989187e-02	   3.6716368e-01	
   5.6870000e+01	   7.3575490e-01	   2.3761086e-02	   4.1163854e-01	
   5.6925000e+01	   3.5037948e-01	  -1.2189937e-02	   4.3540546e-01	
   5.6980000e+01	   4.7529772e-01	   8.8877786e-02	   4.5900766e-01	
   5.7035000e+01	  -1.1169553e-02	   9.1593803e-02	   3.9925303e-01	
   5.7090000e+01	   1.8815528e-01	  -1.5959485e-01	   3.0435919e-01	
   5.7145000e+01	   7.2781933e-02	  -2.1164091e-01	   1.3681266e-01	
   5.7200000e+01	   2.8330155e-01	  -2.0808367e-02	   1.3935222e-01	
   5.7255000e+01	  -1.1189313e-01	  -4.9055905e-03	   1.7576215e-01	
   5.7310000e+01	  -2.4143222e-02	  -4.1712386e-01	   7.6782099e-02	
   5.7365000e+01	   4.0067851e-01	  -1.4469123e-01	  -2.2999453e-02	
   5.7420000e+01	   6.3288853e-02	  -2.0467682e-01	  -2.8580275e-01	
   5.7475000e+01	   4.1571180e-01	  -2.5858614e-01	  -1.4117817e-03	
   5.7530000e+01	   4.7978119e-01	  -2.5060991e-01	   5.5523562e-01	
   5.7585000e+01	   6.6445982e-01	  -7.3111830e-02	   3.2918478e-01	
   5.7640000e+01	   7.2465012e-01	   2.3963430e-01	   2.4323553e-01	
   5.7695000e+01	   5.8618644e-02	  -9.6145421e-02	   4.8430304e-01	
   5.7750000e+01	   5.4421941e-01	  -1.2455919e-01	   5.6424197e-01	
   5.7805000e+01	   7.3324249e-02	  -3.9562719e-02	   6.3627073e-01	
   5.7860000e+01	   9.9933227e-02	   8.7055750e-02	   1.6692856e-01	
   5.7915000e+01	  -1.3718742e-01	   8.0237853e-02	   4.2176370e-01	
   5.7970000e+01	   5.1318471e-02	  -1.1609041e-01	   3.6542407e-01	
   5.8025000e+01	  -1.8975998e-01	  -5.4810481e-02	   3.3263721e-01	
   5.8080000e+01	  -1.6586889e-01	  -2.2596618e-01	   1.0596447e-01	
   5.8135000e+01	  -3.1850661e-01	  -1.3286901e-01	   4.6639101e-02	
   5.8190000e+01	  -4.3904465e-01	  -2.8263550e-01	  -7.6628067e-02	
   5.8245000e+01	   1.1811040e-01	  -3.1383212e-01	   1.2434987e-01	
   5.8300000e+01	   7.5529364e-04	  -3.1912208e-01	  -5.7078943e-02	
   5.8355000e+01	   6.3132288e-01	  -1.5815321e-01	   2.1954429e-01	
   5.8410000e+01	   6.4643391e-01	  -1.8504841e-03	   5.8064203e-01	
   5.8465000e+01	   2.3479906e-01	  -2.0242817e-02	   7.9657713e-01	
   5.8520000e+01	   5.6843619e-01	  -1.5688194e-02	   4.3031281e-01	
   5.8575000e+01	   1.1838222e-01	   1.7419327e-01	   5.8568328e-01	
   5.8630000e+01	  -4.8107916e-01	   1.0603797e-01	   6.0495878e-01	
   5.8685000e+01	  -2.6099491e-01	  -1.0112854e-03	   5.9791363e-01	
   5.8740000e+01	  -7.0126517e-02	   5.9032686e-02	   4.2272665e-01	
   5.8795000e+01	  -6.8858403e-01	   1.8852951e-01	   3.2871141e-01	
   5.8850000e+01	  -1.8495841e-01	  -1.2921289e-01	   4.0349508e-01	
   5.8905000e+01	  -4.6499009e-01	  -1.4707144e-01	   4.7630972e-01	
   5.8960000e+01	   1.2121131e-01	   1.3039933e-02	   2.6593597e-01	
   5.9015000e+01	  -8.0784118e-01	  -3.1051691e-02	   5.7642830e-02	
   5.9070000e+01	  -5.5525071e-01	  -2.6700483e-01	   3.0635037e-02	
   5.9125000e+01	  -7.3977391e-01	  -3.0913393e-01	   1.0301460e-01	
   5.9180000e+01	  -1.2369587e-01	  -1.1363281e-01	   1.3272750e-01	
   5.9235000e+01	   2.1441333e-01	  -8.2838558e-03	   2.8259337e-01	
   5.9290000e+01	   2.5299489e-01	   1.1168001e-01	   5.8346483e-01	
   5.9345000e+01	   3.4498704e-01	   1.3047266e-01	   6.6150700e-01	
   5.9400000e+01	   1.3237282e-01	   2.5174914e-01	   7.3128596e-01	
   5.9455000e+01	  -3.2643281e-01	   3.5403757e-01	   7.3737063e-01	
   5.9510000e+01	  -4.0849494e-01	   2.7674043e-02	   6.5592814e-01	
   5.9565000e+01	  -4.0520455e-01	   1.9601553e-01	   6.5168983e-01	
   5.9620000e+01	  -2.6187202e-01	   1.0786867e-01	   7.5489293e-01	
   5.9675000e+01	  -3.7038719e-01	   3.0081277e-02	   3.3667313e-01	
   5.9730000e+01	  -1.0258928e+00	   1.6162834e-02	   4.0576873e-01	
   5.9785000e+01	  -5.1032096e-01	   1.4966344e-02	   6.2699078e-01	
   5.9840000e+01	  -2.0928621e-01	   1.5548573e-01	   3.0579497e-01	
   5.9895000e+01	  -4.9241406e-01	  -1.2518829e-01	   1.1944161e-01	
   5.9950000e+01	  -2.9804398e-01	  -1.1264034e-01	   1.8619900e-01	
   6.0005000e+01	  -3.3479175e-01	  -1.4597158e-01	   2.1221702e-01	
   6.0060000e+01	   1.0973649e-01	  -2.7499898e-01	   2.6268994e-01	
   6.0115000e+01	  -4.0917563e-02	   1.8165497e-01	   5.0007644e-01	
   6.0170000e+01	  -1.7397228e-01	   1.4769103e-01	   7.3554598e-01	
   6.0225000e+01	  -3.8790336e-01	   1.1871011e-01	   8.3034621e-01	
   6.0280000e+01	   3.0439141e-03	   2.7615056e-01	   7.7796269e-01	
   6.0335000e+01	  -3.6893420e-01	   4.0196215e-01	   6.4546114e-01	
   6.0390000e+01	  -5.4971472e-01	   3.0375432e-01	   7.4455855e-01	
   6.0445000e+01	  -8.1902526e-01	  -5.1046494e-02	   6.4424678e-01	
   6.0500000e+01	  -4.5065010e-01	   1.1527827e-02	   6.4898733e-01	
   6.0555000e+01	  -7.3963431e-01	   2.5028460e-01	   5.3136503e-01	
   6.0610000e+01	  -7.1144804e-01	   1.6630667e-01	   5.8608237e-01	
   6.0665000e+01	  -3.0116154e-01	  -3.1478777e-02	   3.5910774e-01	
   6.0720000e+01	  -3.5366375e-01	   1.7120038e-02	   3.2073943e-01	
   6.0775000e+01	  -2.0140083e-01	   1.6837935e-01	   2.8710729e-01	
   6.0830000e+01	  -4.3150734e-01	   1.4086202e-01	   8.4613966e-02	
   6.0885000e+01	  -8.6313533e-01	  -1.1181590e-01	   1.7482116e-01	
   6.0940000e+01	  -1.5944962e-04	  -2.1156063e-01	   3.0939278e-01	
   6.0995000e+01	   3.0916799e-01	   1.2155675e-01	   6.2524457e-01	
   6.1050000e+01	   1.9150932e-01	   2.0929278e-01	   7.1437007e-01	
   6.1105000e+01	  -2.0671109e-01	   1.7631464e-01	   8.5887221e-01	
   6.1160000e+01	  -8.4491796e-02	   3.2243573e-01	   6.6408789e-01	
   6.1215000e+01	  -1.8495841e-01	   3.6215760e-01	   5.7169392e-01	
   6.1270000e+01	  -6.1416277e-01	   3.0800826e-01	   3.9961432e-01	
   6.1325000e+01	  -4.6226754e-01	   1.2599106e-01	   6.1300420e-01	
   6.1380000e+01	  -6.4756505e-02	   1.8418759e-01	   5.3271424e-01	
   6.1435000e+01	   1.5849624e-01	   2.5105400e-01	   5.5756163e-01	
   6.1490000e+01	  -1.7016906e-01	   2.6349647e-01	   3.3827911e-01	
   6.1545000e+01	  -1.9018579e-01	   1.0862511e-01	   4.5203759e-01	
   6.1600000e+01	  -1.3695278e-01	  -7.0354972e-02	   4.4555095e-01	
   6.1655000e+01	  -1.5101646e-01	  -9.8883230e-02	   2.1514384e-01	
   6.1710000e+01	  -3.3438378e-01	  -1.9355816e-02	   1.8588472e-01	
   6.1765000e+01	  -1.3718742e-01	  -1.0903634e-01	   3.8646438e-01	
   6.1820000e+01	   3.3192401e-01	   7.0025525e-02	   7.4203308e-01	
   6.1875000e+01	  -2.4898847e-02	   1.5695250e-01	   5.7384673e-01	
   6.1930000e+01	  -1.9192221e-01	   2.3078762e-01	   7.5315028e-01	
   6.1985000e+01	  -3.8381027e-01	   1.4772770e-01	   6.1962467e-01	
   6.2040000e+01	  -2.5664567e-01	   8.9960309e-02	   9.7307364e-01	
   6.2095000e+01	  -1.0462198e-03	   1.8564149e-01	   5.7835425e-01	
   6.2150000e+01	  -1.2599521e-01	   2.7925371e-01	   2.7027226e-01	
   6.2205000e+01	  -5.0629408e-01	   1.8061886e-01	   4.8337277e-01	
   6.2260000e+01	  -5.3583762e-01	   2.0891373e-02	   6.2693485e-01	
   6.2315000e+01	  -6.2375882e-02	   1.0972022e-02	   4.2078515e-01	
   6.2370000e+01	  -3.0941793e-01	   1.1697775e-01	   6.2891263e-02	
   6.2425000e+01	  -5.4198604e-01	   7.3713773e-02	   1.5637870e-01	
   6.2480000e+01	  -5.1032096e-01	  -1.1652172e-01	   3.2523018e-01	
   6.2535000e+01	  -1.0579257e-01	  -2.1324519e-01	   1.3085813e-01	
   6.2590000e+01	  -8.1514063e-02	   1.4133371e-01	   2.8721299e-01	
   6.2645000e+01	   2.1203650e-01	   2.4873902e-01	   3.6934059e-01	
   6.2700000e+01	  -3.1223543e-02	   3.7555667e-01	   9.7761845e-01	
   6.2755000e+01	   6.2463918e-01	   2.7669029e-01	   8.9053782e-01	
   6.2810000e+01	  -5.6453348e-02	   4.1064922e-01	   6.0036119e-01	
   6.2865000e+01	  -2.1772134e-01	   1.8236238e-01	   8.0804786e-01	
   6.2920000e+01	  -7.5585977e-01	   2.7987264e-01	   7.6119473e-01	
   6.2975000e+01	  -3.2815222e-01	   4.3470027e-01	   4.4407018e-01	
   6.3030000e+01	   1.6302040e-01	   4.1730758e-01	   5.0716725e-01	
   6.3085000e+01	  -5.4877608e-01	   2.5580804e-01	   6.2439913e-01	
   6.3140000e+01	  -6.9096318e-01	   2.0731278e-01	   5.4256710e-01	
   6.3195000e+01	   1.8096604e-01	   1.1833963e-01	   5.5195629e-01	
   6.3250000e+01	  -7.2800847e-01	   3.0195948e-01	   5.3453830e-01	
   6.3305000e+01	  -6.0643627e-01	   1.6910067e-01	   2.4016908e-01	
   6.3360000e+01	  -5.5207907e-01	  -1.8443003e-02	   3.5589929e-01	
   6.3415000e+01	  -8.7619821e-02	  -1.5749046e-01	   4.7686414e-01	
   6.3470000e+01	  -4.6499009e-01	   3.6559168e-01	   6.6206611e-01	
   6.3525000e+01	   2.4404586e-01	   3.2581958e-01	   6.7009294e-01	
   6.3580000e+01	  -4.0520455e-01	   4.2494374e-01	   8.1453417e-01	
   6.3635000e+01	  -1.1322780e-02	   5.3047290e-01	   1.0027538e+00	
   6.3690000e+01	  -2.6462360e-01	   6.1108957e-01	   1.1155355e+00	
   6.3745000e+01	  -1.3396789e-01	   5.3525465e-01	   6.8305414e-01	
   6.3800000e+01	  -2.8970709e-01	   3.6905094e-01	   6.8136045e-01	
   6.3855000e+01	   1.1761805e-01	   4.0166056e-01	   8.9349857e-01	
   6.3910000e+01	  -2.2850043e-01	   5.1988495e-01	   6.9790385e-01	
   6.3965000e+01	  -2.7297127e-01	   5.1990463e-01	   7.3255715e-01	
   6.4020000e+01	  -4.9425517e-02	   4.2129783e-01	   6.6420906e-01	
   6.4075000e+01	  -2.2635910e-01	   3.0597354e-01	   7.4759047e-01	
   6.4130000e+01	  -2.1476777e-01	   4.3617577e-01	   4.1816387e-01	
   6.4185000e+01	   1.3862666e-01	   2.6077600e-01	   4.4857226e-01	
   6.4240000e+01	  -3.5314527e-01	   1.8183012e-01	   3.5413225e-01	
   6.4295000e+01	  -1.3682910e-01	   9.8295891e-02	   7.1394239e-01	
   6.4350000e+01	   1.5639163e-01	   5.1238213e-01	   6.2123234e-01	
   6.4405000e+01	   3.2972516e-01	   5.4850733e-01	   8.2606232e-01	
   6.4460000e+01	   5.1195020e-01	   4.3908930e-01	   8.7017967e-01	
   6.4515000e+01	   9.0106733e-02	   4.4375520e-01	   8.1826281e-01	
   6.4570000e+01	   2.4790980e-02	   6.0354417e-01	   8.2409906e-01	
   6.4625000e+01	  -2.8655362e-01	   4.6158184e-01	   8.7362904e-01	
   6.4680000e+01	  -6.0108503e-02	   4.6435354e-01	   8.1763162e-01	
   6.4735000e+01	   3.9166351e-02	   4.4925386e-01	   9.2709235e-01	
   6.4790000e+01	  -3.2619497e-02	   6.1613450e-01	   7.4266895e-01	
   6.4845000e+01	   1.2130122e-01	   4.2169313e-01	   7.2447715e-01	
   6.4900000e+01	   3.8064051e-01	   5.1105676e-01	   5.7448368e-01	
   6.4955000e+01	  -1.9648645e-01	   2.1223074e-01	   4.2070273e-01	
   6.5010000e+01	  -1.1878123e-01	   6.6772568e-02	   5.1136203e-01	
   6.5065000e+01	  -2.5094738e-01	   3.4928426e-01	   4.4748959e-01	
   6.5120000e+01	  -1.2277883e-01	   5.1179934e-01	   7.6196312e-01	
   6.5175000e+01	  -1.2034664e-01	   4.0750484e-01	   8.6653489e-01	
   6.5230000e+01	   1.6069650e-01	   6.5584700e-01	   9.9078403e-01	
   6.5285000e+01	   4.1463062e-01	   7.2762414e-01	   9.0701342e-01	
   6.5340000e+01	  -2.7297127e-01	   4.8942469e-01	   9.4671393e-01	
   6.5395000e+01	  -7.1949282e-03	   3.6465111e-01	   9.2331608e-01	
   6.5450000e+01	   6.8500723e-02	   4.0874406e-01	   9.8765733e-01	
   6.5505000e+01	  -2.0962328e-01	   4.8758200e-01	   7.1924104e-01	
   6.5560000e+01	  -9.3537414e-02	   4.0895792e-01	   5.1079708e-01	
   6.5615000e+01	  -3.1441269e-01	   3.1328319e-01	   7.6194839e-01	
   6.5670000e+01	  -2.0962328e-01	   3.0940094e-01	   6.8477493e-01	
   6.5725000e+01	  -2.1572192e-01	   3.7211770e-01	   3.6973922e-01	
   6.5780000e+01	   1.0458060e-01	   1.9211988e-02	   2.5160012e-01	
   6.5835000e+01	  -1.9882064e-01	   1.3457409e-01	   4.2206687e-01	
   6.5890000e+01	  -1.3430524e-02	   1.3789112e-01	   5.7664401e-01	
   6.5945000e+01	   1.6527894e-01	   2.7347838e-01	   8.2486905e-01	
   6.6000000e+01	   1.6518337e-01	   4.7200925e-01	   5.9541056e-01	
   6.6055000e+01	  -1.4095175e-01	   3.3387775e-01	   9.2116699e-01	
   6.6110000e+01	   1.7108828e-01	   3.9980406e-01	   9.6683359e-01	
   6.6165000e+01	   1.1600683e-01	   5.9331040e-01	   8.2687547e-01	
   6.6220000e+01	   3.2394901e-03	   6.6162666e-01	   7.3316460e-01	
   6.6275000e+01	   1.1134308e-01	   4.2679547e-01	   8.2021190e-01	
   6.6330000e+01	   2.5097902e-01	   3.8758875e-01	   8.0397187e-01	
   6.6385000e+01	  -5.7746046e-02	   5.0691307e-01	   5.6397075e-01	
   6.6440000e+01	   1.2287545e-01	   2.6369400e-01	   4.1855623e-01	
   6.6495000e+01	  -8.1234723e-02	   3.2952811e-01	   6.1111728e-01	
   6.6550000e+01	  -7.4372108e-02	   1.7739700e-01	   6.1181102e-01	
   6.6605000e+01	  -5.7746046e-02	   2.4830873e-01	   4.7578727e-01	
   6.6660000e+01	  -2.9184842e-01	   3.5716563e-01	   3.0751738e-01	
   6.6715000e+01	   1.0263167e-01	   1.6047015e-01	   2.7449416e-01	
   6.6770000e+01	  -1.3783743e-01	  -4.7723119e-02	   1.9973073e-01	
   6.6825000e+01	   3.1363551e-01	   1.9428848e-02	   3.3871030e-01	
   6.6880000e+01	   3.7063381e-01	   1.9826678e-01	   6.3070658e-01	
   6.6935000e+01	   3.7919077e-01	   2.3901220e-01	   6.6855540e-01	
   6.6990000e+01	   2.5038773e-01	   2.3148281e-01	   1.0102576e+00	
   6.7045000e+01	   3.1006447e-01	   3.4612104e-01	   7.2437042e-01	
   6.7100000e+01	   6.0853951e-02	   5.1479789e-01	   6.6236195e-01	
   6.7155000e+01	   3.9166351e-02	   3.9460348e-01	   6.2552384e-01	
   6.7210000e+01	  -1.6519043e-01	   1.9215477e-01	   7.1125865e-01	
   6.7265000e+01	   8.6216532e-02	   2.4566102e-01	   6.7188540e-01	
   6.7320000e+01	   1.8096604e-01	   4.0860951e-01	   5.6557054e-01	
   6.7375000e+01	   1.9874441e-01	   2.1937291e-01	   4.6154964e-01	
   6.7430000e+01	   2.0349527e-01	   2.1868085e-01	   4.9425623e-01	
   6.7485000e+01	   7.5161345e-02	   1.1475016e-01	   3.8668231e-01	
   6.7540000e+01	  -2.2862861e-01	   1.7986258e-01	  -6.0455897e-02	
   6.7595000e+01	  -5.3090091e-01	  -1.2282884e-02	   3.0529793e-01	
   6.7650000e+01	  -5.3818475e-02	   2.1883269e-02	   1.8554434e-01	
   6.7705000e+01	  -2.3417990e-01	  -1.3482612e-01	   2.9042233e-02	
   6.7760000e+01	   4.8881603e-01	  -4.8503776e-02	   1.6912131e-01	
   6.7815000e+01	   2.5194071e-01	  -9.2913474e-03	   4.3836065e-01	
   6.7870000e+01	  -2.9752985e-03	   1.1444043e-01	   5.1118876e-01	
   6.7925000e+01	   2.8700821e-01	   1.1495409e-01	   4.9241307e-01	
   6.7980000e+01	  -2.5018311e-02	   1.6428021e-01	   4.3796532e-01	
   6.8035000e+01	  -1.2900869e-01	   1.7511007e-01	   4.4131512e-01	
   6.8090000e+01	  -2.3974031e-01	   1.6856436e-01	   6.7660017e-01	
   6.8145000e+01	  -2.7841770e-01	  -1.2440976e-02	   5.7937988e-01	
   6.8200000e+01	   9.2012052e-02	   5.1093071e-02	   2.7738637e-01	
   6.8255000e+01	  -4.6563650e-01	   1.1838462e-01	   1.9294061e-01	
   6.8310000e+01	  -3.1715028e-01	   7.2535925e-02	   3.1520730e-02	
   6.8365000e+01	  -2.0404902e-02	  -8.7972850e-02	   1.8801097e-01	
   6.8420000e+01	  -7.6778517e-02	  -1.6660435e-01	   2.9323678e-02	
   6.8475000e+01	  -3.7038719e-01	  -2.3107786e-01	  -5.6657782e-02	
   6.8530000e+01	  -2.0252173e-02	  -1.7290047e-01	  -7.5609123e-02	
   6.8585000e+01	   7.5680004e-02	  -3.0326849e-01	   1.7726225e-01	
   6.8640000e+01	   2.7143837e-01	   4.1694969e-02	   2.8811092e-01	
   6.8695000e+01	   2.4837367e-01	   1.4707556e-01	   4.9584735e-01	
   6.8750000e+01	  -1.5384600e-01	  -1.3000897e-01	   4.4440293e-01	
   6.8805000e+01	   8.8382498e-02	   1.1054894e-01	   2.0840896e-01	
   6.8860000e+01	  -1.5940567e-01	   7.8505660e-02	   2.0821174e-01	
   6.8915000e+01	  -5.4400351e-01	   1.6398119e-01	   2.4525386e-01	
   6.8970000e+01	  -3.9728431e-01	  -6.5465023e-02	   2.2460321e-01	
   6.9025000e+01	  -2.0962328e-01	  -3.0475140e-01	   2.5337552e-01	
   6.9080000e+01	  -3.1768629e-01	  -4.4222151e-02	   9.8573838e-03	
   6.9135000e+01	  -2.1572192e-01	  -1.2921189e-01	   2.4663450e-02	
   6.9190000e+01	  -2.1476777e-01	  -3.2607252e-01	  -4.5230314e-02	
   6.9245000e+01	  -4.1948684e-01	  -3.8609431e-01	  -9.1908191e-02	
   6.9300000e+01	  -4.3885577e-01	  -4.6995899e-01	  -3.8770499e-02	
   6.9355000e+01	  -1.9778105e-01	  -3.9096531e-01	  -2.8997691e-01	
   6.9410000e+01	  -3.8381027e-01	  -5.2146595e-01	  -2.7226034e-02	
   6.9465000e+01	   3.5762306e-01	  -1.5678386e-01	   1.4205226e-01	
   6.9520000e+01	   2.0073755e-01	  -2.5463546e-01	   2.8671300e-01	
   6.9575000e+01	  -1.9479258e-02	  -2.2536458e-01	   1.9681102e-01	
   6.9630000e+01	  -3.1577584e-01	  -9.7279376e-02	   2.4759948e-01	
   6.9685000e+01	  -6.3665190e-01	  -2.2045226e-01	   3.8990727e-01	
   6.9740000e+01	  -2.2370614e-01	  -3.8886961e-02	   4.8306246e-01	
   6.9795000e+01	  -4.8212441e-01	  -8.1627346e-02	  -7.8678916e-02	
   6.9850000e+01	  -9.9832210e-01	  -2.7036260e-01	  -9.3014464e-03	
   6.9905000e+01	  -4.7935008e-01	  -3.2717832e-01	   1.7785509e-01	
   6.9960000e+01	   1.9353218e-02	  -2.0732990e-01	   5.1426312e-02	
   7.0015000e+01	  -8.4824643e-01	  -2.1502077e-01	  -1.6140112e-01	
   7.0070000e+01	  -7.4017519e-01	  -3.1889042e-01	  -4.8496446e-02	
   7.0125000e+01	  -5.9260330e-01	  -5.0728823e-01	  -4.2874867e-01	
   7.0180000e+01	  -7.5585977e-01	  -4.3361703e-01	  -2.5182866e-01	
   7.0235000e+01	  -2.5872566e-01	  -4.2853951e-01	  -4.6614648e-01	
   7.0290000e+01	  -8.0830447e-01	  -5.9934220e-01	  -3.1178699e-01	
   7.0345000e+01	  -2.6509264e-01	  -5.6983079e-01	   3.0047417e-01	
   7.0400000e+01	   6.2132231e-02	  -4.2822597e-01	   2.5392493e-01	
   7.0455000e+01	  -5.5781981e-02	  -1.3102267e-01	   1.9327187e-01	
   7.0510000e+01	  -5.0629408e-01	  -1.0853668e-02	   5.8281704e-02	
   7.0565000e+01	  -3.5852459e-01	  -2.6249677e-01	   2.4770271e-01	
   7.0620000e+01	  -5.2144477e-02	  -2.5056657e-01	   2.2827361e-01	
   7.0675000e+01	  -7.2706768e-01	  -1.2158982e-02	   7.0019768e-02	
   7.0730000e+01	  -4.8453452e-01	  -1.8274626e-01	   5.1877297e-02	
   7.0785000e+01	  -8.6687944e-01	  -3.2382289e-01	   1.6793825e-01	
   7.0840000e+01	  -6.4815554e-01	  -3.6592408e-01	  -5.2703555e-03	
   7.0895000e+01	  -8.9617678e-01	  -3.1912208e-01	  -3.6532994e-01	
   7.0950000e+01	  -1.2310459e+00	  -2.8329413e-01	  -3.3170228e-01	
   7.1005000e+01	  -1.0694354e+00	  -4.1124857e-01	  -2.4876987e-01	
   7.1060000e+01	  -9.0351314e-01	  -5.4260503e-01	  -2.1137222e-01	
   7.1115000e+01	  -7.0465198e-01	  -6.7518361e-01	  -5.5127346e-01	
   7.1170000e+01	  -5.5997512e-01	  -6.4350275e-01	  -6.1308384e-01	
   7.1225000e+01	  -7.8425400e-01	  -5.8952179e-01	   5.1147656e-02	
   7.1280000e+01	  -3.9597384e-01	  -4.8261820e-01	  -1.4751884e-01	
   7.1335000e+01	  -7.1192057e-01	  -3.1500043e-01	   1.8970115e-01	
   7.1390000e+01	  -4.9497405e-01	  -1.0461373e-01	  -2.8509417e-02	
   7.1445000e+01	  -5.6982316e-01	  -2.9069111e-01	   2.5528801e-01	
   7.1500000e+01	  -6.0206108e-01	  -4.8708703e-01	   1.7813764e-01	
   7.1555000e+01	  -6.0469594e-01	  -2.8367088e-01	  -1.6693047e-01	
   7.1610000e+01	  -8.1389114e-01	  -2.5551404e-01	   2.5645107e-02	
   7.1665000e+01	  -1.2490436e+00	  -3.4396568e-01	  -5.5148768e-02	
   7.1720000e+01	  -1.2768224e+00	  -4.9534775e-01	  -8.4744271e-02	
   7.1775000e+01	  -8.8909829e-01	  -6.1246131e-01	  -1.4042595e-01	
   7.1830000e+01	  -7.4835676e-01	  -4.1068392e-01	  -3.8880614e-01	
   7.1885000e+01	  -9.0054174e-01	  -6.6136415e-01	  -5.9029823e-01	
   7.1940000e+01	  -9.8702017e-01	  -7.9915020e-01	  -5.8978102e-01	
   7.1995000e+01	  -8.0935333e-01	  -6.2502926e-01	  -4.3222063e-01	
   7.2050000e+01	  -8.4261137e-01	  -5.4215950e-01	  -3.9695983e-01	
   7.2105000e+01	  -5.4791363e-01	  -5.1962693e-01	  -3.1657071e-01	
   7.2160000e+01	  -7.4373941e-01	  -4.2185770e-01	   4.5363054e-02	
   7.2215000e+01	  -7.4633561e-01	  -3.3586352e-01	   3.6736828e-03	
   7.2270000e+01	  -9.3699202e-01	  -3.4686929e-01	  -1.3705746e-01	
   7.2325000e+01	  -7.4757199e-01	  -4.6130939e-01	  -1.5672372e-01	
   7.2380000e+01	  -1.3819340e+00	  -5.7707844e-01	  -7.5070730e-03	
   7.2435000e+01	  -1.0944290e+00	  -4.3387593e-01	  -1.1306389e-01	
   7.2490000e+01	  -1.3574897e+00	  -3.1961263e-01	  -4.3008725e-01	
   7.2545000e+01	  -9.4185692e-01	  -3.6087143e-01	  -2.9984364e-01	
   7.2600000e+01	  -1.0593800e+00	  -7.2658042e-01	  -3.0948806e-01	
   7.2655000e+01	  -6.2926607e-01	  -7.1138190e-01	  -3.0821457e-01	
   7.2710000e+01	  -9.7507531e-01	  -5.4002244e-01	  -5.8703373e-01	
   7.2765000e+01	  -1.2101726e+00	  -7.0179403e-01	  -4.8161767e-01	
   7.2820000e+01	  -1.1592399e+00	  -8.7488676e-01	  -4.8609534e-01	
   7.2875000e+01	  -8.3143815e-01	  -6.1249552e-01	  -2.1480166e-01	
   7.2930000e+01	  -9.0707799e-01	  -3.8485879e-01	  -1.6758089e-01	
   7.2985000e+01	  -9.6317679e-01	  -4.2537804e-01	  -1.6281088e-01	
   7.3040000e+01	  -1.0152637e+00	  -4.7836030e-01	  -1.0280828e-01	
   7.3095000e+01	  -9.1258638e-01	  -5.1890868e-01	   1.7205401e-01	
   7.3150000e+01	  -1.3115027e+00	  -3.1833094e-01	   4.3236451e-02	
   7.3205000e+01	  -1.2532619e+00	  -3.9929554e-01	  -1.0849990e-01	
   7.3260000e+01	  -1.1333561e+00	  -4.8893456e-01	  -2.1615664e-01	
   7.3315000e+01	  -1.4242920e+00	  -6.8704603e-01	  -2.3019329e-01	
   7.3370000e+01	  -9.7060775e-01	  -4.9708982e-01	  -3.0054319e-01	
   7.3425000e+01	  -1.5169405e+00	  -5.1530992e-01	  -5.8097672e-01	
   7.3480000e+01	  -1.3659617e+00	  -6.7822541e-01	  -2.4021242e-01	
   7.3535000e+01	  -1.5988546e+00	  -7.6540261e-01	  -3.9925304e-01	
   7.3590000e+01	  -1.1327645e+00	  -7.3906778e-01	  -7.1872765e-01	
   7.3645000e+01	  -1.2260901e+00	  -7.4566382e-01	  -6.0574353e-01	
   7.3700000e+01	  -5.6391894e-01	  -6.8760378e-01	   3.7620996e-02	
   7.3755000e+01	  -8.3150470e-01	  -4.8678072e-01	   5.7108115e-02	
   7.3810000e+01	  -8.8421332e-01	  -3.7550186e-01	  -3.9548468e-02	
   7.3865000e+01	  -8.3186680e-01	  -3.1383212e-01	   6.3367874e-02	
   7.3920000e+01	  -1.1604857e+00	  -3.9767922e-01	   2.5300520e-01	
   7.3975000e+01	  -1.2034041e+00	  -4.1823857e-01	   2.2143332e-01	
   7.4030000e+01	  -1.0909370e+00	  -1.5574605e-01	  -5.6103373e-02	
   7.4085000e+01	  -1.0959490e+00	  -3.1224044e-01	   6.3737411e-02	
   7.4140000e+01	  -1.2771995e+00	  -3.8399889e-01	  -3.5074864e-02	
   7.4195000e+01	  -8.6612315e-01	  -4.1256235e-01	   4.0877786e-02	
   7.4250000e+01	  -9.3828247e-01	  -3.9910061e-01	  -1.3461314e-01	
   7.4305000e+01	  -1.3118655e+00	  -5.7156196e-01	  -2.8915627e-01	
   7.4360000e+01	  -1.0345233e+00	  -5.6773199e-01	  -1.9329587e-01	
   7.4415000e+01	  -1.1227804e+00	  -4.9256943e-01	  -3.4802186e-01	
   7.4470000e+01	  -1.6121287e+00	  -6.6095924e-01	  -4.1418020e-01	
   7.4525000e+01	  -1.0826407e+00	  -6.2378599e-01	  -1.3058555e-01	
   7.4580000e+01	  -1.0334990e+00	  -3.8769879e-01	   1.4927341e-01	
   7.4635000e+01	  -1.1519615e+00	  -3.7777118e-01	   3.4415634e-01	
   7.4690000e+01	  -9.8494403e-01	  -2.1353249e-01	   4.5713265e-01	
   7.4745000e+01	  -1.4356381e+00	  -1.7225660e-01	   3.3474710e-01	
   7.4800000e+01	  -9.1427326e-01	  -1.8644094e-01	   2.5458174e-01	
   7.4855000e+01	  -9.8161698e-01	  -2.8448421e-01	   4.3996296e-01	
   7.4910000e+01	  -1.1404164e+00	  -3.1036278e-01	   2.2320952e-01	
   7.4965000e+01	  -1.1240420e+00	  -1.0873715e-01	   2.1213547e-01	
   7.5020000e+01	  -1.0480249e+00	  -9.5019625e-02	   1.1740613e-01	
   7.5075000e+01	  -1.3387950e+00	  -3.4142196e-01	   4.7706846e-02	
   7.5130000e+01	  -1.0345233e+00	  -2.5123529e-01	   1.3521483e-01	
   7.5185000e+01	  -8.8741018e-01	  -1.7484560e-01	   1.6098733e-02	
   7.5240000e+01	  -1.3192720e+00	  -4.5060185e-01	  -1.0165212e-01	
   7.5295000e+01	  -1.3660549e+00	  -5.4617357e-01	   1.0434459e-01	
   7.5350000e+01	  -1.1727220e+00	  -5.0761076e-01	  -3.5011499e-01	
   7.5405000e+01	  -1.3508239e+00	  -3.6293869e-01	   3.4480861e-02	
   7.5460000e+01	  -9.0502734e-01	  -2.6082391e-01	   2.0908343e-01	
   7.5515000e+01	  -7.8276564e-01	  -3.8113940e-01	   4.3787763e-01	
   7.5570000e+01	  -9.1800239e-01	  -5.7655541e-02	   5.0035757e-01	
   7.5625000e+01	  -8.8498054e-01	  -9.9413605e-02	   3.3859742e-01	
   7.5680000e+01	  -8.8498054e-01	  -2.5848512e-03	   3.2356988e-01	
   7.5735000e+01	  -1.4508181e+00	  -2.2167756e-01	   2.9744024e-01	
   7.5790000e+01	  -1.0000487e+00	  -7.1690533e-02	   5.4461568e-01	
   7.5845000e+01	  -1.2536708e+00	  -1.0351240e-01	   1.9925765e-01	
   7.5900000e+01	  -1.1810732e+00	  -8.4061850e-02	   2.3930132e-01	
   7.5955000e+01	  -1.3621576e+00	  -2.8133641e-01	   3.5326469e-01	
   7.6010000e+01	  -8.8220163e-01	  -1.5717848e-01	   2.7562989e-01	
   7.6065000e+01	  -9.7298116e-01	  -2.8713005e-01	  -1.5067706e-01	
   7.6120000e+01	  -1.2156890e+00	  -1.5205305e-01	  -4.8496446e-02	
   7.6175000e+01	  -9.3277495e-01	  -4.7566889e-01	   1.4978949e-01	
   7.6230000e+01	  -1.3582048e+00	  -3.7989960e-01	   1.2712838e-01	
   7.6285000e+01	  -1.0266160e+00	  -1.2493493e-01	   1.9424295e-01	
   7.6340000e+01	  -1.0707400e+00	  -1.5221957e-01	   2.1168437e-01	
   7.6395000e+01	  -8.1789417e-01	  -1.3354929e-01	   4.3615890e-01	
   7.6450000e+01	  -7.2121469e-01	  -2.2732316e-01	   4.6505410e-01	
   7.6505000e+01	  -6.8640846e-01	   4.7631030e-03	   5.0035757e-01	
   7.6560000e+01	  -9.3062720e-01	   1.5602007e-01	   4.7298414e-01	
   7.6615000e+01	  -1.0292562e+00	  -7.7018048e-02	   2.8443568e-01	
   7.6670000e+01	  -8.7940425e-01	  -1.5921541e-01	   9.5977461e-02	
   7.6725000e+01	  -9.9701349e-01	  -6.0185036e-02	   1.1361429e-01	
   7.6780000e+01	  -5.0187676e-01	  -2.1427936e-01	   1.4091820e-01	
   7.6835000e+01	  -1.0944290e+00	  -2.9765132e-01	  -8.0679656e-02	
   7.6890000e+01	  -1.0933602e+00	  -2.3505186e-01	   5.8268114e-02	
   7.6945000e+01	  -1.0527238e+00	  -2.9633240e-01	   1.0826841e-02	
   7.7000000e+01	  -1.0586943e+00	  -4.3245367e-01	  -2.6344821e-01	
   7.7055000e+01	  -1.2375887e+00	  -2.8444021e-01	   4.9555747e-02	
   7.7110000e+01	  -8.6201357e-01	  -2.1781798e-01	   4.5048702e-01	
   7.7165000e+01	  -7.2407819e-01	  -3.9652770e-02	   4.2356206e-01	
   7.7220000e+01	  -6.4803770e-01	   3.4012321e-02	   6.4042351e-01	
   7.7275000e+01	  -8.0951025e-01	   7.7890193e-02	   5.5400603e-01	
   7.7330000e+01	  -7.8034079e-01	   6.6785755e-03	   8.0871843e-01	
   7.7385000e+01	  -9.5418886e-01	  -3.0597542e-03	   2.7099204e-01	
   7.7440000e+01	  -3.8216856e-01	   4.8800202e-03	   2.7977357e-01	
   7.7495000e+01	  -9.7375277e-01	  -1.0314969e-01	   3.0386702e-01	
   7.7550000e+01	  -9.5787592e-01	  -3.0342171e-01	   3.9854347e-01	
   7.7605000e+01	  -7.0019376e-01	  -1.5846190e-01	   2.4330131e-01	
   7.7660000e+01	  -9.2300576e-01	  -2.0373019e-02	   9.4065114e-02	
   7.7715000e+01	  -1.0546204e+00	  -3.0492402e-01	  -3.6948539e-03	
   7.7770000e+01	  -9.3828247e-01	  -3.5475173e-01	   1.2547877e-01	
   7.7825000e+01	  -6.8884976e-01	  -2.1642773e-01	  -9.4871984e-02	
   7.7880000e+01	  -1.0088018e+00	  -4.3687299e-01	  -2.5376431e-01	
   7.7935000e+01	  -6.5044206e-01	  -2.2194760e-01	   4.2756745e-01	
   7.7990000e+01	  -8.6364034e-01	  -2.4856562e-01	   7.4536558e-01	
   7.8045000e+01	  -4.3791312e-01	  -1.0980762e-02	   7.3414663e-01	
   7.8100000e+01	  -4.7720012e-01	   1.9451351e-01	   5.7978649e-01	
   7.8155000e+01	  -7.1014864e-01	   6.6805788e-03	   3.9622450e-01	
   7.8210000e+01	  -6.5620537e-01	   9.2113580e-02	   5.4046593e-01	
   7.8265000e+01	  -1.0539890e+00	  -9.8989111e-02	   6.6234611e-01	
   7.8320000e+01	  -4.2113806e-01	   7.0674097e-02	   3.2207965e-01	
   7.8375000e+01	  -6.1514878e-01	  -5.0597205e-02	   2.9199704e-01	
   7.8430000e+01	  -7.7779399e-01	  -5.5867845e-02	   5.5148295e-01	
   7.8485000e+01	  -8.1533976e-01	  -2.4741098e-01	   3.9861607e-01	
   7.8540000e+01	  -6.3175141e-01	  -4.8858930e-03	   2.6549547e-01	
   7.8595000e+01	  -1.2220241e+00	  -1.6075254e-01	   9.1101747e-02	
   7.8650000e+01	  -4.8888129e-01	  -4.9743772e-01	   1.7437364e-01	
   7.8705000e+01	  -8.9095508e-01	  -3.9952656e-01	   1.4514086e-01	
   7.8760000e+01	  -1.2992217e+00	  -3.0241585e-01	   1.7267896e-02	
   7.8815000e+01	  -9.1896055e-01	  -2.0920724e-01	   3.2384957e-01	
   7.8870000e+01	  -7.8415886e-01	  -1.9885727e-01	   6.2081552e-01	
   7.8925000e+01	  -9.5454447e-02	  -8.8906212e-02	   7.4956064e-01	
   7.8980000e+01	  -9.3586287e-02	   1.1945357e-01	   5.1336868e-01	
   7.9035000e+01	  -6.3398794e-01	   2.4931775e-02	   6.4042351e-01	
   7.9090000e+01	  -8.4908479e-01	   1.2765477e-01	   6.3875560e-01	
   7.9145000e+01	  -3.9223200e-01	  -1.2907305e-01	   7.7525500e-01	
   7.9200000e+01	  -2.9925098e-01	   6.6956336e-03	   4.7298414e-01	
   7.9255000e+01	  -7.6990635e-01	  -2.0731248e-01	   3.4818943e-01	
   7.9310000e+01	  -1.0110627e+00	  -8.0610419e-02	   4.7242765e-01	
   7.9365000e+01	  -5.4214880e-01	  -2.1029038e-02	   3.9085893e-01	
   7.9420000e+01	  -3.7545366e-01	  -1.5892967e-01	   2.5877677e-01	
   7.9475000e+01	  -2.4251322e-01	  -1.8521491e-01	   1.0410020e-01	
   7.9530000e+01	  -8.5242596e-01	  -3.4385612e-01	   2.5955480e-01	
   7.9585000e+01	  -4.9006621e-01	  -4.1216400e-01	   5.1231552e-02	
   7.9640000e+01	  -3.0135105e-01	  -1.8099213e-01	   3.2135870e-01	
   7.9695000e+01	  -3.7514548e-01	  -6.1918939e-02	   5.3579065e-01	
   7.9750000e+01	  -6.2027378e-01	  -4.9060800e-02	   5.3636273e-01	
   7.9805000e+01	  -2.9288813e-01	  -5.3125888e-03	   6.6016704e-01	
   7.9860000e+01	  -2.7165385e-01	  -2.1420822e-01	   5.0005678e-01	
   7.9915000e+01	  -5.7188127e-01	   6.3980721e-02	   5.2966107e-01	
   7.9970000e+01	  -6.9169294e-01	  -1.4090644e-01	   4.9476395e-01	
   8.0025000e+01	  -4.0650050e-01	  -2.0928786e-01	   5.4641724e-01	
   8.0080000e+01	  -2.5730587e-01	   3.9521890e-02	   3.9097006e-01	
   8.0135000e+01	  -7.1596925e-01	  -6.2431837e-02	   1.8077452e-01	
   8.0190000e+01	  -1.1241114e+00	  -2.1477352e-01	   1.6328344e-01	
   8.0245000e+01	  -7.3005421e-01	  -3.7203020e-01	   5.5242302e-01	
   8.0300000e+01	  -2.1494653e-01	  -2.9759953e-01	   2.2862473e-02	
   8.0355000e+01	  -6.0469594e-01	  -4.1755258e-01	  -1.5648388e-01	
   8.0410000e+01	  -8.4034505e-01	  -4.4237176e-01	  -6.2273838e-02	
   8.0465000e+01	   7.1267778e-02	  -1.9112981e-01	   4.4674491e-01	
   8.0520000e+01	  -6.5526454e-01	   8.5198847e-02	   3.0527185e-01	
   8.0575000e+01	  -3.0619500e-01	   1.7634006e-01	   5.9200506e-01	
   8.0630000e+01	  -5.4558973e-01	  -1.0625515e-01	   6.2883296e-01	
   8.0685000e+01	  -1.2042997e-01	   1.9440411e-02	   8.1759032e-01	
   8.0740000e+01	  -3.6425164e-01	  -1.7015450e-02	   6.9143953e-01	
   8.0795000e+01	  -7.2235633e-01	   2.4592032e-02	   5.2128696e-01	
   8.0850000e+01	  -3.2371940e-01	   3.4322299e-02	   4.1412297e-01	
   8.0905000e+01	  -2.7165385e-01	  -2.6141590e-02	   4.2160905e-01	
   8.0960000e+01	  -2.0910672e-01	   2.1594833e-02	   5.6044918e-01	
   8.1015000e+01	  -3.3428891e-01	  -2.9665932e-01	   2.6109302e-01	
   8.1070000e+01	  -6.3489900e-01	  -1.3525621e-01	   2.1891815e-01	
   8.1125000e+01	  -4.3240286e-01	  -3.4872703e-01	   3.0696977e-01	
   8.1180000e+01	  -5.3947278e-01	  -3.8967958e-01	   8.1625298e-04	
   8.1235000e+01	  -2.9184842e-01	  -2.0784030e-01	   3.3923812e-01	
   8.1290000e+01	  -9.7628458e-02	   5.5444331e-02	   5.5786943e-01	
   8.1345000e+01	  -7.5520352e-02	  -1.0958430e-02	   8.2113200e-01	
   8.1400000e+01	  -6.4756505e-02	  -1.5975185e-01	   7.6706582e-01	
   8.1455000e+01	  -2.0118542e-01	   1.3923119e-01	   6.5288956e-01	
   8.1510000e+01	  -3.1441269e-01	   9.3179431e-02	   5.9934980e-01	
   8.1565000e+01	  -3.5345998e-01	   1.2599737e-02	   8.5781719e-01	
   8.1620000e+01	   1.1486417e-01	   6.8554212e-02	   7.5635628e-01	
   8.1675000e+01	  -4.6276435e-01	   3.1808314e-03	   7.4045973e-01	
   8.1730000e+01	  -1.7298004e-01	   9.2629233e-02	   6.0953782e-01	
   8.1785000e+01	  -1.9426354e-01	  -2.9560100e-01	   6.0342933e-01	
   8.1840000e+01	  -2.6800183e-01	  -9.4265390e-02	   2.4274462e-01	
   8.1895000e+01	  -7.4843486e-01	   1.2621177e-01	   1.5308552e-01	
   8.1950000e+01	  -6.5247644e-01	  -1.5188900e-02	   3.0733761e-01	
   8.2005000e+01	  -3.7776069e-01	  -2.4606924e-01	   2.3349182e-01	
   8.2060000e+01	  -1.5631461e-01	  -3.5368064e-01	   1.3843593e-01	
   8.2115000e+01	   2.7828583e-01	  -1.1120523e-02	   6.6600887e-01	
   8.2170000e+01	   5.0635313e-01	   7.8902433e-02	   4.8982665e-01	
   8.2225000e+01	   2.1610214e-01	   9.7090829e-02	   9.4956114e-01	
   8.2280000e+01	  -6.7050180e-02	   1.4495263e-01	   8.0546696e-01	
   8.2335000e+01	   9.4013917e-02	   2.0332710e-01	   6.8102819e-01	
   8.2390000e+01	  -9.5967490e-02	   2.3034112e-01	   7.0973429e-01	
   8.2445000e+01	   4.3295504e-01	   1.5144336e-01	   7.4635401e-01	
   8.2500000e+01	   1.0435971e-01	  -9.6369766e-02	   5.8889549e-01	
   8.2555000e+01	   5.0655882e-01	   1.8609034e-01	   5.2714289e-01	
   8.2610000e+01	  -4.8845974e-01	   1.3736865e-01	   6.8050818e-01	
   8.2665000e+01	   1.8320886e-02	  -1.1241337e-01	   5.9898617e-01	
   8.2720000e+01	   4.4220981e-02	  -2.8301043e-02	   5.3321663e-01	
   8.2775000e+01	  -6.0108503e-02	   4.4331283e-02	   4.3233704e-01	
   8.2830000e+01	   1.4170720e-01	  -8.2601745e-02	   1.3466144e-01	
   8.2885000e+01	  -2.0930063e-01	  -9.6413660e-02	   3.2150199e-01	
   8.2940000e+01	   2.7828583e-01	  -1.4228679e-01	   7.0082359e-01	
   8.2995000e+01	   5.1649144e-01	   1.6998888e-01	   5.3035383e-01	
   8.3050000e+01	   3.6470069e-01	   3.0508404e-02	   8.4695895e-01	
   8.3105000e+01	   3.9022499e-01	   1.2773199e-01	   7.3474036e-01	
   8.3160000e+01	  -3.0917920e-02	   6.7361102e-02	   7.6155574e-01	
   8.3215000e+01	   3.4103187e-01	   1.4888085e-01	   6.7589863e-01	
   8.3270000e+01	   2.4672213e-02	   2.4508581e-01	   7.7352713e-01	
   8.3325000e+01	  -3.7041213e-02	  -7.5596246e-04	   7.1293353e-01	
   8.3380000e+01	   2.0011564e-01	  -7.6081736e-03	   7.3922863e-01	
   8.3435000e+01	   3.2404562e-01	   1.1705977e-02	   5.5398754e-01	
   8.3490000e+01	   8.2134284e-02	   1.1487992e-01	   3.8252876e-01	
   8.3545000e+01	  -3.8159466e-01	  -1.0168645e-01	   3.6243776e-01	
   8.3600000e+01	  -2.2431428e-02	  -2.2644988e-01	   3.6691589e-01	
   8.3655000e+01	   2.2269510e-02	  -1.6874922e-01	   1.5367934e-01	
   8.3710000e+01	  -2.0817099e-01	  -8.0904225e-02	   9.7174914e-02	
   8.3765000e+01	   6.3093487e-01	   1.0811727e-01	   6.3455217e-01	
   8.3820000e+01	   3.6855016e-01	   1.2978331e-02	   9.0820851e-01	
   8.3875000e+01	   4.9406463e-01	   2.1253814e-01	   5.7809018e-01	
   8.3930000e+01	   2.5258185e-01	   2.9407832e-01	   6.5903162e-01	
   8.3985000e+01	   2.4369842e-01	   4.6083043e-02	   8.4478037e-01	
   8.4040000e+01	   1.7108828e-01	  -2.1277625e-02	   6.4941241e-01	
   8.4095000e+01	   3.1515036e-01	   1.7514330e-01	   7.0141833e-01	
   8.4150000e+01	   6.0853951e-02	   2.8570927e-01	   6.3188506e-01	
   8.4205000e+01	  -1.5371050e-01	   8.7496536e-02	   5.0259911e-01	
   8.4260000e+01	   1.7108828e-01	  -6.3835316e-02	   4.0945168e-01	
   8.4315000e+01	   1.3975705e-01	  -4.4551398e-02	   3.8845867e-01	
   8.4370000e+01	  -4.7875110e-02	  -2.0310586e-01	   3.5068124e-01	
   8.4425000e+01	  -2.5619172e-01	  -3.1008437e-01	   2.0447237e-01	
   8.4480000e+01	  -1.1433800e-01	  -3.2273445e-01	   2.6724335e-01	
   8.4535000e+01	   3.2369948e-01	  -3.0374077e-01	   2.6481100e-01	
   8.4590000e+01	   1.0561663e+00	  -5.9175030e-02	   6.0738647e-01	
   8.4645000e+01	   7.0060232e-01	   2.0791486e-01	   4.0622031e-01	
   8.4700000e+01	   7.8040676e-01	   2.0214761e-01	   8.3325342e-01	
   8.4755000e+01	   7.3080404e-01	   3.0551328e-01	   7.4288735e-01	
   8.4810000e+01	   9.5467166e-01	   1.5819572e-01	   5.9759571e-01	
   8.4865000e+01	   7.4478224e-01	   1.4840157e-01	   5.8976957e-01	
   8.4920000e+01	   1.3318739e-01	   1.8092113e-01	   6.5207053e-01	
   8.4975000e+01	   3.2975370e-02	   7.3201429e-02	   5.0796423e-01	
   8.5030000e+01	  -2.0252173e-02	   1.3886300e-01	   4.6748759e-01	
   8.5085000e+01	   1.3318739e-01	  -3.2914705e-03	   4.2298131e-01	
   8.5140000e+01	   3.3082488e-01	  -1.0543799e-01	   4.9221133e-01	
   8.5195000e+01	   1.1177288e-01	  -2.0491895e-01	   2.7383421e-01	
   8.5250000e+01	   3.6193434e-01	  -6.7942097e-02	   1.6635576e-01	
   8.5305000e+01	  -8.9491021e-02	  -9.8487440e-02	   2.7487711e-02	
   8.5360000e+01	  -1.7015699e-01	  -3.2484264e-01	   1.1222483e-01	
   8.5415000e+01	   1.2377882e-01	  -3.3010475e-01	   9.3261600e-02	
   8.5470000e+01	   5.2696750e-01	  -1.5751496e-01	   1.9627582e-01	
   8.5525000e+01	   9.2352176e-01	  -1.0251364e-01	   5.6445003e-01	
   8.5580000e+01	   5.5646929e-01	  -8.8113322e-02	   4.4628788e-01	
   8.5635000e+01	   7.2410662e-01	   1.7058942e-02	   6.7028691e-01	
   8.5690000e+01	   4.7073038e-01	   1.2006429e-01	   8.1861186e-01	
   8.5745000e+01	   4.3318270e-01	   9.9076049e-02	   3.7245262e-01	
   8.5800000e+01	   3.2972516e-01	   5.1865050e-02	   6.7917444e-01	
   8.5855000e+01	   2.7677175e-01	   8.1973960e-02	   4.4108401e-01	
   8.5910000e+01	  -2.0252173e-02	   1.1443249e-01	   2.6818935e-01	
   8.5965000e+01	  -9.4902955e-02	   6.7796212e-02	   1.8081163e-01	
   8.6020000e+01	   3.6193434e-01	  -1.9106646e-01	   3.6380860e-01	
   8.6075000e+01	   1.4573203e-01	  -1.3028187e-01	   1.6493175e-01	
   8.6130000e+01	   2.2718156e-01	  -8.3314609e-02	   2.2847289e-02	
   8.6185000e+01	   9.3102874e-02	  -2.0581018e-01	  -1.0109899e-01	
   8.6240000e+01	   5.6482399e-02	  -1.7397046e-01	  -2.6973162e-02	
   8.6295000e+01	  -1.2344956e-01	  -4.3678599e-01	  -1.9238069e-01	
   8.6350000e+01	   8.3695049e-01	  -4.6009850e-01	   8.9436989e-03	
   8.6405000e+01	   8.2382622e-01	  -7.8631289e-03	   1.2025301e-01	
   8.6460000e+01	   7.6591596e-01	  -1.9043920e-01	   4.2074490e-01	
   8.6515000e+01	   6.7176285e-01	  -9.4945197e-02	   2.7584379e-01	
   8.6570000e+01	   2.7754910e-01	   8.9876526e-02	   3.1785452e-01	
   8.6625000e+01	   1.8052985e-01	   8.3786076e-03	   3.9894714e-01	
   8.6680000e+01	   4.8881603e-01	   2.1553865e-02	   5.7195998e-01	
   8.6735000e+01	   1.2865438e-01	  -2.0715482e-01	   3.1537264e-01	
   8.6790000e+01	   3.2404562e-01	   1.1485969e-02	   2.6638815e-01	
   8.6845000e+01	  -8.4145463e-02	  -5.9354205e-02	   1.7972459e-01	
   8.6900000e+01	  -2.4316569e-01	  -1.9000273e-01	   4.1654763e-02	
   8.6955000e+01	   1.0101405e-01	  -3.1535880e-01	  -3.9861643e-02	
   8.7010000e+01	  -6.1358105e-02	  -2.8175981e-01	  -2.5120737e-01	
   8.7065000e+01	   6.1874166e-02	  -3.4906641e-01	  -2.1700602e-01	
   8.7120000e+01	  -5.3976054e-03	  -4.9141263e-01	  -3.0580736e-01	
   8.7175000e+01	   1.9206259e-01	  -5.2437724e-01	  -1.3220799e-01	
   8.7230000e+01	   6.7390810e-01	  -2.2681449e-01	   1.0835228e-01	
   8.7285000e+01	   9.3000649e-01	   2.4579064e-02	   1.2965734e-01	
   8.7340000e+01	   4.0067851e-01	  -1.5480733e-01	   2.8054984e-01	
   8.7395000e+01	   3.4879216e-01	  -1.1928908e-01	   3.5577467e-01	
   8.7450000e+01	   1.4376752e-01	  -6.4253858e-02	   6.2571871e-02	
   8.7505000e+01	   2.3560503e-01	  -5.5479318e-03	   2.5337321e-01	
   8.7560000e+01	   6.9176545e-02	  -2.5342452e-01	   1.8160652e-01	
   8.7615000e+01	   1.2456424e-01	  -2.0672203e-01	   1.1421165e-01	
   8.7670000e+01	   1.5200182e-01	  -1.1344441e-01	   3.8634150e-02	
   8.7725000e+01	  -1.1752876e-01	  -2.3047267e-01	  -3.4076395e-01	
   8.7780000e+01	  -6.5121046e-01	  -4.2519488e-01	  -4.9421606e-02	
   8.7835000e+01	   6.6888262e-02	  -3.1076664e-01	  -2.0172006e-01	
   8.7890000e+01	  -2.0140083e-01	  -3.0407885e-01	  -3.1879340e-01	
   8.7945000e+01	   1.7735807e-01	  -3.2727855e-01	  -3.0907318e-01	
   8.8000000e+01	  -3.4747048e-01	  -5.3710000e-01	  -4.0943079e-01	
   8.8055000e+01	   1.6157667e-01	  -7.8262806e-01	  -4.7956026e-01	
   8.8110000e+01	   5.1251576e-01	  -3.8262500e-01	  -3.3053595e-01	
   8.8165000e+01	   6.5532605e-01	  -1.0059942e-01	  -1.0549785e-01	
   8.8220000e+01	   2.6762379e-01	  -2.6208358e-01	   8.6802537e-02	
   8.8275000e+01	   8.2988350e-02	  -2.4593317e-01	   3.3273778e-01	
   8.8330000e+01	   6.7772826e-02	  -6.7627235e-02	   1.5849196e-01	
   8.8385000e+01	  -2.3913881e-01	  -7.4327570e-02	   1.6412884e-01	
   8.8440000e+01	  -3.5046389e-01	  -1.8469010e-01	  -4.2079807e-02	
   8.8495000e+01	  -1.8970549e-01	  -5.5624703e-02	   8.0781581e-02	
   8.8550000e+01	  -5.2726768e-01	  -1.2853462e-01	  -3.8329464e-02	
   8.8605000e+01	  -3.3107493e-01	  -2.4442736e-01	  -1.5810035e-01	
   8.8660000e+01	  -4.8029322e-01	  -4.4800825e-01	  -3.5138503e-01	
   8.8715000e+01	  -4.6226754e-01	  -4.0053476e-01	  -2.4092877e-01	
   8.8770000e+01	  -2.5371633e-01	  -4.0682539e-01	  -5.3606274e-01	
   8.8825000e+01	  -5.2470941e-02	  -2.9310875e-01	  -6.0365859e-01	
   8.8880000e+01	  -7.7217221e-01	  -4.3551571e-01	  -3.9740438e-01	
   8.8935000e+01	  -4.6158386e-01	  -6.7108772e-01	  -6.8296928e-01	
   8.8990000e+01	  -3.6677843e-01	  -7.3291603e-01	  -6.6462095e-01	
   8.9045000e+01	  -1.5333095e-01	  -4.9268921e-01	  -2.1323201e-01	
   8.9100000e+01	   4.0067851e-01	  -3.0530219e-01	  -8.0925042e-03	
   8.9155000e+01	   2.2547216e-01	  -2.8231205e-01	  -1.2996819e-01	
   8.9210000e+01	  -1.9908519e-01	  -3.2167428e-01	   1.9932190e-01	
   8.9265000e+01	  -4.3766430e-01	  -1.7670273e-01	   7.6618813e-02	
   8.9320000e+01	  -6.2706989e-01	  -3.1249944e-01	  -8.3041212e-02	
   8.9375000e+01	  -2.8378891e-01	  -5.2491512e-01	  -8.7229072e-02	
   8.9430000e+01	  -4.0785238e-01	  -3.0077517e-01	  -8.1721699e-02	
   8.9485000e+01	  -5.6982316e-01	  -1.6842242e-01	  -2.1962291e-01	
   8.9540000e+01	  -8.3143815e-01	  -3.5833221e-01	  -1.3504112e-01	
   8.9595000e+01	  -1.0263677e+00	  -4.1663593e-01	  -3.2985284e-01	
   8.9650000e+01	  -6.6686183e-01	  -4.1147716e-01	  -4.6038246e-01	
   8.9705000e+01	  -5.3865798e-01	  -5.4383982e-01	  -7.2163178e-01	
   8.9760000e+01	  -9.1962289e-01	  -5.3257607e-01	  -7.2590565e-01	
   8.9815000e+01	  -8.2751013e-01	  -6.6032693e-01	  -5.7012059e-01	
   8.9870000e+01	  -1.1292006e+00	  -7.8403461e-01	  -5.7912846e-01	
   8.9925000e+01	  -4.9415855e-01	  -5.3793749e-01	  -6.5582069e-01	
   8.9980000e+01	  -5.5984195e-01	  -4.6039921e-01	  -2.0779635e-01	
   9.0035000e+01	  -4.1644837e-01	  -3.4899219e-01	  -2.6797193e-01	
   9.0090000e+01	  -4.6499009e-01	  -3.3614158e-01	  -4.3951112e-02	
   9.0145000e+01	  -8.7175557e-01	  -4.5250702e-01	  -2.7973450e-01	
   9.0200000e+01	  -1.1785957e+00	  -4.4049467e-01	  -2.5208466e-01	
   9.0255000e+01	  -1.0303265e+00	  -4.3601422e-01	  -2.3163928e-01	
   9.0310000e+01	  -7.0465198e-01	  -4.7055046e-01	  -1.8036594e-01	
   9.0365000e+01	  -5.3398033e-01	  -5.4591398e-01	  -6.3198713e-01	
   9.0420000e+01	  -9.1132510e-01	  -3.1521216e-01	  -5.5019297e-01	
   9.0475000e+01	  -1.2093528e+00	  -6.5593045e-01	  -5.1078039e-01	
   9.0530000e+01	  -4.3821537e-01	  -7.9615653e-01	  -4.3802157e-01	
   9.0585000e+01	  -7.7167821e-01	  -6.2252878e-01	  -8.4419058e-01	
   9.0640000e+01	  -1.1946204e+00	  -4.9028473e-01	  -6.1265793e-01	
   9.0695000e+01	  -1.4299543e+00	  -7.5537568e-01	  -9.2632863e-01	
   9.0750000e+01	  -7.6791335e-01	  -8.9934005e-01	  -7.1169520e-01	
   9.0805000e+01	  -5.9931877e-01	  -5.5698859e-01	  -6.2891712e-01	
   9.0860000e+01	  -7.9819500e-01	  -3.7621160e-01	  -4.0816296e-01	
   9.0915000e+01	  -8.5102145e-01	  -5.7673989e-01	  -2.6114327e-01	
   9.0970000e+01	  -1.0525922e+00	  -4.6049570e-01	  -3.4195600e-01	
   9.1025000e+01	  -9.5093288e-01	  -3.7829646e-01	  -3.9987101e-01	
   9.1080000e+01	  -1.2282733e+00	  -4.8090035e-01	  -4.1538415e-01	
   9.1135000e+01	  -1.3739559e+00	  -5.8513482e-01	  -2.2852294e-01	
   9.1190000e+01	  -1.0574576e+00	  -5.2756862e-01	  -4.7436516e-01	
   9.1245000e+01	  -1.2071869e+00	  -6.0221395e-01	  -4.1388820e-01	
   9.1300000e+01	  -8.9134727e-01	  -7.7568223e-01	  -5.3881669e-01	
   9.1355000e+01	  -1.5364287e+00	  -7.4900026e-01	  -5.4425827e-01	
   9.1410000e+01	  -1.4252157e+00	  -9.8678240e-01	  -6.3063109e-01	
   9.1465000e+01	  -7.4017519e-01	  -7.4446821e-01	  -9.7627581e-01	
   9.1520000e+01	  -1.6147427e+00	  -7.1383265e-01	  -9.8366269e-01	
   9.1575000e+01	  -1.6073220e+00	  -1.1691060e+00	  -9.6767914e-01	
   9.1630000e+01	  -1.2048230e+00	  -1.0019719e+00	  -6.1367002e-01	
   9.1685000e+01	  -4.4872601e-01	  -8.0432162e-01	  -4.6745644e-01	
   9.1740000e+01	  -8.5328140e-01	  -5.6569367e-01	  -5.0697497e-01	
   9.1795000e+01	  -1.1070306e+00	  -6.5215844e-01	  -1.5624364e-01	
   9.1850000e+01	  -1.0166653e+00	  -6.2210772e-01	  -2.1575213e-01	
   9.1905000e+01	  -1.1763221e+00	  -5.3219854e-01	  -2.8289658e-01	
   9.1960000e+01	  -1.1883035e+00	  -5.5368741e-01	  -2.9377717e-01	
   9.2015000e+01	  -1.4045199e+00	  -5.4192421e-01	  -9.6307429e-02	
   9.2070000e+01	  -1.2221405e+00	  -8.0337846e-01	  -2.7971889e-01	
   9.2125000e+01	  -1.1044125e+00	  -6.0010223e-01	  -6.4144617e-01	
   9.2180000e+01	  -1.3600801e+00	  -5.3917466e-01	  -5.5457993e-01	
   9.2235000e+01	  -1.4909984e+00	  -7.4572558e-01	  -4.1118167e-01	
   9.2290000e+01	  -1.2349643e+00	  -8.2100208e-01	  -6.6157053e-01	
   9.2345000e+01	  -1.3691452e+00	  -8.4106063e-01	  -7.8806741e-01	
   9.2400000e+01	  -1.5189716e+00	  -8.4233873e-01	  -7.3080616e-01	
   9.2455000e+01	  -1.2073969e+00	  -8.6402423e-01	  -8.9022232e-01	
   9.2510000e+01	  -1.1334552e+00	  -1.0548324e+00	  -7.1964150e-01	
   9.2565000e+01	  -8.9702210e-01	  -6.1944592e-01	  -3.5511031e-01	
   9.2620000e+01	  -8.8988114e-01	  -4.3487580e-01	  -2.4487237e-01	
   9.2675000e+01	  -7.2744127e-01	  -5.0759295e-01	  -2.8091949e-01	
   9.2730000e+01	  -1.0055777e+00	  -6.4345295e-01	  -1.6707570e-01	
   9.2785000e+01	  -9.5907737e-01	  -4.4490873e-01	  -3.4598991e-01	
   9.2840000e+01	  -9.7444307e-01	  -5.1593140e-01	  -1.8233757e-01	
   9.2895000e+01	  -1.1475721e+00	  -5.2290565e-01	  -2.9247395e-01	
   9.2950000e+01	  -1.8017224e+00	  -6.6669347e-01	  -2.3509277e-01	
   9.3005000e+01	  -1.4137305e+00	  -6.7290503e-01	  -4.0000732e-01	
   9.3060000e+01	  -1.5164078e+00	  -6.3768389e-01	  -5.4945537e-01	
   9.3115000e+01	  -1.5321811e+00	  -7.4154448e-01	  -3.4402339e-01	
   9.3170000e+01	  -1.7440453e+00	  -8.2674304e-01	  -4.2720295e-01	
   9.3225000e+01	  -1.3832723e+00	  -7.8402670e-01	  -6.5421650e-01	
   9.3280000e+01	  -1.7179728e+00	  -7.2608524e-01	  -8.1758339e-01	
   9.3335000e+01	  -1.9184229e+00	  -7.7590258e-01	  -5.5380676e-01	
   9.3390000e+01	  -1.6689994e+00	  -1.0495717e+00	  -7.2455034e-01	
   9.3445000e+01	  -1.0551233e+00	  -7.3993561e-01	  -5.4809149e-01	
   9.3500000e+01	  -8.4845656e-01	  -6.2823032e-01	  -2.6031038e-01	
   9.3555000e+01	  -1.5104103e+00	  -7.3316303e-01	  -2.4032152e-01	
   9.3610000e+01	  -1.3087030e+00	  -5.3841697e-01	  -3.9691595e-02	
   9.3665000e+01	  -1.1044125e+00	  -4.9127786e-01	  -1.3555138e-01	
   9.3720000e+01	  -1.6881693e+00	  -4.2119344e-01	  -3.0717756e-01	
   9.3775000e+01	  -1.7463218e+00	  -4.7722353e-01	  -1.2620212e-01	
   9.3830000e+01	  -1.5972499e+00	  -5.8058622e-01	  -3.6028259e-01	
   9.3885000e+01	  -1.1274050e+00	  -6.3167260e-01	  -1.3118325e-01	
   9.3940000e+01	  -1.2250890e+00	  -6.0151435e-01	  -1.6459453e-01	
   9.3995000e+01	  -1.4282739e+00	  -6.5201091e-01	  -2.6159919e-01	
   9.4050000e+01	  -1.6478782e+00	  -7.6074579e-01	  -4.0045741e-01	
   9.4105000e+01	  -1.2766297e+00	  -6.8550836e-01	  -7.0950326e-01	
   9.4160000e+01	  -1.8313539e+00	  -7.1957520e-01	  -5.8822813e-01	
   9.4215000e+01	  -1.5092052e+00	  -7.0788572e-01	  -7.5758126e-01	
   9.4270000e+01	  -1.2751270e+00	  -1.0224644e+00	  -1.9849115e-01	
   9.4325000e+01	  -1.0908970e+00	  -5.1627986e-01	  -1.2652545e-01	
   9.4380000e+01	  -1.5364287e+00	  -5.0772837e-01	  -2.6750855e-01	
   9.4435000e+01	  -1.3530630e+00	  -3.4067734e-01	  -3.5018710e-02	
   9.4490000e+01	  -1.5282607e+00	  -6.3816617e-01	   1.1997194e-01	
   9.4545000e+01	  -1.2490436e+00	  -4.4612400e-01	  -2.2305992e-01	
   9.4600000e+01	  -1.2300676e+00	  -4.5938074e-01	  -3.3982776e-01	
   9.4655000e+01	  -1.3819340e+00	  -4.8096759e-01	  -1.2031484e-01	
   9.4710000e+01	  -1.4023706e+00	  -7.5895767e-01	  -1.9263356e-01	
   9.4765000e+01	  -1.4487307e+00	  -4.8051736e-01	  -3.4701591e-01	
   9.4820000e+01	  -1.4443935e+00	  -5.1219867e-01	  -5.1555108e-01	
   9.4875000e+01	  -1.7596218e+00	  -6.3628427e-01	  -4.6466566e-01	
   9.4930000e+01	  -1.4137317e+00	  -7.6206473e-01	  -3.8890566e-01	
   9.4985000e+01	  -1.7056130e+00	  -7.3439943e-01	  -5.4423785e-01	
   9.5040000e+01	  -1.7861577e+00	  -6.9406772e-01	  -7.6141285e-01	
   9.5095000e+01	  -1.1440489e+00	  -7.7617431e-01	  -2.7128392e-01	
   9.5150000e+01	  -8.6323413e-01	  -5.3114960e-01	   2.2535620e-02	
   9.5205000e+01	  -1.2162848e+00	  -4.2214097e-01	   1.6473556e-02	
   9.5260000e+01	  -9.0764465e-01	  -3.7953893e-01	   2.0850641e-02	
   9.5315000e+01	  -1.5321811e+00	  -4.6996553e-01	  -6.8754621e-03	
   9.5370000e+01	  -1.3157810e+00	  -3.9864386e-01	   9.0113511e-02	
   9.5425000e+01	  -1.1558979e+00	  -4.4845881e-01	  -1.7482880e-01	
   9.5480000e+01	  -9.6317679e-01	  -4.7986546e-01	  -1.3921985e-02	
   9.5535000e+01	  -1.3667005e+00	  -3.6707019e-01	  -1.3016616e-01	
   9.5590000e+01	  -1.3743455e+00	  -6.5572014e-01	  -1.8107756e-01	
