time	S1_D1_HbO	S1_D2_HbO	
   0.0000000e+00	   8.8392399e+00	   4.4832434e-01	
   5.5000000e-02	   8.5682530e+00	   4.2958306e-01	
   1.1000000e-01	   8.3711345e+00	   4.2163640e-01	
   1.6500000e-01	   8.2695542e+00	   4.0596251e-01	
   2.2000000e-01	   8.2598275e+00	   3.5268681e-01	
   2.7500000e-01	   8.3344984e+00	   2.5967605e-01	
   3.3000000e-01	   8.4444777e+00	   1.6436177e-01	
   3.8500000e-01	   8.5017977e+00	   1.1907204e-01	
   4.4000000e-01	   8.4698833e+00	   1.5309767e-01	
   4.9500000e-01	   8.4122083e+00	   2.4687484e-01	
   5.5000000e-01	   8.4118736e+00	   3.4178162e-01	
   6.0500000e-01	   8.4711465e+00	   3.8783690e-01	
   6.6000000e-01	   8.5186780e+00	   3.8320072e-01	
   7.1500000e-01	   8.4886315e+00	   3.5804237e-01	
   7.7000000e-01	   8.3737554e+00	   3.2752257e-01	
   8.2500000e-01	   8.2308356e+00	   2.7624468e-01	
   8.8000000e-01	   8.1486305e+00	   1.8755814e-01	
   9.3500000e-01	   8.1850101e+00	   8.0676325e-02	
   9.9000000e-01	   8.3215866e+00	   1.5166505e-02	
   1.0450000e+00	   8.4824387e+00	   4.7287916e-02	
   1.1000000e+00	   8.5899004e+00	   1.7249676e-01	
   1.1550000e+00	   8.6018699e+00	   3.2193293e-01	
   1.2100000e+00	   8.5205438e+00	   4.2468438e-01	
   1.2650000e+00	   8.3935332e+00	   4.6069270e-01	
   1.3200000e+00	   8.2998838e+00	   4.5158229e-01	
   1.3750000e+00	   8.2975438e+00	   4.2315108e-01	
   1.4300000e+00	   8.3635382e+00	   3.8133470e-01	
   1.4850000e+00	   8.4001739e+00	   3.0984150e-01	
   1.5400000e+00	   8.3276704e+00	   1.9700182e-01	
   1.5950000e+00	   8.1801556e+00	   7.6417776e-02	
   1.6500000e+00	   8.0918705e+00	   2.4026296e-02	
   1.7050000e+00	   8.1741586e+00	   9.3103973e-02	
   1.7600000e+00	   8.4105795e+00	   2.5930204e-01	
   1.8150000e+00	   8.6707491e+00	   4.4297393e-01	
   1.8700000e+00	   8.8160585e+00	   5.7286069e-01	
   1.9250000e+00	   8.7941116e+00	   6.1822173e-01	
   1.9800000e+00	   8.6503934e+00	   5.8499052e-01	
   2.0350000e+00	   8.4727685e+00	   5.0425916e-01	
   2.0900000e+00	   8.3266633e+00	   4.1215507e-01	
   2.1450000e+00	   8.2200221e+00	   3.2800796e-01	
   2.2000000e+00	   8.1224252e+00	   2.5771149e-01	
   2.2550000e+00	   8.0267463e+00	   2.1377831e-01	
   2.3100000e+00	   7.9783248e+00	   2.1672829e-01	
   2.3650000e+00	   8.0306217e+00	   2.7771425e-01	
   2.4200000e+00	   8.1870874e+00	   3.8993275e-01	
   2.4750000e+00	   8.3944405e+00	   5.3176893e-01	
   2.5300000e+00	   8.5823942e+00	   6.6742895e-01	
   2.5850000e+00	   8.7056056e+00	   7.5363473e-01	
   2.6400000e+00	   8.7544119e+00	   7.6637231e-01	
   2.6950000e+00	   8.7384076e+00	   7.2341699e-01	
   2.7500000e+00	   8.6752427e+00	   6.6510668e-01	
   2.8050000e+00	   8.5931223e+00	   6.0904081e-01	
   2.8600000e+00	   8.5171476e+00	   5.3892942e-01	
   2.9150000e+00	   8.4484780e+00	   4.4313648e-01	
   2.9700000e+00	   8.3818532e+00	   3.4511799e-01	
   3.0250000e+00	   8.3329647e+00	   2.8865798e-01	
   3.0800000e+00	   8.3236469e+00	   3.1173328e-01	
   3.1350000e+00	   8.3606380e+00	   4.2953628e-01	
   3.1900000e+00	   8.4370338e+00	   6.1090490e-01	
   3.2450000e+00	   8.5310157e+00	   7.7699853e-01	
   3.3000000e+00	   8.6143871e+00	   8.5943126e-01	
   3.3550000e+00	   8.6770608e+00	   8.6127447e-01	
   3.4100000e+00	   8.7231074e+00	   8.3771735e-01	
   3.4650000e+00	   8.7404488e+00	   8.2268631e-01	
   3.5200000e+00	   8.6976845e+00	   7.9873820e-01	
   3.5750000e+00	   8.5794323e+00	   7.3275491e-01	
   3.6300000e+00	   8.4133464e+00	   6.1723293e-01	
   3.6850000e+00	   8.2555437e+00	   4.8428059e-01	
   3.7400000e+00	   8.1603225e+00	   3.9701024e-01	
   3.7950000e+00	   8.1614318e+00	   4.1009765e-01	
   3.8500000e+00	   8.2555356e+00	   5.1791714e-01	
   3.9050000e+00	   8.3956254e+00	   6.5256961e-01	
   3.9600000e+00	   8.5151513e+00	   7.4505380e-01	
   4.0150000e+00	   8.5662119e+00	   7.7766656e-01	
   4.0700000e+00	   8.5445844e+00	   7.7278849e-01	
   4.1250000e+00	   8.4858344e+00	   7.5247204e-01	
   4.1800000e+00	   8.4253636e+00	   7.2354025e-01	
   4.2350000e+00	   8.3617063e+00	   6.8537713e-01	
   4.2900000e+00	   8.2703536e+00	   6.3176741e-01	
   4.3450000e+00	   8.1403218e+00	   5.5275640e-01	
   4.4000000e+00	   7.9942897e+00	   4.6058035e-01	
   4.4550000e+00	   7.8963328e+00	   4.1247748e-01	
   4.5100000e+00	   7.9168318e+00	   4.6775978e-01	
   4.5650000e+00	   8.0503479e+00	   6.0896606e-01	
   4.6200000e+00	   8.2016762e+00	   7.4528207e-01	
   4.6750000e+00	   8.2804920e+00	   8.0754178e-01	
   4.7300000e+00	   8.2710341e+00	   8.0394000e-01	
   4.7850000e+00	   8.2102793e+00	   7.7902138e-01	
   4.8400000e+00	   8.1515244e+00	   7.5936353e-01	
   4.8950000e+00	   8.1437282e+00	   7.4617337e-01	
   4.9500000e+00	   8.1901696e+00	   7.2458366e-01	
   5.0050000e+00	   8.2207402e+00	   6.6958892e-01	
   5.0600000e+00	   8.1467196e+00	   5.6944744e-01	
   5.1150000e+00	   7.9612322e+00	   4.5605304e-01	
   5.1700000e+00	   7.7690273e+00	   3.9718768e-01	
   5.2250000e+00	   7.7014947e+00	   4.4324000e-01	
   5.2800000e+00	   7.8091304e+00	   5.8002771e-01	
   5.3350000e+00	   8.0426992e+00	   7.3869941e-01	
   5.3900000e+00	   8.3091705e+00	   8.5073635e-01	
   5.4450000e+00	   8.5181222e+00	   8.9098910e-01	
   5.5000000e+00	   8.6043908e+00	   8.7727653e-01	
   5.5550000e+00	   8.5585692e+00	   8.4189250e-01	
   5.6100000e+00	   8.4369588e+00	   8.0207402e-01	
   5.6650000e+00	   8.3059332e+00	   7.4926648e-01	
   5.7200000e+00	   8.1810971e+00	   6.6820105e-01	
   5.7750000e+00	   8.0505684e+00	   5.6641504e-01	
   5.8300000e+00	   7.9318629e+00	   4.7587286e-01	
   5.8850000e+00	   7.8677788e+00	   4.3082448e-01	
   5.9400000e+00	   7.8921652e+00	   4.5510242e-01	
   5.9950000e+00	   8.0158889e+00	   5.5173249e-01	
   6.0500000e+00	   8.2063452e+00	   6.8267207e-01	
   6.1050000e+00	   8.3767203e+00	   7.7838203e-01	
   6.1600000e+00	   8.4423649e+00	   7.9515850e-01	
   6.2150000e+00	   8.4007912e+00	   7.5512030e-01	
   6.2700000e+00	   8.3274237e+00	   7.1401113e-01	
   6.3250000e+00	   8.2807089e+00	   6.9747074e-01	
   6.3800000e+00	   8.2445332e+00	   6.7902439e-01	
   6.4350000e+00	   8.1915710e+00	   6.1601052e-01	
   6.4900000e+00	   8.1516248e+00	   4.9995564e-01	
   6.5450000e+00	   8.1541724e+00	   3.7008205e-01	
   6.6000000e+00	   8.1572579e+00	   2.8324443e-01	
   6.6550000e+00	   8.1223389e+00	   2.7690911e-01	
   6.7100000e+00	   8.1239435e+00	   3.4871937e-01	
   6.7650000e+00	   8.2948341e+00	   4.5280283e-01	
   6.8200000e+00	   8.6432895e+00	   5.2695336e-01	
   6.8750000e+00	   8.9162030e+00	   5.4589287e-01	
   6.9300000e+00	   8.6291240e+00	   5.3816206e-01	
   6.9850000e+00	   7.3843192e+00	   5.3637699e-01	
   7.0400000e+00	   5.4338350e+00	   5.3146542e-01	
   7.0950000e+00	   3.8693281e+00	   4.9202620e-01	
   7.1500000e+00	   3.7977289e+00	   4.0717093e-01	
   7.2050000e+00	   5.2016267e+00	   2.9645276e-01	
   7.2600000e+00	   6.9733025e+00	   1.9907025e-01	
   7.3150000e+00	   8.0862564e+00	   1.6284932e-01	
   7.3700000e+00	   8.3733194e+00	   2.1585633e-01	
   7.4250000e+00	   8.2467032e+00	   3.3275436e-01	
   7.4800000e+00	   8.1017891e+00	   4.5045582e-01	
   7.5350000e+00	   8.0846877e+00	   5.2600599e-01	
   7.5900000e+00	   8.1705338e+00	   5.5882386e-01	
   7.6450000e+00	   8.2690388e+00	   5.5860037e-01	
   7.7000000e+00	   8.2781733e+00	   5.2385101e-01	
   7.7550000e+00	   8.1456169e+00	   4.5733149e-01	
   7.8100000e+00	   7.9250894e+00	   3.7579165e-01	
   7.8650000e+00	   7.7459169e+00	   3.0041244e-01	
   7.9200000e+00	   7.7020473e+00	   2.5682058e-01	
   7.9750000e+00	   7.7820702e+00	   2.7780082e-01	
   8.0300000e+00	   7.9120887e+00	   3.7798961e-01	
   8.0850000e+00	   8.0409835e+00	   5.2473133e-01	
   8.1400000e+00	   8.1816397e+00	   6.5582696e-01	
   8.1950000e+00	   8.3758773e+00	   7.2668606e-01	
   8.2500000e+00	   8.5577321e+00	   7.2740872e-01	
   8.3050000e+00	   8.3993395e+00	   6.6876716e-01	
   8.3600000e+00	   7.4084767e+00	   5.7644312e-01	
   8.4150000e+00	   5.4011455e+00	   4.8787458e-01	
   8.4700000e+00	   2.9037393e+00	   4.2642500e-01	
   8.5250000e+00	   8.6139064e-01	   3.8395391e-01	
   8.5800000e+00	  -1.3359672e-01	   3.5184960e-01	
   8.6350000e+00	  -1.8996020e-01	   3.5458832e-01	
   8.6900000e+00	   2.1518069e-01	   4.1847303e-01	
   8.7450000e+00	   6.5097055e-01	   5.1847189e-01	
   8.8000000e+00	   8.4094126e-01	   5.9505206e-01	
   8.8550000e+00	   6.6591959e-01	   6.2263401e-01	
   8.9100000e+00	   2.7805165e-01	   6.2936350e-01	
   8.9650000e+00	   1.7989226e-01	   6.4445552e-01	
   9.0200000e+00	   9.8482106e-01	   6.5396595e-01	
   9.0750000e+00	   2.8680280e+00	   6.2368011e-01	
   9.1300000e+00	   5.2237047e+00	   5.4968638e-01	
   9.1850000e+00	   7.0706964e+00	   4.7324948e-01	
   9.2400000e+00	   7.8847048e+00	   4.5338507e-01	
   9.2950000e+00	   7.9216891e+00	   5.2505528e-01	
   9.3500000e+00	   7.7708687e+00	   6.6780793e-01	
   9.4050000e+00	   7.7692613e+00	   8.1078956e-01	
   9.4600000e+00	   7.8563735e+00	   8.8383340e-01	
   9.5150000e+00	   7.8480454e+00	   8.7453179e-01	
   9.5700000e+00	   7.7222266e+00	   8.3135261e-01	
   9.6250000e+00	   7.6210523e+00	   8.0673433e-01	
   9.6800000e+00	   7.6633935e+00	   8.0310862e-01	
   9.7350000e+00	   7.8246720e+00	   7.8079260e-01	
   9.7900000e+00	   7.9710682e+00	   7.1318786e-01	
   9.8450000e+00	   7.9716579e+00	   6.2600220e-01	
   9.9000000e+00	   7.8064867e+00	   5.8295108e-01	
   9.9550000e+00	   7.6154086e+00	   6.3373668e-01	
   1.0010000e+01	   7.6322552e+00	   7.7073812e-01	
   1.0065000e+01	   7.9835981e+00	   9.3295700e-01	
   1.0120000e+01	   8.4401543e+00	   1.0506568e+00	
   1.0175000e+01	   8.3722884e+00	   1.0867936e+00	
   1.0230000e+01	   7.1892479e+00	   1.0447964e+00	
   1.0285000e+01	   5.0984369e+00	   9.4962907e-01	
   1.0340000e+01	   3.3218987e+00	   8.2842137e-01	
   1.0395000e+01	   3.1336922e+00	   7.0881921e-01	
   1.0450000e+01	   4.6130475e+00	   6.2761425e-01	
   1.0505000e+01	   6.6693749e+00	   6.2574378e-01	
   1.0560000e+01	   8.2037081e+00	   7.2020597e-01	
   1.0615000e+01	   8.8049981e+00	   8.7835162e-01	
   1.0670000e+01	   8.4157837e+00	   1.0305283e+00	
   1.0725000e+01	   6.9648936e+00	   1.1156923e+00	
   1.0780000e+01	   4.7220025e+00	   1.1166987e+00	
   1.0835000e+01	   2.7358143e+00	   1.0595418e+00	
   1.0890000e+01	   2.2838606e+00	   9.8265712e-01	
   1.0945000e+01	   3.6513124e+00	   9.0188915e-01	
   1.1000000e+01	   5.7928243e+00	   8.0991722e-01	
   1.1055000e+01	   7.3782647e+00	   7.1629956e-01	
   1.1110000e+01	   7.9428694e+00	   6.7180013e-01	
   1.1165000e+01	   7.9638154e+00	   7.2821372e-01	
   1.1220000e+01	   8.0740648e+00	   8.7375827e-01	
   1.1275000e+01	   8.3345622e+00	   1.0296341e+00	
   1.1330000e+01	   8.1715192e+00	   1.1153686e+00	
   1.1385000e+01	   6.9774621e+00	   1.1022290e+00	
   1.1440000e+01	   4.9096755e+00	   1.0109886e+00	
   1.1495000e+01	   3.1082523e+00	   8.8741851e-01	
   1.1550000e+01	   2.8225449e+00	   7.7810632e-01	
   1.1605000e+01	   4.1916687e+00	   7.0537633e-01	
   1.1660000e+01	   6.1595835e+00	   6.6699357e-01	
   1.1715000e+01	   7.6247862e+00	   6.6657197e-01	
   1.1770000e+01	   8.3187687e+00	   7.2105535e-01	
   1.1825000e+01	   8.5163846e+00	   8.2564529e-01	
   1.1880000e+01	   8.2783530e+00	   9.3808256e-01	
   1.1935000e+01	   7.2626437e+00	   1.0148106e+00	
   1.1990000e+01	   5.2706723e+00	   1.0444377e+00	
   1.2045000e+01	   2.7892218e+00	   1.0385831e+00	
   1.2100000e+01	   7.5303838e-01	   1.0095190e+00	
   1.2155000e+01	  -2.4913552e-01	   9.6162104e-01	
   1.2210000e+01	  -3.6895592e-01	   8.9143738e-01	
   1.2265000e+01	  -1.5283577e-01	   7.9684350e-01	
   1.2320000e+01	  -3.9313775e-03	   6.9643662e-01	
   1.2375000e+01	   2.3731860e-02	   6.3604090e-01	
   1.2430000e+01	   6.4153961e-02	   6.5993883e-01	
   1.2485000e+01	   1.8311471e-01	   7.6720678e-01	
   1.2540000e+01	   3.0703838e-01	   9.0354913e-01	
   1.2595000e+01	   3.5534634e-01	   1.0039226e+00	
   1.2650000e+01	   3.4455270e-01	   1.0398374e+00	
   1.2705000e+01	   3.2236923e-01	   1.0218405e+00	
   1.2760000e+01	   2.6927793e-01	   9.6838826e-01	
   1.2815000e+01	   1.4090823e-01	   8.9096224e-01	
   1.2870000e+01	  -3.1523050e-02	   8.0376812e-01	
   1.2925000e+01	  -1.6777986e-01	   7.2266428e-01	
   1.2980000e+01	  -2.3597083e-01	   6.5526646e-01	
   1.3035000e+01	  -2.4307732e-01	   6.1237026e-01	
   1.3090000e+01	  -1.7475274e-01	   6.1896982e-01	
   1.3145000e+01	  -3.6585252e-02	   6.9028653e-01	
   1.3200000e+01	   8.9858833e-02	   8.0435291e-01	
   1.3255000e+01	   1.2104101e-01	   9.1278588e-01	
   1.3310000e+01	   7.1139712e-02	   9.7116669e-01	
   1.3365000e+01	   1.8326521e-02	   9.5722878e-01	
   1.3420000e+01	   4.1678917e-03	   8.7814507e-01	
   1.3475000e+01	   1.3001674e-02	   7.6999120e-01	
   1.3530000e+01	   1.8460926e-02	   6.7731281e-01	
   1.3585000e+01	  -7.4437164e-04	   6.1975787e-01	
   1.3640000e+01	  -6.9210131e-02	   5.8367578e-01	
   1.3695000e+01	  -1.8539761e-01	   5.5618721e-01	
   1.3750000e+01	  -2.9418562e-01	   5.5486416e-01	
   1.3805000e+01	  -3.3045133e-01	   6.0321150e-01	
   1.3860000e+01	  -2.8198676e-01	   6.8812672e-01	
   1.3915000e+01	  -1.8765801e-01	   7.6824023e-01	
   1.3970000e+01	  -9.4474387e-02	   8.1975804e-01	
   1.4025000e+01	  -3.7539859e-02	   8.5077053e-01	
   1.4080000e+01	  -3.6389149e-02	   8.7085490e-01	
   1.4135000e+01	  -7.5317918e-02	   8.6970490e-01	
   1.4190000e+01	  -9.5683708e-02	   8.3558817e-01	
   1.4245000e+01	  -4.6782650e-02	   7.7719283e-01	
   1.4300000e+01	   4.3580269e-02	   7.1193732e-01	
   1.4355000e+01	   7.7843891e-02	   6.4344705e-01	
   1.4410000e+01	  -1.4214438e-02	   5.6420854e-01	
   1.4465000e+01	  -2.0034300e-01	   4.7786345e-01	
   1.4520000e+01	  -3.6873776e-01	   4.1512643e-01	
   1.4575000e+01	  -4.0960613e-01	   4.2343738e-01	
   1.4630000e+01	  -2.8774774e-01	   5.2396786e-01	
   1.4685000e+01	  -6.9465226e-02	   6.7108035e-01	
   1.4740000e+01	   1.2711063e-01	   7.7691234e-01	
   1.4795000e+01	   2.3737100e-01	   7.9417066e-01	
   1.4850000e+01	   2.9471264e-01	   7.5542846e-01	
   1.4905000e+01	   3.5062572e-01	   7.1717598e-01	
   1.4960000e+01	   3.8675581e-01	   6.9450277e-01	
   1.5015000e+01	   3.4949655e-01	   6.6885728e-01	
   1.5070000e+01	   2.4351729e-01	   6.2676569e-01	
   1.5125000e+01	   1.3400108e-01	   5.6343400e-01	
   1.5180000e+01	   6.9704517e-02	   4.7153877e-01	
   1.5235000e+01	   6.1466868e-02	   3.5743080e-01	
   1.5290000e+01	   1.2281108e-01	   2.5944338e-01	
   1.5345000e+01	   2.5839373e-01	   2.2412169e-01	
   1.5400000e+01	   4.1410175e-01	   2.6383188e-01	
   1.5455000e+01	   5.1813646e-01	   3.5158776e-01	
   1.5510000e+01	   5.7514059e-01	   4.5045080e-01	
   1.5565000e+01	   6.4363537e-01	   5.3173160e-01	
   1.5620000e+01	   7.2572659e-01	   5.7503465e-01	
   1.5675000e+01	   7.5356551e-01	   5.7478702e-01	
   1.5730000e+01	   6.8456517e-01	   5.4610189e-01	
   1.5785000e+01	   5.4979790e-01	   5.0835089e-01	
   1.5840000e+01	   4.0326159e-01	   4.6198913e-01	
   1.5895000e+01	   2.8228366e-01	   3.8958596e-01	
   1.5950000e+01	   2.2859459e-01	   2.8011996e-01	
   1.6005000e+01	   2.7597380e-01	   1.4991973e-01	
   1.6060000e+01	   3.8893992e-01	   4.2530898e-02	
   1.6115000e+01	   4.7136107e-01	   7.4739811e-03	
   1.6170000e+01	   4.6404189e-01	   6.7340527e-02	
   1.6225000e+01	   4.0115692e-01	   1.9535128e-01	
   1.6280000e+01	   3.5358475e-01	   3.2917381e-01	
   1.6335000e+01	   3.4584431e-01	   4.1545953e-01	
   1.6390000e+01	   3.5367500e-01	   4.4199879e-01	
   1.6445000e+01	   3.5206306e-01	   4.2636761e-01	
   1.6500000e+01	   3.2864901e-01	   3.8181825e-01	
   1.6555000e+01	   2.7966297e-01	   3.0448085e-01	
   1.6610000e+01	   2.2227300e-01	   1.9084588e-01	
   1.6665000e+01	   1.8078538e-01	   5.4875997e-02	
   1.6720000e+01	   1.5558953e-01	  -7.3860445e-02	
   1.6775000e+01	   1.3983959e-01	  -1.5803732e-01	
   1.6830000e+01	   1.4807651e-01	  -1.6298770e-01	
   1.6885000e+01	   1.8984866e-01	  -8.2990210e-02	
   1.6940000e+01	   2.4036017e-01	   4.0509593e-02	
   1.6995000e+01	   2.6982126e-01	   1.4695171e-01	
   1.7050000e+01	   2.7624752e-01	   1.9893635e-01	
   1.7105000e+01	   2.6627573e-01	   1.8636832e-01	
   1.7160000e+01	   2.3447037e-01	   1.1530720e-01	
   1.7215000e+01	   1.8236383e-01	   1.4248705e-02	
   1.7270000e+01	   1.2418351e-01	  -7.3758741e-02	
   1.7325000e+01	   5.6462513e-02	  -1.2940616e-01	
   1.7380000e+01	  -4.0595729e-02	  -1.7348735e-01	
   1.7435000e+01	  -1.5156635e-01	  -2.3230538e-01	
   1.7490000e+01	  -2.1191561e-01	  -3.0074839e-01	
   1.7545000e+01	  -1.7969602e-01	  -3.4614427e-01	
   1.7600000e+01	  -9.6470869e-02	  -3.3513606e-01	
   1.7655000e+01	  -3.4234376e-02	  -2.5767232e-01	
   1.7710000e+01	  -4.5599028e-03	  -1.4025788e-01	
   1.7765000e+01	   3.0051481e-02	  -3.2289413e-02	
   1.7820000e+01	   8.2883497e-02	   3.4025381e-02	
   1.7875000e+01	   1.3802818e-01	   6.6772452e-02	
   1.7930000e+01	   1.8892155e-01	   8.9147832e-02	
   1.7985000e+01	   2.2270297e-01	   9.7838410e-02	
   1.8040000e+01	   1.9389703e-01	   6.2970959e-02	
   1.8095000e+01	   6.9089421e-02	  -2.8046928e-02	
   1.8150000e+01	  -1.1937964e-01	  -1.4653028e-01	
   1.8205000e+01	  -2.9163032e-01	  -2.5462683e-01	
   1.8260000e+01	  -3.7272910e-01	  -3.4566333e-01	
   1.8315000e+01	  -3.3011272e-01	  -4.3270771e-01	
   1.8370000e+01	  -1.9731950e-01	  -5.0400146e-01	
   1.8425000e+01	  -6.9716651e-02	  -5.1660853e-01	
   1.8480000e+01	  -4.3725937e-02	  -4.4261146e-01	
   1.8535000e+01	  -1.2409376e-01	  -3.0318934e-01	
   1.8590000e+01	  -2.0289023e-01	  -1.5093803e-01	
   1.8645000e+01	  -1.7436536e-01	  -3.4297828e-02	
   1.8700000e+01	  -6.1472751e-02	   2.1696602e-02	
   1.8755000e+01	   1.6904559e-02	   2.1368281e-02	
   1.8810000e+01	  -5.6958255e-03	  -9.0007628e-03	
   1.8865000e+01	  -7.2279063e-02	  -4.6607478e-02	
   1.8920000e+01	  -8.7339945e-02	  -9.3141154e-02	
   1.8975000e+01	  -4.2360358e-02	  -1.6549171e-01	
   1.9030000e+01	  -2.5531752e-02	  -2.7065987e-01	
   1.9085000e+01	  -1.1337331e-01	  -3.9535535e-01	
   1.9140000e+01	  -2.8385212e-01	  -5.0777145e-01	
   1.9195000e+01	  -4.2995281e-01	  -5.6046597e-01	
   1.9250000e+01	  -4.3650225e-01	  -5.1221228e-01	
   1.9305000e+01	  -2.7426155e-01	  -3.6952025e-01	
   1.9360000e+01	  -4.3098674e-02	  -1.9669755e-01	
   1.9415000e+01	   1.1458828e-01	  -6.6603319e-02	
   1.9470000e+01	   1.4900457e-01	  -9.2682010e-03	
   1.9525000e+01	   1.1396198e-01	  -1.7879688e-02	
   1.9580000e+01	   6.8796349e-02	  -7.7799105e-02	
   1.9635000e+01	   2.3835660e-02	  -1.6339097e-01	
   1.9690000e+01	  -3.5556097e-02	  -2.3183322e-01	
   1.9745000e+01	  -1.1781414e-01	  -2.5691937e-01	
   1.9800000e+01	  -2.1435863e-01	  -2.6203989e-01	
   1.9855000e+01	  -2.9221498e-01	  -2.9455462e-01	
   1.9910000e+01	  -3.0224996e-01	  -3.6547730e-01	
   1.9965000e+01	  -2.2853864e-01	  -4.2967786e-01	
   2.0020000e+01	  -1.3294627e-01	  -4.3173342e-01	
   2.0075000e+01	  -1.0654830e-01	  -3.6051429e-01	
   2.0130000e+01	  -1.6159079e-01	  -2.5388180e-01	
   2.0185000e+01	  -2.1407974e-01	  -1.6354419e-01	
   2.0240000e+01	  -1.9088977e-01	  -1.1966002e-01	
   2.0295000e+01	  -1.1824075e-01	  -1.1509176e-01	
   2.0350000e+01	  -8.6894443e-02	  -1.2127107e-01	
   2.0405000e+01	  -1.5623435e-01	  -1.2813841e-01	
   2.0460000e+01	  -3.0616641e-01	  -1.6209010e-01	
   2.0515000e+01	  -4.5830226e-01	  -2.5339603e-01	
   2.0570000e+01	  -5.3132636e-01	  -3.9002160e-01	
   2.0625000e+01	  -5.0349196e-01	  -5.1307399e-01	
   2.0680000e+01	  -4.3213506e-01	  -5.5915357e-01	
   2.0735000e+01	  -3.8353720e-01	  -5.0552993e-01	
   2.0790000e+01	  -3.4932877e-01	  -3.8058325e-01	
   2.0845000e+01	  -2.7449091e-01	  -2.4195347e-01	
   2.0900000e+01	  -1.5628147e-01	  -1.4369014e-01	
   2.0955000e+01	  -6.4998538e-02	  -1.0783368e-01	
   2.1010000e+01	  -7.0706471e-02	  -1.1791532e-01	
   2.1065000e+01	  -1.8846854e-01	  -1.4717005e-01	
   2.1120000e+01	  -3.8602284e-01	  -1.9277548e-01	
   2.1175000e+01	  -6.0126373e-01	  -2.6969406e-01	
   2.1230000e+01	  -7.5571187e-01	  -3.7452743e-01	
   2.1285000e+01	  -7.9583596e-01	  -4.7169505e-01	
   2.1340000e+01	  -7.3310666e-01	  -5.1527991e-01	
   2.1395000e+01	  -6.2387453e-01	  -4.7790325e-01	
   2.1450000e+01	  -5.0860739e-01	  -3.6831640e-01	
   2.1505000e+01	  -3.8827735e-01	  -2.3356674e-01	
   2.1560000e+01	  -2.6741577e-01	  -1.3628248e-01	
   2.1615000e+01	  -1.9348503e-01	  -1.1208202e-01	
   2.1670000e+01	  -2.1077576e-01	  -1.4459715e-01	
   2.1725000e+01	  -2.8358906e-01	  -1.8848586e-01	
   2.1780000e+01	  -3.2133908e-01	  -2.1484729e-01	
   2.1835000e+01	  -2.8749612e-01	  -2.2632464e-01	
   2.1890000e+01	  -2.3991017e-01	  -2.3853105e-01	
   2.1945000e+01	  -2.6291423e-01	  -2.6902668e-01	
   2.2000000e+01	  -3.8890167e-01	  -3.3729863e-01	
   2.2055000e+01	  -5.7069012e-01	  -4.4070310e-01	
   2.2110000e+01	  -7.0397816e-01	  -5.2300749e-01	
   2.2165000e+01	  -6.9498740e-01	  -5.0155633e-01	
   2.2220000e+01	  -5.3530124e-01	  -3.5007637e-01	
   2.2275000e+01	  -3.0638097e-01	  -1.3879618e-01	
   2.2330000e+01	  -1.0070184e-01	   2.4304204e-02	
   2.2385000e+01	   3.9849175e-02	   7.9612046e-02	
   2.2440000e+01	   1.0749427e-01	   3.9398468e-02	
   2.2495000e+01	   1.0846448e-01	  -4.4050274e-02	
   2.2550000e+01	   7.6468646e-02	  -1.1703579e-01	
   2.2605000e+01	   5.0862529e-02	  -1.5662204e-01	
   2.2660000e+01	   2.7687789e-02	  -1.8186875e-01	
   2.2715000e+01	  -2.7457279e-02	  -2.2229286e-01	
   2.2770000e+01	  -1.2355863e-01	  -2.7690203e-01	
   2.2825000e+01	  -2.3415165e-01	  -3.1592142e-01	
   2.2880000e+01	  -3.1659294e-01	  -3.1104520e-01	
   2.2935000e+01	  -3.0701710e-01	  -2.5194550e-01	
   2.2990000e+01	  -1.4661057e-01	  -1.4963477e-01	
   2.3045000e+01	   1.2963317e-01	  -3.7430759e-02	
   2.3100000e+01	   3.7158137e-01	   4.5972393e-02	
   2.3155000e+01	   4.3910837e-01	   8.7166584e-02	
   2.3210000e+01	   3.2972348e-01	   1.0203224e-01	
   2.3265000e+01	   1.5771426e-01	   1.0521190e-01	
   2.3320000e+01	   3.6425296e-02	   9.2394020e-02	
   2.3375000e+01	  -1.0250095e-03	   5.8842791e-02	
   2.3430000e+01	   6.0414364e-03	   1.4592809e-02	
   2.3485000e+01	   4.8539417e-03	  -3.3832063e-02	
   2.3540000e+01	  -2.5079446e-02	  -1.0127928e-01	
   2.3595000e+01	  -7.7604777e-02	  -2.0159322e-01	
   2.3650000e+01	  -1.4419199e-01	  -3.1109989e-01	
   2.3705000e+01	  -2.1262802e-01	  -3.7380854e-01	
   2.3760000e+01	  -2.5558532e-01	  -3.4905077e-01	
   2.3815000e+01	  -2.3603814e-01	  -2.4608446e-01	
   2.3870000e+01	  -1.2550003e-01	  -1.1071256e-01	
   2.3925000e+01	   6.8175767e-02	   8.3796585e-03	
   2.3980000e+01	   2.7722029e-01	   7.4294468e-02	
   2.4035000e+01	   4.0000962e-01	   6.6482536e-02	
   2.4090000e+01	   3.8101321e-01	  -5.4219017e-03	
   2.4145000e+01	   2.5884071e-01	  -1.0045351e-01	
   2.4200000e+01	   1.1826464e-01	  -1.7526009e-01	
   2.4255000e+01	   1.5067112e-02	  -2.1288412e-01	
   2.4310000e+01	  -3.6587742e-02	  -2.2379614e-01	
   2.4365000e+01	  -4.3123959e-02	  -2.3339943e-01	
   2.4420000e+01	  -2.6041052e-02	  -2.7072520e-01	
   2.4475000e+01	  -8.8238651e-03	  -3.4561017e-01	
   2.4530000e+01	   8.7270140e-03	  -4.2097323e-01	
   2.4585000e+01	   4.8612168e-02	  -4.2818155e-01	
   2.4640000e+01	   1.1890228e-01	  -3.3430641e-01	
   2.4695000e+01	   1.9142488e-01	  -1.8237534e-01	
   2.4750000e+01	   2.3300633e-01	  -4.6581725e-02	
   2.4805000e+01	   2.4952077e-01	   3.5658332e-02	
   2.4860000e+01	   2.7013105e-01	   6.9231931e-02	
   2.4915000e+01	   2.9973235e-01	   6.4951425e-02	
   2.4970000e+01	   3.1908950e-01	   2.5385835e-02	
   2.5025000e+01	   3.1514186e-01	  -5.0863918e-02	
   2.5080000e+01	   2.8210136e-01	  -1.6729654e-01	
   2.5135000e+01	   2.1265460e-01	  -3.1139846e-01	
   2.5190000e+01	   1.1757319e-01	  -4.3433669e-01	
   2.5245000e+01	   4.4819250e-02	  -4.7640593e-01	
   2.5300000e+01	   5.4703715e-02	  -4.1878262e-01	
   2.5355000e+01	   1.6883918e-01	  -2.9576504e-01	
   2.5410000e+01	   3.4455196e-01	  -1.6255640e-01	
   2.5465000e+01	   4.9485363e-01	  -6.6714842e-02	
   2.5520000e+01	   5.4489132e-01	  -3.8281844e-02	
   2.5575000e+01	   4.9547213e-01	  -7.6786451e-02	
   2.5630000e+01	   4.2523699e-01	  -1.4480336e-01	
   2.5685000e+01	   4.0736659e-01	  -1.9767022e-01	
   2.5740000e+01	   4.3952815e-01	  -2.2502054e-01	
   2.5795000e+01	   4.7160293e-01	  -2.5297013e-01	
   2.5850000e+01	   4.7610123e-01	  -3.0896975e-01	
   2.5905000e+01	   4.6890855e-01	  -3.8975865e-01	
   2.5960000e+01	   4.7182921e-01	  -4.5508081e-01	
   2.6015000e+01	   4.8192411e-01	  -4.5005095e-01	
   2.6070000e+01	   4.9245178e-01	  -3.4897236e-01	
   2.6125000e+01	   5.1759454e-01	  -1.8745238e-01	
   2.6180000e+01	   5.6540415e-01	  -4.3617806e-02	
   2.6235000e+01	   6.0757737e-01	   2.0770381e-02	
   2.6290000e+01	   6.0441590e-01	   2.0649210e-03	
   2.6345000e+01	   5.4154997e-01	  -5.8645437e-02	
   2.6400000e+01	   4.3108903e-01	  -1.2144282e-01	
   2.6455000e+01	   3.0465320e-01	  -1.7183117e-01	
   2.6510000e+01	   2.0837134e-01	  -2.0979311e-01	
   2.6565000e+01	   1.6559793e-01	  -2.4314342e-01	
   2.6620000e+01	   1.3716650e-01	  -2.9751769e-01	
   2.6675000e+01	   6.3377366e-02	  -3.9935404e-01	
   2.6730000e+01	  -4.1543100e-02	  -5.2694761e-01	
   2.6785000e+01	  -8.4031492e-02	  -6.0428085e-01	
   2.6840000e+01	   4.1330353e-03	  -5.6779215e-01	
   2.6895000e+01	   1.9645231e-01	  -4.2198544e-01	
   2.6950000e+01	   4.0855959e-01	  -2.2046111e-01	
   2.7005000e+01	   5.5579554e-01	  -2.2604065e-02	
   2.7060000e+01	   5.8303712e-01	   1.2166130e-01	
   2.7115000e+01	   5.0511027e-01	   1.8343797e-01	
   2.7170000e+01	   4.2207337e-01	   1.7429460e-01	
   2.7225000e+01	   4.3432394e-01	   1.3248953e-01	
   2.7280000e+01	   5.3191693e-01	   7.9470569e-02	
   2.7335000e+01	   6.0456761e-01	   8.1812057e-03	
   2.7390000e+01	   5.5715927e-01	  -8.8636706e-02	
   2.7445000e+01	   3.8487267e-01	  -2.0346345e-01	
   2.7500000e+01	   1.5089063e-01	  -3.2342391e-01	
   2.7555000e+01	  -6.3730674e-02	  -4.3020244e-01	
   2.7610000e+01	  -1.8733976e-01	  -4.9197848e-01	
   2.7665000e+01	  -1.8411694e-01	  -4.7527610e-01	
   2.7720000e+01	  -8.2370452e-02	  -3.7187496e-01	
   2.7775000e+01	   4.7162853e-02	  -2.1151240e-01	
   2.7830000e+01	   1.6347592e-01	  -4.7121453e-02	
   2.7885000e+01	   2.8391647e-01	   7.3174400e-02	
   2.7940000e+01	   4.2484645e-01	   1.2609657e-01	
   2.7995000e+01	   5.4778214e-01	   1.2056235e-01	
   2.8050000e+01	   5.9586347e-01	   9.1644837e-02	
   2.8105000e+01	   5.5996876e-01	   7.5397797e-02	
   2.8160000e+01	   4.7602383e-01	   8.0611322e-02	
   2.8215000e+01	   3.7838077e-01	   8.7575140e-02	
   2.8270000e+01	   2.9350035e-01	   7.3056802e-02	
   2.8325000e+01	   2.5467222e-01	   2.8482388e-02	
   2.8380000e+01	   2.6801104e-01	  -4.5832419e-02	
   2.8435000e+01	   2.7620774e-01	  -1.4556360e-01	
   2.8490000e+01	   2.0706800e-01	  -2.4930684e-01	
   2.8545000e+01	   5.2047119e-02	  -3.1774477e-01	
   2.8600000e+01	  -1.2754033e-01	  -3.2005472e-01	
   2.8655000e+01	  -2.4402714e-01	  -2.5396051e-01	
   2.8710000e+01	  -2.2271657e-01	  -1.4375356e-01	
   2.8765000e+01	  -5.0748826e-02	  -3.1612184e-02	
   2.8820000e+01	   1.9113169e-01	   3.8590517e-02	
   2.8875000e+01	   3.8237959e-01	   4.8628527e-02	
   2.8930000e+01	   4.5909645e-01	   2.0865203e-02	
   2.8985000e+01	   4.3802794e-01	  -3.4851804e-03	
   2.9040000e+01	   3.6528151e-01	  -6.7151953e-03	
   2.9095000e+01	   2.7904646e-01	  -1.1101722e-02	
   2.9150000e+01	   2.0250844e-01	  -5.1748186e-02	
   2.9205000e+01	   1.2922523e-01	  -1.4077958e-01	
   2.9260000e+01	   3.6028377e-02	  -2.5858385e-01	
   2.9315000e+01	  -4.5653773e-02	  -3.6405080e-01	
   2.9370000e+01	  -3.9028635e-03	  -4.0519751e-01	
   2.9425000e+01	   2.3456871e-01	  -3.4213314e-01	
   2.9480000e+01	   5.5900183e-01	  -1.8733863e-01	
   2.9535000e+01	   7.2683106e-01	  -1.7735737e-02	
   2.9590000e+01	   6.0153966e-01	   7.9554231e-02	
   2.9645000e+01	   2.9177374e-01	   7.9733998e-02	
   2.9700000e+01	   2.4485830e-02	   2.8347650e-02	
   2.9755000e+01	  -6.8505007e-02	  -1.6897988e-02	
   2.9810000e+01	  -4.4152166e-03	  -3.6746999e-02	
   2.9865000e+01	   1.4149000e-01	  -4.9112130e-02	
   2.9920000e+01	   2.9948188e-01	  -8.0435266e-02	
   2.9975000e+01	   3.9904332e-01	  -1.4603709e-01	
   3.0030000e+01	   3.8430414e-01	  -2.3995943e-01	
   3.0085000e+01	   2.6795372e-01	  -3.2628465e-01	
   3.0140000e+01	   1.3163250e-01	  -3.5151080e-01	
   3.0195000e+01	   5.4027979e-02	  -2.8831175e-01	
   3.0250000e+01	   6.3868133e-02	  -1.6611039e-01	
   3.0305000e+01	   1.5110708e-01	  -4.5243924e-02	
   3.0360000e+01	   2.7208732e-01	   3.2563370e-02	
   3.0415000e+01	   3.4969896e-01	   6.1187028e-02	
   3.0470000e+01	   3.2672236e-01	   5.4999901e-02	
   3.0525000e+01	   2.2679945e-01	   2.9521690e-02	
   3.0580000e+01	   1.2013207e-01	  -1.0875688e-02	
   3.0635000e+01	   3.2899086e-02	  -7.0613826e-02	
   3.0690000e+01	  -6.2204457e-02	  -1.4849579e-01	
   3.0745000e+01	  -1.7558855e-01	  -2.3494320e-01	
   3.0800000e+01	  -2.7562254e-01	  -3.2239732e-01	
   3.0855000e+01	  -3.2675641e-01	  -3.9596824e-01	
   3.0910000e+01	  -3.0317069e-01	  -4.1121656e-01	
   3.0965000e+01	  -1.8294945e-01	  -3.1858158e-01	
   3.1020000e+01	   9.9629004e-03	  -1.2974574e-01	
   3.1075000e+01	   1.8040351e-01	   6.9817012e-02	
   3.1130000e+01	   2.4844648e-01	   1.9510199e-01	
   3.1185000e+01	   2.4047380e-01	   2.2883715e-01	
   3.1240000e+01	   2.3980496e-01	   2.0622705e-01	
   3.1295000e+01	   2.7808590e-01	   1.6220836e-01	
   3.1350000e+01	   3.1357080e-01	   1.1489838e-01	
   3.1405000e+01	   2.8523401e-01	   7.7669151e-02	
   3.1460000e+01	   1.6746072e-01	   5.4963129e-02	
   3.1515000e+01	  -6.3483688e-03	   2.9384181e-02	
   3.1570000e+01	  -1.6600380e-01	  -2.7346219e-02	
   3.1625000e+01	  -2.5721884e-01	  -1.2779773e-01	
   3.1680000e+01	  -2.7016249e-01	  -2.5585560e-01	
   3.1735000e+01	  -2.2054676e-01	  -3.7179278e-01	
   3.1790000e+01	  -1.1837109e-01	  -4.2429381e-01	
   3.1845000e+01	   3.1522572e-02	  -3.7143034e-01	
   3.1900000e+01	   2.0309293e-01	  -2.1239822e-01	
   3.1955000e+01	   3.5058515e-01	  -2.5105170e-03	
   3.2010000e+01	   4.4369781e-01	   1.7939732e-01	
   3.2065000e+01	   4.7989691e-01	   2.8892487e-01	
   3.2120000e+01	   4.6519280e-01	   3.3770475e-01	
   3.2175000e+01	   4.0945244e-01	   3.6060857e-01	
   3.2230000e+01	   3.4131456e-01	   3.7694085e-01	
   3.2285000e+01	   2.9492582e-01	   3.8135961e-01	
   3.2340000e+01	   2.6332729e-01	   3.5057830e-01	
   3.2395000e+01	   1.9520620e-01	   2.6047619e-01	
   3.2450000e+01	   6.6707923e-02	   1.2099202e-01	
   3.2505000e+01	  -6.7421610e-02	  -1.1334865e-02	
   3.2560000e+01	  -1.3168353e-01	  -8.3710285e-02	
   3.2615000e+01	  -1.2732996e-01	  -1.0344944e-01	
   3.2670000e+01	  -1.2149735e-01	  -1.1593627e-01	
   3.2725000e+01	  -1.3772951e-01	  -1.3509057e-01	
   3.2780000e+01	  -1.2631450e-01	  -1.2715047e-01	
   3.2835000e+01	  -6.2484828e-02	  -6.0336308e-02	
   3.2890000e+01	   8.2264814e-04	   5.7761662e-02	
   3.2945000e+01	   1.7776128e-02	   1.9276919e-01	
   3.3000000e+01	   3.3891574e-02	   3.1006394e-01	
   3.3055000e+01	   1.3420334e-01	   3.8544712e-01	
   3.3110000e+01	   3.1572302e-01	   4.0683904e-01	
   3.3165000e+01	   4.5497565e-01	   3.7498697e-01	
   3.3220000e+01	   4.3364512e-01	   3.0083054e-01	
   3.3275000e+01	   2.7574027e-01	   2.0346800e-01	
   3.3330000e+01	   1.2691236e-01	   1.1197616e-01	
   3.3385000e+01	   1.0875424e-01	   5.5018940e-02	
   3.3440000e+01	   2.0495152e-01	   3.2306037e-02	
   3.3495000e+01	   2.7754151e-01	   6.4149921e-03	
   3.3550000e+01	   2.0568931e-01	  -5.5749465e-02	
   3.3605000e+01	   2.0430981e-02	  -1.3451268e-01	
   3.3660000e+01	  -1.2369741e-01	  -1.6665925e-01	
   3.3715000e+01	  -1.1168088e-01	  -1.0779800e-01	
   3.3770000e+01	   3.3288050e-02	   2.3580557e-02	
   3.3825000e+01	   1.9760234e-01	   1.6614174e-01	
   3.3880000e+01	   2.7327314e-01	   2.6665910e-01	
   3.3935000e+01	   2.2297823e-01	   3.0643361e-01	
   3.3990000e+01	   1.0440992e-01	   2.9499543e-01	
   3.4045000e+01	   2.8391957e-02	   2.5410934e-01	
   3.4100000e+01	   5.6901300e-02	   2.0154976e-01	
   3.4155000e+01	   1.4393926e-01	   1.4156258e-01	
   3.4210000e+01	   1.9089419e-01	   7.6470299e-02	
   3.4265000e+01	   1.4249426e-01	   2.1321087e-02	
   3.4320000e+01	   1.8028648e-02	  -1.3530209e-02	
   3.4375000e+01	  -1.2585301e-01	  -4.8205073e-02	
   3.4430000e+01	  -2.3892595e-01	  -1.1279268e-01	
   3.4485000e+01	  -2.9879132e-01	  -1.9907662e-01	
   3.4540000e+01	  -3.1937757e-01	  -2.5726916e-01	
   3.4595000e+01	  -3.3363497e-01	  -2.4641904e-01	
   3.4650000e+01	  -3.4839107e-01	  -1.6948304e-01	
   3.4705000e+01	  -3.3136271e-01	  -5.6054527e-02	
   3.4760000e+01	  -2.6155383e-01	   6.3808054e-02	
   3.4815000e+01	  -1.7489828e-01	   1.5972082e-01	
   3.4870000e+01	  -1.3011828e-01	   2.0478319e-01	
   3.4925000e+01	  -1.3293172e-01	   1.9627802e-01	
   3.4980000e+01	  -1.3612956e-01	   1.5499775e-01	
   3.5035000e+01	  -1.2799472e-01	   9.9853172e-02	
   3.5090000e+01	  -1.6794434e-01	   3.8951508e-02	
   3.5145000e+01	  -3.0033471e-01	  -2.1309127e-02	
   3.5200000e+01	  -4.7546480e-01	  -8.0043483e-02	
   3.5255000e+01	  -5.9307205e-01	  -1.4846439e-01	
   3.5310000e+01	  -5.9720555e-01	  -2.2769083e-01	
   3.5365000e+01	  -5.0685690e-01	  -2.8164058e-01	
   3.5420000e+01	  -3.8074509e-01	  -2.5999977e-01	
   3.5475000e+01	  -2.7559866e-01	  -1.5566147e-01	
   3.5530000e+01	  -2.2142584e-01	  -1.8395254e-02	
   3.5585000e+01	  -2.0539453e-01	   9.2938581e-02	
   3.5640000e+01	  -1.8177701e-01	   1.5055966e-01	
   3.5695000e+01	  -1.2993127e-01	   1.5207979e-01	
   3.5750000e+01	  -1.0179785e-01	   1.0825418e-01	
   3.5805000e+01	  -1.7654325e-01	   4.6390184e-02	
   3.5860000e+01	  -3.5880789e-01	  -6.5696642e-05	
   3.5915000e+01	  -5.4957192e-01	  -2.1531839e-02	
   3.5970000e+01	  -6.4144043e-01	  -4.5422489e-02	
   3.6025000e+01	  -6.2869414e-01	  -1.0951236e-01	
   3.6080000e+01	  -5.9842422e-01	  -2.1624301e-01	
   3.6135000e+01	  -6.2852599e-01	  -3.1514563e-01	
   3.6190000e+01	  -7.1492588e-01	  -3.3666239e-01	
   3.6245000e+01	  -7.7976050e-01	  -2.4587997e-01	
   3.6300000e+01	  -7.4467485e-01	  -7.0105934e-02	
   3.6355000e+01	  -6.1443024e-01	   1.1610712e-01	
   3.6410000e+01	  -4.7484411e-01	   2.3884821e-01	
   3.6465000e+01	  -3.9864626e-01	   2.7064251e-01	
   3.6520000e+01	  -3.8410896e-01	   2.3186210e-01	
   3.6575000e+01	  -3.8839137e-01	   1.5829242e-01	
   3.6630000e+01	  -3.8408555e-01	   8.3090347e-02	
   3.6685000e+01	  -3.7510107e-01	   3.2275715e-02	
   3.6740000e+01	  -3.8019819e-01	   3.6010789e-03	
   3.6795000e+01	  -4.1243146e-01	  -4.4746771e-02	
   3.6850000e+01	  -4.6141748e-01	  -1.5184839e-01	
   3.6905000e+01	  -4.8373818e-01	  -2.9443267e-01	
   3.6960000e+01	  -4.3455404e-01	  -3.9009650e-01	
   3.7015000e+01	  -3.3123558e-01	  -3.6869852e-01	
   3.7070000e+01	  -2.5625451e-01	  -2.3301108e-01	
   3.7125000e+01	  -2.7121335e-01	  -4.9788657e-02	
   3.7180000e+01	  -3.4996873e-01	   1.0691791e-01	
   3.7235000e+01	  -4.0892157e-01	   1.9985534e-01	
   3.7290000e+01	  -3.8931326e-01	   2.3088682e-01	
   3.7345000e+01	  -3.0707764e-01	   2.2040605e-01	
   3.7400000e+01	  -2.2347445e-01	   1.8823856e-01	
   3.7455000e+01	  -1.7391424e-01	   1.4186291e-01	
   3.7510000e+01	  -1.4776653e-01	   8.0632587e-02	
   3.7565000e+01	  -1.3271840e-01	   1.3530735e-02	
   3.7620000e+01	  -1.4458497e-01	  -4.2321409e-02	
   3.7675000e+01	  -2.0998192e-01	  -8.6029131e-02	
   3.7730000e+01	  -3.3357304e-01	  -1.3259549e-01	
   3.7785000e+01	  -4.6767415e-01	  -1.7644411e-01	
   3.7840000e+01	  -5.1984197e-01	  -1.7833244e-01	
   3.7895000e+01	  -4.3390606e-01	  -1.0858392e-01	
   3.7950000e+01	  -2.5899596e-01	   1.3383136e-02	
   3.8005000e+01	  -9.8750318e-02	   1.4003259e-01	
   3.8060000e+01	  -7.3239353e-03	   2.3713845e-01	
   3.8115000e+01	   2.6635439e-02	   2.9004863e-01	
   3.8170000e+01	   1.3800216e-02	   2.9410742e-01	
   3.8225000e+01	  -5.9941583e-02	   2.6241708e-01	
   3.8280000e+01	  -1.8361032e-01	   2.2685318e-01	
   3.8335000e+01	  -3.0257827e-01	   2.0543757e-01	
   3.8390000e+01	  -3.7644995e-01	   1.7434113e-01	
   3.8445000e+01	  -4.1833118e-01	   9.0785846e-02	
   3.8500000e+01	  -4.5720230e-01	  -5.6390818e-02	
   3.8555000e+01	  -4.8741182e-01	  -2.2054547e-01	
   3.8610000e+01	  -4.7176217e-01	  -3.1613152e-01	
   3.8665000e+01	  -3.9087702e-01	  -2.7498879e-01	
   3.8720000e+01	  -2.8102264e-01	  -1.0177520e-01	
   3.8775000e+01	  -2.1091244e-01	   1.2471091e-01	
   3.8830000e+01	  -2.1949351e-01	   3.0699807e-01	
   3.8885000e+01	  -2.8136871e-01	   3.8678744e-01	
   3.8940000e+01	  -3.3318959e-01	   3.6374270e-01	
   3.8995000e+01	  -3.3461623e-01	   2.7656722e-01	
   3.9050000e+01	  -2.9997922e-01	   1.6912310e-01	
   3.9105000e+01	  -2.7491629e-01	   6.7816552e-02	
   3.9160000e+01	  -3.0394324e-01	  -1.9607821e-02	
   3.9215000e+01	  -4.1429405e-01	  -9.4307728e-02	
   3.9270000e+01	  -5.8245788e-01	  -1.5188688e-01	
   3.9325000e+01	  -6.9808394e-01	  -1.6872587e-01	
   3.9380000e+01	  -6.2108281e-01	  -1.1497167e-01	
   3.9435000e+01	  -3.3820927e-01	   2.4587103e-03	
   3.9490000e+01	  -2.9883251e-02	   1.2471627e-01	
   3.9545000e+01	   9.2454481e-02	   1.9191828e-01	
   3.9600000e+01	   1.3133243e-03	   2.0128331e-01	
   3.9655000e+01	  -1.5318082e-01	   1.9496657e-01	
   3.9710000e+01	  -2.3723628e-01	   1.9669988e-01	
   3.9765000e+01	  -2.4297038e-01	   1.8669177e-01	
   3.9820000e+01	  -2.1255117e-01	   1.4248914e-01	
   3.9875000e+01	  -1.5280928e-01	   7.3278796e-02	
   3.9930000e+01	  -7.7345896e-02	  -7.3170513e-05	
   3.9985000e+01	  -5.8455719e-02	  -6.8922010e-02	
   4.0040000e+01	  -1.4800069e-01	  -1.2331586e-01	
   4.0095000e+01	  -2.7667962e-01	  -1.3947688e-01	
   4.0150000e+01	  -3.0957635e-01	  -9.7717142e-02	
   4.0205000e+01	  -1.9870624e-01	  -1.4699439e-03	
   4.0260000e+01	  -3.4180628e-02	   1.2340595e-01	
   4.0315000e+01	   5.8387688e-02	   2.3833194e-01	
   4.0370000e+01	   4.3933655e-02	   3.0889477e-01	
   4.0425000e+01	  -2.9763049e-03	   3.2639286e-01	
   4.0480000e+01	   9.7409931e-03	   3.0793727e-01	
   4.0535000e+01	   8.9813218e-02	   2.7075718e-01	
   4.0590000e+01	   1.6169802e-01	   2.1950750e-01	
   4.0645000e+01	   1.6183484e-01	   1.5881485e-01	
   4.0700000e+01	   8.9690648e-02	   9.5519592e-02	
   4.0755000e+01	  -3.9095409e-02	   2.4860989e-02	
   4.0810000e+01	  -2.2245814e-01	  -6.1167506e-02	
   4.0865000e+01	  -4.2250958e-01	  -1.4237101e-01	
   4.0920000e+01	  -5.3876143e-01	  -1.6782821e-01	
   4.0975000e+01	  -4.7792961e-01	  -1.0198045e-01	
   4.1030000e+01	  -2.4024731e-01	   3.5101358e-02	
   4.1085000e+01	   8.1372922e-02	   1.8648229e-01	
   4.1140000e+01	   3.7392070e-01	   3.0905971e-01	
   4.1195000e+01	   5.5938316e-01	   3.9424095e-01	
   4.1250000e+01	   6.0680531e-01	   4.5022102e-01	
   4.1305000e+01	   5.3878598e-01	   4.7913079e-01	
   4.1360000e+01	   4.2061735e-01	   4.7065606e-01	
   4.1415000e+01	   3.0804057e-01	   4.1306024e-01	
   4.1470000e+01	   2.1396931e-01	   3.0939333e-01	
   4.1525000e+01	   1.3985231e-01	   1.8595698e-01	
   4.1580000e+01	   1.0089817e-01	   8.3068766e-02	
   4.1635000e+01	   8.5619995e-02	   2.4112455e-02	
   4.1690000e+01	   3.2855820e-02	  -5.3626380e-03	
   4.1745000e+01	  -8.2661744e-02	  -2.7946183e-02	
   4.1800000e+01	  -1.6456761e-01	  -2.9641055e-02	
   4.1855000e+01	  -8.0054319e-02	   2.5284550e-02	
   4.1910000e+01	   1.6989935e-01	   1.3705542e-01	
   4.1965000e+01	   4.4103061e-01	   2.5919892e-01	
   4.2020000e+01	   6.0784691e-01	   3.4685180e-01	
   4.2075000e+01	   6.6199492e-01	   3.9003823e-01	
   4.2130000e+01	   6.4029950e-01	   3.9773836e-01	
   4.2185000e+01	   5.4312846e-01	   3.7646561e-01	
   4.2240000e+01	   3.7689710e-01	   3.3133425e-01	
   4.2295000e+01	   2.1280408e-01	   2.6935061e-01	
   4.2350000e+01	   1.3212471e-01	   1.9694382e-01	
   4.2405000e+01	   1.3678188e-01	   1.2028741e-01	
   4.2460000e+01	   1.5696032e-01	   4.2306951e-02	
   4.2515000e+01	   1.3064718e-01	  -3.9759004e-02	
   4.2570000e+01	   5.3311886e-02	  -1.1950483e-01	
   4.2625000e+01	  -2.4599229e-02	  -1.6439680e-01	
   4.2680000e+01	  -2.4701684e-02	  -1.3179687e-01	
   4.2735000e+01	   1.0803474e-01	  -1.2293428e-02	
   4.2790000e+01	   3.4616088e-01	   1.4859345e-01	
   4.2845000e+01	   5.7534526e-01	   2.7870894e-01	
   4.2900000e+01	   6.7048269e-01	   3.2909450e-01	
   4.2955000e+01	   5.8681166e-01	   2.9765956e-01	
   4.3010000e+01	   3.8218103e-01	   2.1400077e-01	
   4.3065000e+01	   1.6512584e-01	   1.1283644e-01	
   4.3120000e+01	   2.6691928e-02	   2.1538475e-02	
   4.3175000e+01	  -2.4650340e-03	  -4.4947805e-02	
   4.3230000e+01	   4.1541872e-02	  -9.0774718e-02	
   4.3285000e+01	   9.2687553e-02	  -1.3012099e-01	
   4.3340000e+01	   1.1570696e-01	  -1.6193625e-01	
   4.3395000e+01	   1.2897852e-01	  -1.6550975e-01	
   4.3450000e+01	   1.5996927e-01	  -1.2726560e-01	
   4.3505000e+01	   1.9912367e-01	  -5.9748482e-02	
   4.3560000e+01	   2.1941874e-01	   1.2121814e-02	
   4.3615000e+01	   2.1935911e-01	   7.4084863e-02	
   4.3670000e+01	   2.2124873e-01	   1.2482914e-01	
   4.3725000e+01	   2.4288886e-01	   1.6359446e-01	
   4.3780000e+01	   2.8202147e-01	   1.8399358e-01	
   4.3835000e+01	   3.1014112e-01	   1.7374898e-01	
   4.3890000e+01	   2.8593932e-01	   1.1770546e-01	
   4.3945000e+01	   1.9942966e-01	   1.3303527e-02	
   4.4000000e+01	   9.0737754e-02	  -1.1383547e-01	
   4.4055000e+01	  -4.4637339e-04	  -2.2217538e-01	
   4.4110000e+01	  -8.5994882e-02	  -2.8562681e-01	
   4.4165000e+01	  -1.9712325e-01	  -3.0361849e-01	
   4.4220000e+01	  -3.0971130e-01	  -2.8118181e-01	
   4.4275000e+01	  -3.3840032e-01	  -2.1694361e-01	
   4.4330000e+01	  -2.2361123e-01	  -1.1904895e-01	
   4.4385000e+01	  -7.6244051e-03	  -1.5049611e-02	
   4.4440000e+01	   1.9978414e-01	   6.8267713e-02	
   4.4495000e+01	   3.1830806e-01	   1.2211335e-01	
   4.4550000e+01	   3.3625095e-01	   1.4390598e-01	
   4.4605000e+01	   2.7942336e-01	   1.2616051e-01	
   4.4660000e+01	   1.8382676e-01	   7.0705732e-02	
   4.4715000e+01	   9.5075296e-02	  -9.2119726e-04	
   4.4770000e+01	   5.9649618e-02	  -6.7480482e-02	
   4.4825000e+01	   8.9986073e-02	  -1.2971954e-01	
   4.4880000e+01	   1.3589766e-01	  -1.9991046e-01	
   4.4935000e+01	   1.1354558e-01	  -2.7589453e-01	
   4.4990000e+01	  -1.3764567e-02	  -3.3215727e-01	
   4.5045000e+01	  -1.8330503e-01	  -3.3211723e-01	
   4.5100000e+01	  -2.7528087e-01	  -2.5143738e-01	
   4.5155000e+01	  -2.2346172e-01	  -1.0275961e-01	
   4.5210000e+01	  -8.9806537e-02	   5.7603983e-02	
   4.5265000e+01	  -7.0765228e-03	   1.5896122e-01	
   4.5320000e+01	  -3.2152348e-02	   1.6575550e-01	
   4.5375000e+01	  -9.1740504e-02	   1.0045653e-01	
   4.5430000e+01	  -9.2342066e-02	   1.4008427e-02	
   4.5485000e+01	  -3.2136706e-02	  -5.8364812e-02	
   4.5540000e+01	   2.5536834e-02	  -1.0421052e-01	
   4.5595000e+01	   4.1019959e-02	  -1.2265211e-01	
   4.5650000e+01	   2.1898452e-02	  -1.3707301e-01	
   4.5705000e+01	  -1.5283498e-02	  -1.9573837e-01	
   4.5760000e+01	  -6.8880325e-02	  -3.1524868e-01	
   4.5815000e+01	  -1.4100724e-01	  -4.3135681e-01	
   4.5870000e+01	  -2.2866601e-01	  -4.4634922e-01	
   4.5925000e+01	  -3.2574165e-01	  -3.2956919e-01	
   4.5980000e+01	  -4.0433839e-01	  -1.4685246e-01	
   4.6035000e+01	  -4.0201085e-01	   4.4610967e-03	
   4.6090000e+01	  -2.8307733e-01	   6.6290030e-02	
   4.6145000e+01	  -1.0940037e-01	   4.2105073e-02	
   4.6200000e+01	   1.2750225e-02	  -1.5575366e-02	
   4.6255000e+01	   4.5376543e-02	  -4.3552716e-02	
   4.6310000e+01	   2.3679265e-02	  -2.1056033e-02	
   4.6365000e+01	  -2.2348646e-02	   8.5258293e-03	
   4.6420000e+01	  -9.4999096e-02	  -2.1896455e-02	
   4.6475000e+01	  -1.9336112e-01	  -1.3679482e-01	
   4.6530000e+01	  -2.9091176e-01	  -2.9308865e-01	
   4.6585000e+01	  -3.5104749e-01	  -4.1625486e-01	
   4.6640000e+01	  -3.5100257e-01	  -4.5056969e-01	
   4.6695000e+01	  -2.9447114e-01	  -3.7977231e-01	
   4.6750000e+01	  -2.1205180e-01	  -2.2914330e-01	
   4.6805000e+01	  -1.4037476e-01	  -6.1432566e-02	
   4.6860000e+01	  -8.7117604e-02	   5.7157229e-02	
   4.6915000e+01	  -3.0648399e-02	   1.0708934e-01	
   4.6970000e+01	   2.9321001e-02	   1.1510970e-01	
   4.7025000e+01	   4.8192152e-02	   1.0310653e-01	
   4.7080000e+01	  -1.5842550e-03	   6.7330626e-02	
   4.7135000e+01	  -7.3547320e-02	   7.0878216e-03	
   4.7190000e+01	  -1.0248709e-01	  -6.4723634e-02	
   4.7245000e+01	  -9.5324751e-02	  -1.4682834e-01	
   4.7300000e+01	  -1.1247650e-01	  -2.5219081e-01	
   4.7355000e+01	  -1.7403383e-01	  -3.7557130e-01	
   4.7410000e+01	  -2.3705988e-01	  -4.8015762e-01	
   4.7465000e+01	  -2.5348464e-01	  -5.1916204e-01	
   4.7520000e+01	  -2.0354431e-01	  -4.6029149e-01	
   4.7575000e+01	  -8.7961970e-02	  -3.0733578e-01	
   4.7630000e+01	   6.3409101e-02	  -1.1816622e-01	
   4.7685000e+01	   1.8260849e-01	   1.7099323e-02	
   4.7740000e+01	   2.1051861e-01	   4.0397108e-02	
   4.7795000e+01	   1.6193713e-01	  -3.1586343e-02	
   4.7850000e+01	   1.1122848e-01	  -1.2828762e-01	
   4.7905000e+01	   1.0179989e-01	  -1.8288898e-01	
   4.7960000e+01	   9.9372762e-02	  -1.7872423e-01	
   4.8015000e+01	   4.6011564e-02	  -1.5345936e-01	
   4.8070000e+01	  -7.6340926e-02	  -1.6182951e-01	
   4.8125000e+01	  -2.4588409e-01	  -2.3212488e-01	
   4.8180000e+01	  -4.1138339e-01	  -3.4755428e-01	
   4.8235000e+01	  -4.9055814e-01	  -4.5259838e-01	
   4.8290000e+01	  -4.2805589e-01	  -4.8191594e-01	
   4.8345000e+01	  -2.7827241e-01	  -4.0706937e-01	
   4.8400000e+01	  -1.6318361e-01	  -2.6019051e-01	
   4.8455000e+01	  -1.2933695e-01	  -1.0327149e-01	
   4.8510000e+01	  -1.1668316e-01	   1.5663750e-02	
   4.8565000e+01	  -8.3597290e-02	   7.1388191e-02	
   4.8620000e+01	  -8.2698175e-02	   5.6199708e-02	
   4.8675000e+01	  -1.7421992e-01	  -1.3744660e-02	
   4.8730000e+01	  -3.2133562e-01	  -1.0557575e-01	
   4.8785000e+01	  -4.2857381e-01	  -1.9984679e-01	
   4.8840000e+01	  -4.6347441e-01	  -3.0213366e-01	
   4.8895000e+01	  -4.8410798e-01	  -4.1485796e-01	
   4.8950000e+01	  -5.4616719e-01	  -5.1148444e-01	
   4.9005000e+01	  -6.2811736e-01	  -5.5142758e-01	
   4.9060000e+01	  -6.5211956e-01	  -5.1081426e-01	
   4.9115000e+01	  -5.5020618e-01	  -3.9400280e-01	
   4.9170000e+01	  -3.2104777e-01	  -2.3049065e-01	
   4.9225000e+01	  -4.8612123e-02	  -6.6056458e-02	
   4.9280000e+01	   1.5215222e-01	   5.7016930e-02	
   4.9335000e+01	   2.2775744e-01	   1.2296468e-01	
   4.9390000e+01	   2.0609049e-01	   1.4650769e-01	
   4.9445000e+01	   1.2769618e-01	   1.5020430e-01	
   4.9500000e+01	   3.1032952e-03	   1.4036132e-01	
   4.9555000e+01	  -1.5446835e-01	   1.1010541e-01	
   4.9610000e+01	  -3.0356994e-01	   5.8802013e-02	
   4.9665000e+01	  -4.0521186e-01	  -4.4552351e-03	
   4.9720000e+01	  -4.5495976e-01	  -7.3733935e-02	
   4.9775000e+01	  -4.6578444e-01	  -1.4635374e-01	
   4.9830000e+01	  -4.2895825e-01	  -2.0631718e-01	
   4.9885000e+01	  -3.1842991e-01	  -2.2121452e-01	
   4.9940000e+01	  -1.4241857e-01	  -1.6226290e-01	
   4.9995000e+01	   3.7254955e-02	  -2.7510048e-02	
   5.0050000e+01	   1.5632950e-01	   1.4392678e-01	
   5.0105000e+01	   2.0657307e-01	   2.8046986e-01	
   5.0160000e+01	   2.3366146e-01	   3.2505762e-01	
   5.0215000e+01	   2.7820108e-01	   2.8567187e-01	
   5.0270000e+01	   3.2463601e-01	   2.2717008e-01	
   5.0325000e+01	   3.1243428e-01	   2.0680188e-01	
   5.0380000e+01	   1.9607198e-01	   2.2235941e-01	
   5.0435000e+01	   2.9764138e-03	   2.2181188e-01	
   5.0490000e+01	  -1.6705091e-01	   1.5658042e-01	
   5.0545000e+01	  -2.2231291e-01	   2.7839639e-02	
   5.0600000e+01	  -1.5920409e-01	  -1.0709450e-01	
   5.0655000e+01	  -4.3007323e-02	  -1.7030694e-01	
   5.0710000e+01	   7.5092177e-02	  -1.1900340e-01	
   5.0765000e+01	   1.8770864e-01	   1.9153669e-02	
   5.0820000e+01	   2.8961996e-01	   1.6934591e-01	
   5.0875000e+01	   3.5822575e-01	   2.7677171e-01	
   5.0930000e+01	   3.8542647e-01	   3.4157734e-01	
   5.0985000e+01	   3.8448080e-01	   3.8259034e-01	
   5.1040000e+01	   3.6090902e-01	   3.9407312e-01	
   5.1095000e+01	   3.1864494e-01	   3.6293385e-01	
   5.1150000e+01	   2.8528891e-01	   3.0876111e-01	
   5.1205000e+01	   2.8211388e-01	   2.6972940e-01	
   5.1260000e+01	   2.7147434e-01	   2.4842579e-01	
   5.1315000e+01	   1.8254108e-01	   2.0447466e-01	
   5.1370000e+01	   1.3563519e-02	   1.1660502e-01	
   5.1425000e+01	  -1.2393765e-01	   3.1504327e-02	
   5.1480000e+01	  -1.0431137e-01	   2.6962594e-02	
   5.1535000e+01	   8.3553701e-02	   1.3195818e-01	
   5.1590000e+01	   3.3395841e-01	   3.0164114e-01	
   5.1645000e+01	   5.2475287e-01	   4.6315521e-01	
   5.1700000e+01	   5.9845815e-01	   5.6376391e-01	
   5.1755000e+01	   5.7831868e-01	   5.8171609e-01	
   5.1810000e+01	   5.3496469e-01	   5.2210150e-01	
   5.1865000e+01	   5.2453324e-01	   4.1622000e-01	
   5.1920000e+01	   5.3880931e-01	   3.1064746e-01	
   5.1975000e+01	   5.1826954e-01	   2.3947271e-01	
   5.2030000e+01	   4.2277600e-01	   2.0309091e-01	
   5.2085000e+01	   2.7653555e-01	   1.7681017e-01	
   5.2140000e+01	   1.4005504e-01	   1.4296223e-01	
   5.2195000e+01	   7.2756094e-02	   1.1675673e-01	
   5.2250000e+01	   1.2526728e-01	   1.3782238e-01	
   5.2305000e+01	   3.0366281e-01	   2.2903206e-01	
   5.2360000e+01	   5.1657126e-01	   3.6542817e-01	
   5.2415000e+01	   6.2072879e-01	   4.9426625e-01	
   5.2470000e+01	   5.5407486e-01	   5.8151099e-01	
   5.2525000e+01	   3.8797739e-01	   6.2337291e-01	
   5.2580000e+01	   2.4593801e-01	   6.2136830e-01	
   5.2635000e+01	   2.0925026e-01	   5.7496433e-01	
   5.2690000e+01	   2.8620004e-01	   4.9989163e-01	
   5.2745000e+01	   4.1937097e-01	   4.2429192e-01	
   5.2800000e+01	   5.1425339e-01	   3.5751737e-01	
   5.2855000e+01	   4.9697485e-01	   2.8454969e-01	
   5.2910000e+01	   3.6732903e-01	   1.9947270e-01	
   5.2965000e+01	   1.8972653e-01	   1.2777278e-01	
   5.3020000e+01	   3.5428207e-02	   1.0961279e-01	
   5.3075000e+01	  -4.7777754e-02	   1.7009632e-01	
   5.3130000e+01	  -2.1995745e-02	   3.0388873e-01	
   5.3185000e+01	   1.3202856e-01	   4.7643782e-01	
   5.3240000e+01	   3.6183371e-01	   6.3548254e-01	
   5.3295000e+01	   5.3398747e-01	   7.3309605e-01	
   5.3350000e+01	   5.3688492e-01	   7.5308072e-01	
   5.3405000e+01	   3.9506388e-01	   7.1821047e-01	
   5.3460000e+01	   2.4061902e-01	   6.6433005e-01	
   5.3515000e+01	   1.7519321e-01	   6.1087032e-01	
   5.3570000e+01	   1.9677151e-01	   5.5922671e-01	
   5.3625000e+01	   2.4655766e-01	   5.0585838e-01	
   5.3680000e+01	   2.7209968e-01	   4.4261801e-01	
   5.3735000e+01	   2.3943710e-01	   3.5535714e-01	
   5.3790000e+01	   1.4094407e-01	   2.4337103e-01	
   5.3845000e+01	   2.2340453e-02	   1.3877948e-01	
   5.3900000e+01	  -3.0009193e-02	   9.2171050e-02	
   5.3955000e+01	   4.4409956e-02	   1.3754309e-01	
   5.4010000e+01	   2.3091840e-01	   2.7312955e-01	
   5.4065000e+01	   4.5254378e-01	   4.6161319e-01	
   5.4120000e+01	   6.2105590e-01	   6.3702449e-01	
   5.4175000e+01	   6.8246855e-01	   7.3152885e-01	
   5.4230000e+01	   6.3459888e-01	   7.2257936e-01	
   5.4285000e+01	   5.1897117e-01	   6.4994123e-01	
   5.4340000e+01	   3.9268820e-01	   5.7322108e-01	
   5.4395000e+01	   2.9214978e-01	   5.2100706e-01	
   5.4450000e+01	   2.2012299e-01	   4.8812460e-01	
   5.4505000e+01	   1.6788802e-01	   4.6210469e-01	
   5.4560000e+01	   1.3540704e-01	   4.3177280e-01	
   5.4615000e+01	   1.2123048e-01	   3.8124409e-01	
   5.4670000e+01	   1.0587611e-01	   2.9936366e-01	
   5.4725000e+01	   6.0654547e-02	   1.9762987e-01	
   5.4780000e+01	  -1.9292083e-02	   1.0842058e-01	
   5.4835000e+01	  -9.2069878e-02	   6.7300531e-02	
   5.4890000e+01	  -9.2015802e-02	   1.0049180e-01	
   5.4945000e+01	   1.5371066e-02	   2.1209643e-01	
   5.5000000e+01	   1.9747958e-01	   3.6675465e-01	
   5.5055000e+01	   3.6843583e-01	   5.0031399e-01	
   5.5110000e+01	   4.4985829e-01	   5.6820396e-01	
   5.5165000e+01	   4.3250605e-01	   5.7622869e-01	
   5.5220000e+01	   3.7000948e-01	   5.5720745e-01	
   5.5275000e+01	   3.1072039e-01	   5.3341385e-01	
   5.5330000e+01	   2.5760630e-01	   5.0879072e-01	
   5.5385000e+01	   1.9528953e-01	   4.7850062e-01	
   5.5440000e+01	   1.2003719e-01	   4.2979058e-01	
   5.5495000e+01	   2.3846125e-02	   3.4391131e-01	
   5.5550000e+01	  -1.1514332e-01	   2.1641861e-01	
   5.5605000e+01	  -2.8592489e-01	   7.7359096e-02	
   5.5660000e+01	  -4.1025780e-01	  -1.6249969e-02	
   5.5715000e+01	  -4.0179667e-01	  -1.2256420e-02	
   5.5770000e+01	  -2.5517338e-01	   1.0061805e-01	
   5.5825000e+01	  -5.0892239e-02	   2.7575413e-01	
   5.5880000e+01	   1.1087428e-01	   4.3366494e-01	
   5.5935000e+01	   1.6719910e-01	   5.1652897e-01	
   5.5990000e+01	   1.2264975e-01	   5.2140943e-01	
   5.6045000e+01	   5.2172779e-02	   4.8611587e-01	
   5.6100000e+01	   5.0845352e-02	   4.5152328e-01	
   5.6155000e+01	   1.5124645e-01	   4.3482144e-01	
   5.6210000e+01	   2.8522526e-01	   4.2868106e-01	
   5.6265000e+01	   3.3740076e-01	   4.1604927e-01	
   5.6320000e+01	   2.4444842e-01	   3.7763826e-01	
   5.6375000e+01	   4.3328467e-02	   2.9132892e-01	
   5.6430000e+01	  -1.6652351e-01	   1.4757463e-01	
   5.6485000e+01	  -2.9813065e-01	  -2.2390463e-02	
   5.6540000e+01	  -3.2714550e-01	  -1.4630326e-01	
   5.6595000e+01	  -2.8445060e-01	  -1.5445071e-01	
   5.6650000e+01	  -2.1220674e-01	  -3.2881781e-02	
   5.6705000e+01	  -1.3831527e-01	   1.5984636e-01	
   5.6760000e+01	  -7.7126398e-02	   3.3352436e-01	
   5.6815000e+01	  -2.8302888e-02	   4.3298393e-01	
   5.6870000e+01	   1.6720756e-02	   4.6320638e-01	
   5.6925000e+01	   4.9712364e-02	   4.5415179e-01	
   5.6980000e+01	   3.7750489e-02	   4.2079588e-01	
   5.7035000e+01	  -4.0350748e-02	   3.6402508e-01	
   5.7090000e+01	  -1.4499388e-01	   2.9292169e-01	
   5.7145000e+01	  -1.8590530e-01	   2.2584145e-01	
   5.7200000e+01	  -1.1948427e-01	   1.6656291e-01	
   5.7255000e+01	  -2.6558088e-02	   9.5975527e-02	
   5.7310000e+01	  -3.2906082e-02	   5.7055715e-03	
   5.7365000e+01	  -1.4289570e-01	  -6.4431832e-02	
   5.7420000e+01	  -2.1734581e-01	  -4.8997408e-02	
   5.7475000e+01	  -1.4745423e-01	   6.8978815e-02	
   5.7530000e+01	   6.4278352e-03	   2.2872824e-01	
   5.7585000e+01	   1.0101583e-01	   3.5657768e-01	
   5.7640000e+01	   9.0825327e-02	   4.3415424e-01	
   5.7695000e+01	   5.4144946e-02	   4.7898835e-01	
   5.7750000e+01	   6.7243490e-02	   4.9309474e-01	
   5.7805000e+01	   1.2733474e-01	   4.6895007e-01	
   5.7860000e+01	   1.8706807e-01	   4.2231767e-01	
   5.7915000e+01	   1.9712258e-01	   3.7856696e-01	
   5.7970000e+01	   1.1694859e-01	   3.3440606e-01	
   5.8025000e+01	  -5.8004254e-02	   2.6307997e-01	
   5.8080000e+01	  -2.6559579e-01	   1.5604839e-01	
   5.8135000e+01	  -4.0653766e-01	   4.2260878e-02	
   5.8190000e+01	  -4.1775744e-01	  -3.0058174e-02	
   5.8245000e+01	  -3.0770148e-01	  -1.8515681e-02	
   5.8300000e+01	  -1.3329233e-01	   9.5552419e-02	
   5.8355000e+01	   3.3351315e-02	   2.8701195e-01	
   5.8410000e+01	   1.2707378e-01	   4.8275202e-01	
   5.8465000e+01	   1.1812828e-01	   6.0637891e-01	
   5.8520000e+01	   3.9877368e-02	   6.3757769e-01	
   5.8575000e+01	  -2.5474696e-02	   6.1096859e-01	
   5.8630000e+01	  -1.0973304e-02	   5.6345543e-01	
   5.8685000e+01	   8.0325534e-02	   5.0962050e-01	
   5.8740000e+01	   1.8060218e-01	   4.6054903e-01	
   5.8795000e+01	   2.0770189e-01	   4.2906799e-01	
   5.8850000e+01	   1.2361848e-01	   4.0543689e-01	
   5.8905000e+01	  -3.5804657e-02	   3.5379759e-01	
   5.8960000e+01	  -1.9021272e-01	   2.5284771e-01	
   5.9015000e+01	  -2.7445618e-01	   1.3100321e-01	
   5.9070000e+01	  -2.6613363e-01	   4.9261112e-02	
   5.9125000e+01	  -1.7357751e-01	   5.5735552e-02	
   5.9180000e+01	  -2.3748353e-02	   1.5948660e-01	
   5.9235000e+01	   1.3374888e-01	   3.3092043e-01	
   5.9290000e+01	   2.3463477e-01	   5.1541995e-01	
   5.9345000e+01	   2.4393375e-01	   6.5814658e-01	
   5.9400000e+01	   1.9954254e-01	   7.3096765e-01	
   5.9455000e+01	   1.8632240e-01	   7.3966001e-01	
   5.9510000e+01	   2.4114028e-01	   7.0661090e-01	
   5.9565000e+01	   3.0104144e-01	   6.5079210e-01	
   5.9620000e+01	   2.7838510e-01	   5.8629827e-01	
   5.9675000e+01	   1.6969722e-01	   5.2808626e-01	
   5.9730000e+01	   5.2787855e-02	   4.7871204e-01	
   5.9785000e+01	  -1.0999290e-02	   4.1570835e-01	
   5.9840000e+01	  -3.0694817e-02	   3.1977303e-01	
   5.9895000e+01	  -4.1890329e-02	   2.1421880e-01	
   5.9950000e+01	  -4.9925923e-02	   1.5609389e-01	
   6.0005000e+01	  -2.9182999e-02	   1.9147691e-01	
   6.0060000e+01	   4.5460343e-02	   3.2441485e-01	
   6.0115000e+01	   1.6722922e-01	   5.1215287e-01	
   6.0170000e+01	   2.8948473e-01	   6.8316925e-01	
   6.0225000e+01	   3.6623213e-01	   7.7765447e-01	
   6.0280000e+01	   3.9854072e-01	   7.8517570e-01	
   6.0335000e+01	   4.2063908e-01	   7.4214613e-01	
   6.0390000e+01	   4.5484819e-01	   6.9247804e-01	
   6.0445000e+01	   5.0001894e-01	   6.5513648e-01	
   6.0500000e+01	   5.3927374e-01	   6.2379934e-01	
   6.0555000e+01	   5.3434702e-01	   5.8244645e-01	
   6.0610000e+01	   4.3895959e-01	   5.1693441e-01	
   6.0665000e+01	   2.5309213e-01	   4.2167024e-01	
   6.0720000e+01	   5.4227769e-02	   3.0559920e-01	
   6.0775000e+01	  -5.4617005e-02	   1.9825345e-01	
   6.0830000e+01	  -3.4174112e-02	   1.4889186e-01	
   6.0885000e+01	   5.9788924e-02	   2.0336685e-01	
   6.0940000e+01	   1.3775873e-01	   3.6348251e-01	
   6.0995000e+01	   1.6932155e-01	   5.6769154e-01	
   6.1050000e+01	   2.0160853e-01	   7.2209052e-01	
   6.1105000e+01	   2.8546142e-01	   7.6217189e-01	
   6.1160000e+01	   4.1341941e-01	   6.9609864e-01	
   6.1215000e+01	   5.3421585e-01	   5.9312669e-01	
   6.1270000e+01	   5.9871010e-01	   5.2465403e-01	
   6.1325000e+01	   5.8514400e-01	   5.1035138e-01	
   6.1380000e+01	   4.9718106e-01	   5.1877546e-01	
   6.1435000e+01	   3.5570362e-01	   5.1094679e-01	
   6.1490000e+01	   2.0249596e-01	   4.7108873e-01	
   6.1545000e+01	   9.8046986e-02	   4.0298708e-01	
   6.1600000e+01	   9.2680724e-02	   3.2443760e-01	
   6.1655000e+01	   1.9007990e-01	   2.7434737e-01	
   6.1710000e+01	   3.3112529e-01	   2.9807954e-01	
   6.1765000e+01	   4.2208044e-01	   4.0425725e-01	
   6.1820000e+01	   4.1549766e-01	   5.4921180e-01	
   6.1875000e+01	   3.6794655e-01	   6.7542046e-01	
   6.1930000e+01	   3.7880885e-01	   7.4947355e-01	
   6.1985000e+01	   4.6759218e-01	   7.5812737e-01	
   6.2040000e+01	   5.4712425e-01	   6.9955138e-01	
   6.2095000e+01	   5.2733259e-01	   6.0109514e-01	
   6.2150000e+01	   4.1717259e-01	   5.1679422e-01	
   6.2205000e+01	   3.0209232e-01	   4.7310224e-01	
   6.2260000e+01	   2.4734337e-01	   4.3613712e-01	
   6.2315000e+01	   2.5794031e-01	   3.6196483e-01	
   6.2370000e+01	   2.9983666e-01	   2.5845482e-01	
   6.2425000e+01	   3.1589561e-01	   1.7272577e-01	
   6.2480000e+01	   2.5602781e-01	   1.4404649e-01	
   6.2535000e+01	   1.4152774e-01	   1.9446720e-01	
   6.2590000e+01	   8.2483515e-02	   3.3417407e-01	
   6.2645000e+01	   1.8460754e-01	   5.3722336e-01	
   6.2700000e+01	   4.2753962e-01	   7.2795537e-01	
   6.2755000e+01	   6.6608602e-01	   8.2874402e-01	
   6.2810000e+01	   7.6840908e-01	   8.2037982e-01	
   6.2865000e+01	   7.2273234e-01	   7.4032195e-01	
   6.2920000e+01	   5.9776793e-01	   6.4125864e-01	
   6.2975000e+01	   4.5561417e-01	   5.6798036e-01	
   6.3030000e+01	   3.4160225e-01	   5.4484019e-01	
   6.3085000e+01	   3.0450313e-01	   5.5847817e-01	
   6.3140000e+01	   3.6132980e-01	   5.6409830e-01	
   6.3195000e+01	   4.5581686e-01	   5.2402056e-01	
   6.3250000e+01	   4.9302278e-01	   4.4399477e-01	
   6.3305000e+01	   4.2556700e-01	   3.7380626e-01	
   6.3360000e+01	   3.0862244e-01	   3.6872242e-01	
   6.3415000e+01	   2.6983258e-01	   4.4697791e-01	
   6.3470000e+01	   4.0126527e-01	   5.8530564e-01	
   6.3525000e+01	   6.5592015e-01	   7.4390407e-01	
   6.3580000e+01	   8.5718785e-01	   8.7978582e-01	
   6.3635000e+01	   8.4521114e-01	   9.4882455e-01	
   6.3690000e+01	   6.3955241e-01	   9.2940776e-01	
   6.3745000e+01	   4.3545924e-01	   8.5176319e-01	
   6.3800000e+01	   4.1223597e-01	   7.7851462e-01	
   6.3855000e+01	   5.7106354e-01	   7.4740084e-01	
   6.3910000e+01	   7.7210069e-01	   7.4683421e-01	
   6.3965000e+01	   8.7968397e-01	   7.4010865e-01	
   6.4020000e+01	   8.5771867e-01	   6.9553343e-01	
   6.4075000e+01	   7.7500642e-01	   6.0618717e-01	
   6.4130000e+01	   7.3589009e-01	   5.0319877e-01	
   6.4185000e+01	   7.8288202e-01	   4.4395040e-01	
   6.4240000e+01	   8.6809020e-01	   4.6925058e-01	
   6.4295000e+01	   9.2443347e-01	   5.6917735e-01	
   6.4350000e+01	   9.4238741e-01	   6.9357009e-01	
   6.4405000e+01	   9.6078792e-01	   7.9108432e-01	
   6.4460000e+01	   9.9384030e-01	   8.3904635e-01	
   6.4515000e+01	   1.0011808e+00	   8.4851821e-01	
   6.4570000e+01	   9.4886110e-01	   8.4767174e-01	
   6.4625000e+01	   8.6627825e-01	   8.5548756e-01	
   6.4680000e+01	   8.1251791e-01	   8.6555244e-01	
   6.4735000e+01	   8.1084028e-01	   8.5202907e-01	
   6.4790000e+01	   8.3437965e-01	   7.9140972e-01	
   6.4845000e+01	   8.3264146e-01	   6.8370889e-01	
   6.4900000e+01	   7.6626028e-01	   5.6002982e-01	
   6.4955000e+01	   6.4526378e-01	   4.7192106e-01	
   6.5010000e+01	   5.4389990e-01	   4.6550967e-01	
   6.5065000e+01	   5.5486616e-01	   5.5271271e-01	
   6.5120000e+01	   7.0732266e-01	   6.9941611e-01	
   6.5175000e+01	   9.2749954e-01	   8.4482236e-01	
   6.5230000e+01	   1.0879503e+00	   9.4116572e-01	
   6.5285000e+01	   1.1073895e+00	   9.7796735e-01	
   6.5340000e+01	   1.0094534e+00	   9.6898608e-01	
   6.5395000e+01	   8.7914829e-01	   9.2581887e-01	
   6.5450000e+01	   7.7603286e-01	   8.5557297e-01	
   6.5505000e+01	   7.2083582e-01	   7.7546718e-01	
   6.5560000e+01	   7.3119507e-01	   7.0364316e-01	
   6.5615000e+01	   7.9145172e-01	   6.3174929e-01	
   6.5670000e+01	   8.1365959e-01	   5.3692774e-01	
   6.5725000e+01	   7.2184974e-01	   4.3283067e-01	
   6.5780000e+01	   5.6022276e-01	   3.7868852e-01	
   6.5835000e+01	   4.4963022e-01	   4.1984968e-01	
   6.5890000e+01	   4.6296656e-01	   5.3903673e-01	
   6.5945000e+01	   5.8758399e-01	   6.7874470e-01	
   6.6000000e+01	   7.6525470e-01	   7.9288716e-01	
   6.6055000e+01	   9.2051642e-01	   8.6315074e-01	
   6.6110000e+01	   9.8105043e-01	   8.8645173e-01	
   6.6165000e+01	   9.1643345e-01	   8.6998189e-01	
   6.6220000e+01	   7.6416052e-01	   8.2744809e-01	
   6.6275000e+01	   6.1338438e-01	   7.6561981e-01	
   6.6330000e+01	   5.5571866e-01	   6.8726091e-01	
   6.6385000e+01	   6.2744855e-01	   6.1199778e-01	
   6.6440000e+01	   7.7572299e-01	   5.6925400e-01	
   6.6495000e+01	   8.8435307e-01	   5.5767230e-01	
   6.6550000e+01	   8.5600265e-01	   5.3339468e-01	
   6.6605000e+01	   6.8759114e-01	   4.5647358e-01	
   6.6660000e+01	   4.7198997e-01	   3.4087297e-01	
   6.6715000e+01	   3.2778391e-01	   2.5177758e-01	
   6.6770000e+01	   3.2629911e-01	   2.5777474e-01	
   6.6825000e+01	   4.6926032e-01	   3.7965900e-01	
   6.6880000e+01	   7.0445918e-01	   5.7050067e-01	
   6.6935000e+01	   9.4994027e-01	   7.4140602e-01	
   6.6990000e+01	   1.1188554e+00	   8.1929535e-01	
   6.7045000e+01	   1.1506769e+00	   7.9622680e-01	
   6.7100000e+01	   1.0470995e+00	   7.2667405e-01	
   6.7155000e+01	   8.7770012e-01	   6.7188408e-01	
   6.7210000e+01	   7.3311161e-01	   6.4870791e-01	
   6.7265000e+01	   6.6738123e-01	   6.3256497e-01	
   6.7320000e+01	   6.7283505e-01	   5.9438683e-01	
   6.7375000e+01	   6.8903973e-01	   5.2191142e-01	
   6.7430000e+01	   6.4279451e-01	   4.1811357e-01	
   6.7485000e+01	   5.0446865e-01	   3.0031652e-01	
   6.7540000e+01	   3.1511287e-01	   1.9717910e-01	
   6.7595000e+01	   1.5885628e-01	   1.3166107e-01	
   6.7650000e+01	   1.0868635e-01	   1.1335718e-01	
   6.7705000e+01	   1.8741265e-01	   1.4954974e-01	
   6.7760000e+01	   3.6067894e-01	   2.3931380e-01	
   6.7815000e+01	   5.5569524e-01	   3.5225677e-01	
   6.7870000e+01	   6.9946764e-01	   4.4204953e-01	
   6.7925000e+01	   7.7113030e-01	   4.9083882e-01	
   6.7980000e+01	   8.1937560e-01	   5.1980677e-01	
   6.8035000e+01	   8.8941664e-01	   5.4598821e-01	
   6.8090000e+01	   9.3348427e-01	   5.4633332e-01	
   6.8145000e+01	   8.5260258e-01	   4.8394131e-01	
   6.8200000e+01	   6.3973530e-01	   3.6185561e-01	
   6.8255000e+01	   4.2050022e-01	   2.2740452e-01	
   6.8310000e+01	   3.2399092e-01	   1.2182898e-01	
   6.8365000e+01	   3.5649126e-01	   4.7086311e-02	
   6.8420000e+01	   4.2753066e-01	  -7.9331280e-03	
   6.8475000e+01	   4.6223070e-01	  -2.6475230e-02	
   6.8530000e+01	   4.5575273e-01	   2.7156702e-02	
   6.8585000e+01	   4.4658628e-01	   1.5616938e-01	
   6.8640000e+01	   4.8010015e-01	   3.0467831e-01	
   6.8695000e+01	   5.8200689e-01	   3.9394453e-01	
   6.8750000e+01	   7.2029194e-01	   3.8767071e-01	
   6.8805000e+01	   8.0673786e-01	   3.1955170e-01	
   6.8860000e+01	   7.7801427e-01	   2.5360057e-01	
   6.8915000e+01	   6.5342472e-01	   2.2142819e-01	
   6.8970000e+01	   4.9424137e-01	   2.0409854e-01	
   6.9025000e+01	   3.5812555e-01	   1.6793959e-01	
   6.9080000e+01	   2.9403955e-01	   1.0337716e-01	
   6.9135000e+01	   3.0604168e-01	   2.5773386e-02	
   6.9190000e+01	   3.2758957e-01	  -4.8090958e-02	
   6.9245000e+01	   2.9801805e-01	  -1.0891612e-01	
   6.9300000e+01	   2.4605001e-01	  -1.4160236e-01	
   6.9355000e+01	   2.4531028e-01	  -1.2120571e-01	
   6.9410000e+01	   3.0727218e-01	  -3.7226896e-02	
   6.9465000e+01	   3.6725257e-01	   8.5088580e-02	
   6.9520000e+01	   3.7688558e-01	   2.0314557e-01	
   6.9575000e+01	   3.6450451e-01	   2.9038382e-01	
   6.9630000e+01	   3.7733077e-01	   3.3579783e-01	
   6.9685000e+01	   4.0498156e-01	   3.2452871e-01	
   6.9740000e+01	   4.0825069e-01	   2.5170576e-01	
   6.9795000e+01	   3.9396351e-01	   1.5252794e-01	
   6.9850000e+01	   4.0676299e-01	   8.0694781e-02	
   6.9905000e+01	   4.5735699e-01	   4.8746696e-02	
   6.9960000e+01	   4.9945561e-01	   1.6268217e-02	
   7.0015000e+01	   4.8012578e-01	  -6.1047929e-02	
   7.0070000e+01	   3.8974603e-01	  -1.8716702e-01	
   7.0125000e+01	   2.5944266e-01	  -3.1885831e-01	
   7.0180000e+01	   1.3688335e-01	  -3.8497293e-01	
   7.0235000e+01	   7.9232840e-02	  -3.2705894e-01	
   7.0290000e+01	   1.3174878e-01	  -1.5089444e-01	
   7.0345000e+01	   2.7154969e-01	   5.8607138e-02	
   7.0400000e+01	   3.9863213e-01	   1.9867405e-01	
   7.0455000e+01	   4.2681052e-01	   2.3393338e-01	
   7.0510000e+01	   3.6383335e-01	   2.0734163e-01	
   7.0565000e+01	   2.7382727e-01	   1.7547253e-01	
   7.0620000e+01	   2.0002479e-01	   1.5850636e-01	
   7.0675000e+01	   1.5667871e-01	   1.4499805e-01	
   7.0730000e+01	   1.4733882e-01	   1.1191520e-01	
   7.0785000e+01	   1.4281518e-01	   3.8180110e-02	
   7.0840000e+01	   8.0298652e-02	  -7.4147238e-02	
   7.0895000e+01	  -6.3484522e-02	  -1.9075523e-01	
   7.0950000e+01	  -2.2935393e-01	  -2.7892452e-01	
   7.1005000e+01	  -3.4486815e-01	  -3.4301332e-01	
   7.1060000e+01	  -3.8838494e-01	  -3.9868801e-01	
   7.1115000e+01	  -3.5429974e-01	  -4.2226880e-01	
   7.1170000e+01	  -2.2826486e-01	  -3.6560507e-01	
   7.1225000e+01	  -3.6217566e-02	  -2.2341080e-01	
   7.1280000e+01	   1.4740222e-01	  -5.1758463e-02	
   7.1335000e+01	   2.7148092e-01	   8.2847330e-02	
   7.1390000e+01	   3.4243690e-01	   1.4676069e-01	
   7.1445000e+01	   3.7802489e-01	   1.3921275e-01	
   7.1500000e+01	   3.7264293e-01	   8.3279840e-02	
   7.1555000e+01	   3.2032981e-01	   1.9565915e-02	
   7.1610000e+01	   2.3457112e-01	  -2.0353969e-02	
   7.1665000e+01	   1.3031140e-01	  -4.6104302e-02	
   7.1720000e+01	   1.4738707e-02	  -1.0165349e-01	
   7.1775000e+01	  -1.0056842e-01	  -2.1892558e-01	
   7.1830000e+01	  -2.0476113e-01	  -3.7826763e-01	
   7.1885000e+01	  -2.9338852e-01	  -5.1474378e-01	
   7.1940000e+01	  -3.4490450e-01	  -5.6503858e-01	
   7.1995000e+01	  -3.1188769e-01	  -5.0934942e-01	
   7.2050000e+01	  -1.6482511e-01	  -3.7499873e-01	
   7.2105000e+01	   5.3613397e-02	  -2.1635515e-01	
   7.2160000e+01	   2.3821053e-01	  -9.1793633e-02	
   7.2215000e+01	   3.0461280e-01	  -3.5581826e-02	
   7.2270000e+01	   2.4666858e-01	  -4.0105583e-02	
   7.2325000e+01	   1.0084452e-01	  -7.6390780e-02	
   7.2380000e+01	  -9.4632341e-02	  -1.2853644e-01	
   7.2435000e+01	  -2.8003482e-01	  -1.9279550e-01	
   7.2490000e+01	  -3.7662254e-01	  -2.5711621e-01	
   7.2545000e+01	  -3.5653636e-01	  -3.0964849e-01	
   7.2600000e+01	  -2.8192059e-01	  -3.5913232e-01	
   7.2655000e+01	  -2.4121930e-01	  -4.1870760e-01	
   7.2710000e+01	  -2.5532391e-01	  -4.7229289e-01	
   7.2765000e+01	  -2.6582899e-01	  -4.8055875e-01	
   7.2820000e+01	  -2.1241124e-01	  -4.2305619e-01	
   7.2875000e+01	  -9.9146323e-02	  -3.1900543e-01	
   7.2930000e+01	   2.0788184e-02	  -2.0280526e-01	
   7.2985000e+01	   9.5138645e-02	  -9.4424924e-02	
   7.3040000e+01	   9.7226631e-02	  -5.5484475e-03	
   7.3095000e+01	   4.0174115e-02	   4.0133419e-02	
   7.3150000e+01	  -2.1078762e-02	   1.8300167e-02	
   7.3205000e+01	  -3.7743944e-02	  -6.4973691e-02	
   7.3260000e+01	  -2.0056019e-02	  -1.7227240e-01	
   7.3315000e+01	  -1.0361614e-02	  -2.6645875e-01	
   7.3370000e+01	  -1.8288000e-02	  -3.3512022e-01	
   7.3425000e+01	  -2.8119290e-02	  -3.9134886e-01	
   7.3480000e+01	  -4.9569121e-02	  -4.5476316e-01	
   7.3535000e+01	  -9.8203776e-02	  -5.1487025e-01	
   7.3590000e+01	  -1.4314742e-01	  -5.1538061e-01	
   7.3645000e+01	  -1.4274778e-01	  -4.0761726e-01	
   7.3700000e+01	  -1.1410772e-01	  -2.1926108e-01	
   7.3755000e+01	  -1.0211632e-01	  -3.4452597e-02	
   7.3810000e+01	  -1.0088484e-01	   8.9146756e-02	
   7.3865000e+01	  -7.0900142e-02	   1.4898882e-01	
   7.3920000e+01	  -2.1493378e-02	   1.5940266e-01	
   7.3975000e+01	  -1.2144194e-02	   1.3019095e-01	
   7.4030000e+01	  -6.3270841e-02	   8.0408450e-02	
   7.4085000e+01	  -1.1329389e-01	   3.5438554e-02	
   7.4140000e+01	  -8.7882999e-02	   9.0736776e-04	
   7.4195000e+01	   3.6278347e-03	  -4.2975203e-02	
   7.4250000e+01	   6.0768834e-02	  -1.1623074e-01	
   7.4305000e+01	  -8.2141940e-03	  -2.1568524e-01	
   7.4360000e+01	  -1.8261192e-01	  -3.1123993e-01	
   7.4415000e+01	  -3.3374179e-01	  -3.5292276e-01	
   7.4470000e+01	  -3.3151459e-01	  -2.9164645e-01	
   7.4525000e+01	  -1.4809858e-01	  -1.1915694e-01	
   7.4580000e+01	   1.2944409e-01	   1.0775916e-01	
   7.4635000e+01	   3.7215128e-01	   2.9885635e-01	
   7.4690000e+01	   4.9609755e-01	   3.9516650e-01	
   7.4745000e+01	   5.0278484e-01	   4.0231867e-01	
   7.4800000e+01	   4.5097821e-01	   3.6349842e-01	
   7.4855000e+01	   3.8810997e-01	   3.1111610e-01	
   7.4910000e+01	   3.1857383e-01	   2.5287681e-01	
   7.4965000e+01	   2.3366692e-01	   1.9229720e-01	
   7.5020000e+01	   1.3419856e-01	   1.4059380e-01	
   7.5075000e+01	   1.9619134e-02	   1.0375263e-01	
   7.5130000e+01	  -1.0746948e-01	   6.9689908e-02	
   7.5185000e+01	  -2.2229914e-01	   1.8316823e-02	
   7.5240000e+01	  -2.8548711e-01	  -5.2593676e-02	
   7.5295000e+01	  -2.6496825e-01	  -1.0969991e-01	
   7.5350000e+01	  -1.4829679e-01	  -9.6476017e-02	
   7.5405000e+01	   4.1632822e-02	   1.9038376e-02	
   7.5460000e+01	   2.4282140e-01	   2.0013002e-01	
   7.5515000e+01	   3.9494696e-01	   3.5910371e-01	
   7.5570000e+01	   4.8436050e-01	   4.2947813e-01	
   7.5625000e+01	   5.3441889e-01	   4.1641794e-01	
   7.5680000e+01	   5.5922651e-01	   3.7506876e-01	
   7.5735000e+01	   5.4081238e-01	   3.4963827e-01	
   7.5790000e+01	   4.6224398e-01	   3.4333363e-01	
   7.5845000e+01	   3.5635812e-01	   3.3671710e-01	
   7.5900000e+01	   2.8613075e-01	   3.0908502e-01	
   7.5955000e+01	   2.7248898e-01	   2.4313114e-01	
   7.6010000e+01	   2.8309812e-01	   1.4154284e-01	
   7.6065000e+01	   2.8592511e-01	   4.5017663e-02	
   7.6120000e+01	   2.6840011e-01	   4.9557034e-03	
   7.6175000e+01	   2.2149779e-01	   3.4214633e-02	
   7.6230000e+01	   1.5157946e-01	   1.0603618e-01	
   7.6285000e+01	   1.0216288e-01	   1.9535640e-01	
   7.6340000e+01	   1.3317670e-01	   2.9618761e-01	
   7.6395000e+01	   2.6076215e-01	   3.9932247e-01	
   7.6450000e+01	   4.1743729e-01	   4.7422520e-01	
   7.6505000e+01	   4.9569328e-01	   4.8365274e-01	
   7.6560000e+01	   4.4623365e-01	   4.1536099e-01	
   7.6615000e+01	   3.1447426e-01	   2.9854890e-01	
   7.6670000e+01	   1.7908001e-01	   1.8505082e-01	
   7.6725000e+01	   9.2894695e-02	   1.0835235e-01	
   7.6780000e+01	   8.5997610e-02	   6.1618631e-02	
   7.6835000e+01	   1.6488266e-01	   1.6110442e-02	
   7.6890000e+01	   2.7962348e-01	  -4.1479184e-02	
   7.6945000e+01	   3.4510506e-01	  -8.4011355e-02	
   7.7000000e+01	   3.3153577e-01	  -5.5155016e-02	
   7.7055000e+01	   2.9480920e-01	   7.9158261e-02	
   7.7110000e+01	   2.9971010e-01	   2.8781334e-01	
   7.7165000e+01	   3.5754464e-01	   4.9285072e-01	
   7.7220000e+01	   4.4207494e-01	   6.2242579e-01	
   7.7275000e+01	   5.1584499e-01	   6.4189032e-01	
   7.7330000e+01	   5.4109484e-01	   5.6222893e-01	
   7.7385000e+01	   5.0801770e-01	   4.3957065e-01	
   7.7440000e+01	   4.4536190e-01	   3.4437886e-01	
   7.7495000e+01	   3.7564675e-01	   3.0542065e-01	
   7.7550000e+01	   2.8670880e-01	   2.9001280e-01	
   7.7605000e+01	   1.7201292e-01	   2.4642667e-01	
   7.7660000e+01	   6.2398491e-02	   1.5371711e-01	
   7.7715000e+01	  -8.7307265e-03	   3.1924525e-02	
   7.7770000e+01	  -3.6168868e-02	  -6.7561337e-02	
   7.7825000e+01	  -1.2844564e-02	  -7.2009496e-02	
   7.7880000e+01	   8.9529241e-02	   7.1093260e-02	
   7.7935000e+01	   2.6832962e-01	   3.2578847e-01	
   7.7990000e+01	   4.4714767e-01	   5.6541760e-01	
   7.8045000e+01	   5.3262631e-01	   6.7551259e-01	
   7.8100000e+01	   5.0957473e-01	   6.4981354e-01	
   7.8155000e+01	   4.4751396e-01	   5.6777192e-01	
   7.8210000e+01	   4.1590586e-01	   4.9906617e-01	
   7.8265000e+01	   4.2244443e-01	   4.5841129e-01	
   7.8320000e+01	   4.3221098e-01	   4.3681000e-01	
   7.8375000e+01	   4.1315692e-01	   4.2841403e-01	
   7.8430000e+01	   3.5298346e-01	   4.1619064e-01	
   7.8485000e+01	   2.5656953e-01	   3.7015090e-01	
   7.8540000e+01	   1.4220399e-01	   2.7996667e-01	
   7.8595000e+01	   3.6426101e-02	   1.7265033e-01	
   7.8650000e+01	  -2.5593943e-02	   9.4453585e-02	
   7.8705000e+01	  -6.4948203e-03	   8.8430761e-02	
   7.8760000e+01	   9.7797040e-02	   1.7762412e-01	
   7.8815000e+01	   2.3561110e-01	   3.4179631e-01	
   7.8870000e+01	   3.3986276e-01	   5.1403336e-01	
   7.8925000e+01	   3.8444809e-01	   6.2780728e-01	
   7.8980000e+01	   3.8522520e-01	   6.6983492e-01	
   7.9035000e+01	   3.5926981e-01	   6.7030772e-01	
   7.9090000e+01	   3.0238926e-01	   6.5074707e-01	
   7.9145000e+01	   2.0719895e-01	   6.0742185e-01	
   7.9200000e+01	   9.4341408e-02	   5.4120360e-01	
   7.9255000e+01	   8.7069404e-03	   4.7087975e-01	
   7.9310000e+01	  -3.0959123e-02	   4.0696525e-01	
   7.9365000e+01	  -6.0388372e-02	   3.3731824e-01	
   7.9420000e+01	  -1.1493774e-01	   2.5316098e-01	
   7.9475000e+01	  -1.6079523e-01	   1.7534281e-01	
   7.9530000e+01	  -1.2362450e-01	   1.4550375e-01	
   7.9585000e+01	   1.1980585e-02	   1.9458424e-01	
   7.9640000e+01	   1.6177388e-01	   3.1466024e-01	
   7.9695000e+01	   2.1441055e-01	   4.5593937e-01	
   7.9750000e+01	   1.3095201e-01	   5.5892123e-01	
   7.9805000e+01	  -3.4727712e-02	   5.9608862e-01	
   7.9860000e+01	  -1.8304900e-01	   5.8207073e-01	
   7.9915000e+01	  -2.2409134e-01	   5.4605829e-01	
   7.9970000e+01	  -1.3311518e-01	   5.0097489e-01	
   8.0025000e+01	   2.2025631e-02	   4.4417896e-01	
   8.0080000e+01	   1.2702774e-01	   3.8110474e-01	
   8.0135000e+01	   1.0324908e-01	   3.2656043e-01	
   8.0190000e+01	  -4.9517351e-02	   2.7386562e-01	
   8.0245000e+01	  -2.6641302e-01	   1.9197306e-01	
   8.0300000e+01	  -4.5803758e-01	   8.1662854e-02	
   8.0355000e+01	  -5.5721626e-01	   9.3127079e-03	
   8.0410000e+01	  -5.5723378e-01	   4.7734510e-02	
   8.0465000e+01	  -4.9918763e-01	   1.9902831e-01	
   8.0520000e+01	  -4.0495806e-01	   4.0024530e-01	
   8.0575000e+01	  -2.5824062e-01	   5.8150092e-01	
   8.0630000e+01	  -8.0060878e-02	   6.9577677e-01	
   8.0685000e+01	   3.4164155e-02	   7.1964781e-01	
   8.0740000e+01	   9.0459432e-03	   6.6175972e-01	
   8.0795000e+01	  -1.1348098e-01	   5.6796233e-01	
   8.0850000e+01	  -2.2225041e-01	   4.9164856e-01	
   8.0905000e+01	  -2.6400774e-01	   4.4755154e-01	
   8.0960000e+01	  -2.8328633e-01	   4.0446112e-01	
   8.1015000e+01	  -3.4751690e-01	   3.2946579e-01	
   8.1070000e+01	  -4.6541154e-01	   2.3275819e-01	
   8.1125000e+01	  -5.7458875e-01	   1.6947428e-01	
   8.1180000e+01	  -5.8725383e-01	   2.0173536e-01	
   8.1235000e+01	  -4.6004247e-01	   3.4488812e-01	
   8.1290000e+01	  -2.4455335e-01	   5.3926342e-01	
   8.1345000e+01	  -5.5592852e-02	   6.8903232e-01	
   8.1400000e+01	   3.1350143e-02	   7.4307493e-01	
   8.1455000e+01	   2.8377639e-02	   7.3227170e-01	
   8.1510000e+01	  -2.0932773e-02	   7.2253854e-01	
   8.1565000e+01	  -8.3257771e-02	   7.4191896e-01	
   8.1620000e+01	  -1.0672576e-01	   7.6190017e-01	
   8.1675000e+01	  -3.2796023e-02	   7.3620520e-01	
   8.1730000e+01	   1.1377582e-01	   6.4207606e-01	
   8.1785000e+01	   1.9789238e-01	   4.9446744e-01	
   8.1840000e+01	   9.6382032e-02	   3.3804428e-01	
   8.1895000e+01	  -1.6503235e-01	   2.2233718e-01	
   8.1950000e+01	  -4.3358727e-01	   1.7701973e-01	
   8.2005000e+01	  -5.7341587e-01	   2.1119241e-01	
   8.2060000e+01	  -5.5801265e-01	   3.2261587e-01	
   8.2115000e+01	  -4.4325114e-01	   4.8935312e-01	
   8.2170000e+01	  -2.9718480e-01	   6.6085529e-01	
   8.2225000e+01	  -1.6624121e-01	   7.7801790e-01	
   8.2280000e+01	  -7.7491980e-02	   8.1069210e-01	
   8.2335000e+01	  -4.1039355e-02	   7.7471988e-01	
   8.2390000e+01	  -4.5409630e-02	   7.1111267e-01	
   8.2445000e+01	  -6.3216824e-02	   6.5500786e-01	
   8.2500000e+01	  -7.1038890e-02	   6.2539382e-01	
   8.2555000e+01	  -6.5298384e-02	   6.2301087e-01	
   8.2610000e+01	  -6.1549118e-02	   6.2224456e-01	
   8.2665000e+01	  -8.3654422e-02	   5.8135849e-01	
   8.2720000e+01	  -1.4330949e-01	   4.8332566e-01	
   8.2775000e+01	  -2.1413476e-01	   3.6884741e-01	
   8.2830000e+01	  -2.4112935e-01	   3.1553869e-01	
   8.2885000e+01	  -2.0208813e-01	   3.7119678e-01	
   8.2940000e+01	  -1.4173624e-01	   5.0901816e-01	
   8.2995000e+01	  -1.1085604e-01	   6.5397839e-01	
   8.3050000e+01	  -9.4002179e-02	   7.4498978e-01	
   8.3105000e+01	  -3.8739635e-02	   7.6980906e-01	
   8.3160000e+01	   6.3456850e-02	   7.5692221e-01	
   8.3215000e+01	   1.6281924e-01	   7.4259190e-01	
   8.3270000e+01	   2.0743496e-01	   7.3850466e-01	
   8.3325000e+01	   1.8800211e-01	   7.2516565e-01	
   8.3380000e+01	   1.1935919e-01	   6.7478643e-01	
   8.3435000e+01	  -4.8750283e-03	   5.7860343e-01	
   8.3490000e+01	  -2.0059301e-01	   4.5235345e-01	
   8.3545000e+01	  -4.2958053e-01	   3.2458299e-01	
   8.3600000e+01	  -5.9128996e-01	   2.3360085e-01	
   8.3655000e+01	  -6.0153694e-01	   2.2779575e-01	
   8.3710000e+01	  -4.6292458e-01	   3.3340113e-01	
   8.3765000e+01	  -2.5882383e-01	   5.0893007e-01	
   8.3820000e+01	  -9.2561532e-02	   6.6403528e-01	
   8.3875000e+01	  -1.4974417e-02	   7.4076389e-01	
   8.3930000e+01	   2.3266307e-03	   7.5171225e-01	
   8.3985000e+01	   4.7783195e-03	   7.3590965e-01	
   8.4040000e+01	  -1.6809306e-02	   7.1026668e-01	
   8.4095000e+01	  -9.3991122e-02	   6.6934095e-01	
   8.4150000e+01	  -2.0477527e-01	   6.0715239e-01	
   8.4205000e+01	  -2.8814299e-01	   5.2864223e-01	
   8.4260000e+01	  -3.2256688e-01	   4.4499925e-01	
   8.4315000e+01	  -3.4548663e-01	   3.6416774e-01	
   8.4370000e+01	  -3.9359247e-01	   2.9335346e-01	
   8.4425000e+01	  -4.4907521e-01	   2.5044077e-01	
   8.4480000e+01	  -4.5343148e-01	   2.6124981e-01	
   8.4535000e+01	  -3.6944403e-01	   3.3803198e-01	
   8.4590000e+01	  -2.2467865e-01	   4.6328868e-01	
   8.4645000e+01	  -9.0297616e-02	   5.9507843e-01	
   8.4700000e+01	  -1.9589251e-02	   6.8672417e-01	
   8.4755000e+01	  -6.9390842e-03	   7.1164547e-01	
   8.4810000e+01	  -5.3869449e-04	   6.7942533e-01	
   8.4865000e+01	   4.0670746e-02	   6.2317956e-01	
   8.4920000e+01	   9.6757510e-02	   5.7012893e-01	
   8.4975000e+01	   9.9194708e-02	   5.2969566e-01	
   8.5030000e+01	   1.9383084e-03	   4.9861410e-01	
   8.5085000e+01	  -1.5853761e-01	   4.6168440e-01	
   8.5140000e+01	  -2.8627926e-01	   3.9563735e-01	
   8.5195000e+01	  -3.2206559e-01	   2.9049415e-01	
   8.5250000e+01	  -3.0939001e-01	   1.6897626e-01	
   8.5305000e+01	  -3.4592064e-01	   7.7439959e-02	
   8.5360000e+01	  -4.6441701e-01	   5.7249846e-02	
   8.5415000e+01	  -5.7972381e-01	   1.2342419e-01	
   8.5470000e+01	  -5.7771309e-01	   2.5915491e-01	
   8.5525000e+01	  -4.5080126e-01	   4.2308726e-01	
   8.5580000e+01	  -3.0841292e-01	   5.6680989e-01	
   8.5635000e+01	  -2.4546247e-01	   6.5287538e-01	
   8.5690000e+01	  -2.4503198e-01	   6.6566984e-01	
   8.5745000e+01	  -2.3672354e-01	   6.1402373e-01	
   8.5800000e+01	  -2.0598076e-01	   5.2256123e-01	
   8.5855000e+01	  -1.9081091e-01	   4.2046763e-01	
   8.5910000e+01	  -2.0109934e-01	   3.3533972e-01	
   8.5965000e+01	  -2.1764689e-01	   2.7833800e-01	
   8.6020000e+01	  -2.5555124e-01	   2.2908574e-01	
   8.6075000e+01	  -3.4906495e-01	   1.5430238e-01	
   8.6130000e+01	  -4.7759624e-01	   4.7709513e-02	
   8.6185000e+01	  -5.6833000e-01	  -5.8185904e-02	
   8.6240000e+01	  -5.7609930e-01	  -1.1611821e-01	
   8.6295000e+01	  -5.2619898e-01	  -9.3792317e-02	
   8.6350000e+01	  -4.7740228e-01	   6.1770126e-03	
   8.6405000e+01	  -4.6585881e-01	   1.4300455e-01	
   8.6460000e+01	  -4.8177514e-01	   2.6392205e-01	
   8.6515000e+01	  -4.8173542e-01	   3.4414670e-01	
   8.6570000e+01	  -4.3581454e-01	   3.9412218e-01	
   8.6625000e+01	  -3.7469896e-01	   4.2527217e-01	
   8.6680000e+01	  -3.5971367e-01	   4.2621171e-01	
   8.6735000e+01	  -3.9238092e-01	   3.8088999e-01	
   8.6790000e+01	  -3.9982666e-01	   2.9210936e-01	
   8.6845000e+01	  -3.4186126e-01	   1.7537844e-01	
   8.6900000e+01	  -2.9128034e-01	   4.3106692e-02	
   8.6955000e+01	  -3.5803578e-01	  -9.2611967e-02	
   8.7010000e+01	  -5.5057887e-01	  -2.0703240e-01	
   8.7065000e+01	  -7.5225070e-01	  -2.6317672e-01	
   8.7120000e+01	  -8.2805644e-01	  -2.3202692e-01	
   8.7175000e+01	  -7.3214858e-01	  -1.1748866e-01	
   8.7230000e+01	  -5.2336236e-01	   3.7528955e-02	
   8.7285000e+01	  -3.0670269e-01	   1.7380071e-01	
   8.7340000e+01	  -1.6633500e-01	   2.5019500e-01	
   8.7395000e+01	  -1.2599270e-01	   2.6393029e-01	
   8.7450000e+01	  -1.4485546e-01	   2.4174558e-01	
   8.7505000e+01	  -1.5277754e-01	   2.0681486e-01	
   8.7560000e+01	  -1.0677045e-01	   1.5543896e-01	
   8.7615000e+01	  -2.9027358e-02	   7.4109725e-02	
   8.7670000e+01	   6.1893821e-03	  -2.7025560e-02	
   8.7725000e+01	  -6.9348545e-02	  -1.1543634e-01	
   8.7780000e+01	  -2.6528747e-01	  -1.7370730e-01	
   8.7835000e+01	  -5.2404344e-01	  -2.1989606e-01	
   8.7890000e+01	  -7.5198091e-01	  -2.8250841e-01	
   8.7945000e+01	  -8.7530862e-01	  -3.6338980e-01	
   8.8000000e+01	  -8.8695351e-01	  -4.2609304e-01	
   8.8055000e+01	  -8.3158491e-01	  -4.1587216e-01	
   8.8110000e+01	  -7.4030308e-01	  -3.0080259e-01	
   8.8165000e+01	  -6.0465380e-01	  -1.0655796e-01	
   8.8220000e+01	  -4.2385586e-01	   8.9324537e-02	
   8.8275000e+01	  -2.4628455e-01	   2.0688236e-01	
   8.8330000e+01	  -1.3959875e-01	   2.1771814e-01	
   8.8385000e+01	  -1.2829370e-01	   1.5544281e-01	
   8.8440000e+01	  -1.7339251e-01	   7.4352513e-02	
   8.8495000e+01	  -2.1130295e-01	   1.2002980e-03	
   8.8550000e+01	  -2.0912746e-01	  -7.1789968e-02	
   8.8605000e+01	  -1.9307687e-01	  -1.5833077e-01	
   8.8660000e+01	  -2.3399056e-01	  -2.5801697e-01	
   8.8715000e+01	  -3.9236005e-01	  -3.6165208e-01	
   8.8770000e+01	  -6.5780353e-01	  -4.6056542e-01	
   8.8825000e+01	  -9.4011608e-01	  -5.4617762e-01	
   8.8880000e+01	  -1.1230836e+00	  -6.0184802e-01	
   8.8935000e+01	  -1.1311674e+00	  -5.9533305e-01	
   8.8990000e+01	  -9.6357180e-01	  -4.9608033e-01	
   8.9045000e+01	  -6.8933533e-01	  -3.1563079e-01	
   8.9100000e+01	  -4.1112781e-01	  -1.1662623e-01	
   8.9155000e+01	  -2.0837326e-01	   2.9439675e-02	
   8.9210000e+01	  -9.2434755e-02	   8.5008984e-02	
   8.9265000e+01	  -2.1080327e-02	   5.7507771e-02	
   8.9320000e+01	   3.0260083e-02	  -1.1776192e-02	
   8.9375000e+01	   2.9102523e-02	  -7.5914045e-02	
   8.9430000e+01	  -5.7222077e-02	  -1.1558426e-01	
   8.9485000e+01	  -1.9056878e-01	  -1.4999371e-01	
   8.9540000e+01	  -2.9272474e-01	  -2.1700587e-01	
   8.9595000e+01	  -3.3551649e-01	  -3.3792609e-01	
   8.9650000e+01	  -3.5673724e-01	  -4.9213110e-01	
   8.9705000e+01	  -3.9180280e-01	  -6.2623632e-01	
   8.9760000e+01	  -4.3532572e-01	  -6.9351613e-01	
   8.9815000e+01	  -4.7359241e-01	  -6.8177438e-01	
   8.9870000e+01	  -4.9892138e-01	  -6.0358372e-01	
   8.9925000e+01	  -4.7323043e-01	  -4.7839615e-01	
   8.9980000e+01	  -3.4611039e-01	  -3.3661472e-01	
   9.0035000e+01	  -1.4781686e-01	  -2.2157561e-01	
   9.0090000e+01	  -7.1461286e-04	  -1.6504316e-01	
   9.0145000e+01	   3.8330145e-03	  -1.6580640e-01	
   9.0200000e+01	  -1.0650942e-01	  -2.0441419e-01	
   9.0255000e+01	  -2.4047621e-01	  -2.7049000e-01	
   9.0310000e+01	  -3.3529330e-01	  -3.5851773e-01	
   9.0365000e+01	  -3.7392066e-01	  -4.4583519e-01	
   9.0420000e+01	  -3.6506438e-01	  -5.0541175e-01	
   9.0475000e+01	  -3.4545294e-01	  -5.4333237e-01	
   9.0530000e+01	  -3.7057384e-01	  -5.9549893e-01	
   9.0585000e+01	  -4.6546101e-01	  -6.7914818e-01	
   9.0640000e+01	  -5.9136143e-01	  -7.6377816e-01	
   9.0695000e+01	  -6.7077586e-01	  -7.9307019e-01	
   9.0750000e+01	  -6.4266009e-01	  -7.3085707e-01	
   9.0805000e+01	  -5.0980482e-01	  -5.9348309e-01	
   9.0860000e+01	  -3.4588251e-01	  -4.4356250e-01	
   9.0915000e+01	  -2.3811717e-01	  -3.4555864e-01	
   9.0970000e+01	  -2.0907224e-01	  -3.1948012e-01	
   9.1025000e+01	  -2.0426241e-01	  -3.3681517e-01	
   9.1080000e+01	  -1.6168664e-01	  -3.5967361e-01	
   9.1135000e+01	  -8.5286306e-02	  -3.7511340e-01	
   9.1190000e+01	  -4.4964319e-02	  -3.9175509e-01	
   9.1245000e+01	  -1.1031465e-01	  -4.2267272e-01	
   9.1300000e+01	  -2.9064823e-01	  -4.8391919e-01	
   9.1355000e+01	  -5.2868137e-01	  -5.9307007e-01	
   9.1410000e+01	  -7.3410567e-01	  -7.4518792e-01	
   9.1465000e+01	  -8.3052775e-01	  -8.8938500e-01	
   9.1520000e+01	  -7.9499319e-01	  -9.4966853e-01	
   9.1575000e+01	  -6.6053572e-01	  -8.8407286e-01	
   9.1630000e+01	  -4.8191085e-01	  -7.2014813e-01	
   9.1685000e+01	  -3.0465149e-01	  -5.2841470e-01	
   9.1740000e+01	  -1.5543809e-01	  -3.6952966e-01	
   9.1795000e+01	  -4.3117919e-02	  -2.6854243e-01	
   9.1850000e+01	   3.3265193e-02	  -2.2004446e-01	
   9.1905000e+01	   7.2054020e-02	  -2.0549474e-01	
   9.1960000e+01	   6.0056980e-02	  -2.1672512e-01	
   9.2015000e+01	  -2.0660172e-02	  -2.6398124e-01	
   9.2070000e+01	  -1.6034185e-01	  -3.4855484e-01	
   9.2125000e+01	  -2.9661486e-01	  -4.4105387e-01	
   9.2180000e+01	  -3.5591179e-01	  -5.1220299e-01	
   9.2235000e+01	  -3.3590756e-01	  -5.7236188e-01	
   9.2290000e+01	  -3.1518098e-01	  -6.5164520e-01	
   9.2345000e+01	  -3.5912174e-01	  -7.4713722e-01	
   9.2400000e+01	  -4.4392455e-01	  -8.0931264e-01	
   9.2455000e+01	  -4.8786496e-01	  -7.8052457e-01	
   9.2510000e+01	  -4.2482314e-01	  -6.4741920e-01	
   9.2565000e+01	  -2.4609239e-01	  -4.6186656e-01	
   9.2620000e+01	  -1.3167139e-02	  -3.0491005e-01	
   9.2675000e+01	   1.6947979e-01	  -2.2473594e-01	
   9.2730000e+01	   2.2672290e-01	  -2.1184714e-01	
   9.2785000e+01	   1.6171367e-01	  -2.2820581e-01	
   9.2840000e+01	   3.3941218e-02	  -2.4936254e-01	
   9.2895000e+01	  -9.1247171e-02	  -2.7695283e-01	
   9.2950000e+01	  -1.7730330e-01	  -3.1792373e-01	
   9.3005000e+01	  -2.3389352e-01	  -3.6426360e-01	
   9.3060000e+01	  -3.0568516e-01	  -4.0427083e-01	
   9.3115000e+01	  -4.2125300e-01	  -4.4775741e-01	
   9.3170000e+01	  -5.5081622e-01	  -5.1808956e-01	
   9.3225000e+01	  -6.2792418e-01	  -6.1330471e-01	
   9.3280000e+01	  -6.0425064e-01	  -6.9336275e-01	
   9.3335000e+01	  -4.7616698e-01	  -7.1096222e-01	
   9.3390000e+01	  -2.7639008e-01	  -6.4305960e-01	
   9.3445000e+01	  -5.6749072e-02	  -5.0076256e-01	
   9.3500000e+01	   1.1943813e-01	  -3.2844496e-01	
   9.3555000e+01	   1.9266058e-01	  -1.8869155e-01	
   9.3610000e+01	   1.5470706e-01	  -1.2832435e-01	
   9.3665000e+01	   7.2351884e-02	  -1.4753881e-01	
   9.3720000e+01	   2.1407075e-02	  -2.0068376e-01	
   9.3775000e+01	   1.0204734e-02	  -2.3168600e-01	
   9.3830000e+01	   3.8627285e-03	  -2.1704616e-01	
   9.3885000e+01	  -8.4605421e-03	  -1.8495966e-01	
   9.3940000e+01	  -1.4279579e-02	  -1.9580402e-01	
   9.3995000e+01	  -1.8615215e-02	  -2.9214921e-01	
   9.4050000e+01	  -4.2560871e-02	  -4.5423009e-01	
   9.4105000e+01	  -8.3033837e-02	  -6.0191621e-01	
   9.4160000e+01	  -1.0000136e-01	  -6.4761539e-01	
   9.4215000e+01	  -6.2434545e-02	  -5.6019262e-01	
   9.4270000e+01	   6.9123971e-03	  -3.8631247e-01	
   9.4325000e+01	   6.1440887e-02	  -2.0895563e-01	
   9.4380000e+01	   9.4531347e-02	  -8.8160216e-02	
   9.4435000e+01	   1.3508849e-01	  -4.3543320e-02	
   9.4490000e+01	   1.8645492e-01	  -6.7448503e-02	
   9.4545000e+01	   2.1711109e-01	  -1.2905030e-01	
   9.4600000e+01	   2.1432637e-01	  -1.8732343e-01	
   9.4655000e+01	   2.0072084e-01	  -2.2687883e-01	
   9.4710000e+01	   1.9333124e-01	  -2.6726086e-01	
   9.4765000e+01	   1.8514402e-01	  -3.2745796e-01	
   9.4820000e+01	   1.5738910e-01	  -4.0268236e-01	
   9.4875000e+01	   7.7840225e-02	  -4.7994948e-01	
   9.4930000e+01	  -7.2716967e-02	  -5.4575941e-01	
   9.4985000e+01	  -2.2924263e-01	  -5.6608402e-01	
   9.5040000e+01	  -2.5481195e-01	  -4.9341546e-01	
   9.5095000e+01	  -8.7914564e-02	  -3.2345426e-01	
   9.5150000e+01	   1.6182065e-01	  -1.2454725e-01	
   9.5205000e+01	   3.2358499e-01	   1.5875581e-02	
   9.5260000e+01	   3.4208547e-01	   6.2797123e-02	
   9.5315000e+01	   2.9727463e-01	   4.1503723e-02	
   9.5370000e+01	   2.8045334e-01	  -4.0422415e-03	
   9.5425000e+01	   3.0504250e-01	  -4.6479702e-02	
   9.5480000e+01	   3.2842699e-01	  -8.5094030e-02	
   9.5535000e+01	   3.1278880e-01	  -1.3566962e-01	
   9.5590000e+01	   2.4572204e-01	  -2.0796643e-01	
   9.5645000e+01	   1.2468795e-01	  -2.9114433e-01	
   9.5700000e+01	  -4.1343758e-02	  -3.6327460e-01	
   9.5755000e+01	  -1.9891067e-01	  -4.1130650e-01	
   9.5810000e+01	  -2.5201328e-01	  -4.3500576e-01	
   9.5865000e+01	  -1.4631562e-01	  -4.3098464e-01	
   9.5920000e+01	   5.4568299e-02	  -3.8310628e-01	
   9.5975000e+01	   2.1676813e-01	  -2.8035362e-01	
   9.6030000e+01	   2.6196761e-01	  -1.4049714e-01	
   9.6085000e+01	   2.2475511e-01	  -4.8158876e-03	
   9.6140000e+01	   1.9332147e-01	   8.9004467e-02	
   9.6195000e+01	   2.2470471e-01	   1.2381696e-01	
   9.6250000e+01	   3.1822748e-01	   1.0210436e-01	
   9.6305000e+01	   4.3002323e-01	   4.3360672e-02	
   9.6360000e+01	   5.0307143e-01	  -1.7165414e-02	
   9.6415000e+01	   5.1533539e-01	  -4.8143060e-02	
   9.6470000e+01	   4.9462014e-01	  -5.5194344e-02	
   9.6525000e+01	   4.6361957e-01	  -8.0075336e-02	
   9.6580000e+01	   3.9621102e-01	  -1.5425963e-01	
   9.6635000e+01	   2.6006411e-01	  -2.6464355e-01	
   9.6690000e+01	   8.9632887e-02	  -3.6648779e-01	
   9.6745000e+01	  -1.3527106e-02	  -4.0951799e-01	
   9.6800000e+01	   2.8336144e-02	  -3.5596156e-01	
   9.6855000e+01	   1.8206293e-01	  -2.1053967e-01	
   9.6910000e+01	   3.3144556e-01	  -4.0023315e-02	
   9.6965000e+01	   3.9874857e-01	   7.1448528e-02	
   9.7020000e+01	   4.1123069e-01	   9.6699548e-02	
   9.7075000e+01	   4.3121906e-01	   7.2950425e-02	
   9.7130000e+01	   4.5648096e-01	   4.0729356e-02	
   9.7185000e+01	   4.3928077e-01	   7.0625332e-03	
   9.7240000e+01	   3.8312052e-01	  -3.3524389e-02	
   9.7295000e+01	   3.4467421e-01	  -7.8555213e-02	
   9.7350000e+01	   3.3160375e-01	  -1.2822562e-01	
   9.7405000e+01	   2.7723897e-01	  -1.9072574e-01	
   9.7460000e+01	   1.4658152e-01	  -2.6662368e-01	
   9.7515000e+01	   1.5418774e-03	  -3.3947982e-01	
   9.7570000e+01	  -7.0239619e-02	  -3.8102582e-01	
   9.7625000e+01	  -3.9321677e-02	  -3.6143797e-01	
   9.7680000e+01	   7.1188222e-02	  -2.6711901e-01	
   9.7735000e+01	   2.2440199e-01	  -1.1855661e-01	
   9.7790000e+01	   3.7218291e-01	   3.3278650e-02	
   9.7845000e+01	   4.5008665e-01	   1.3519286e-01	
   9.7900000e+01	   4.2031597e-01	   1.6144326e-01	
   9.7955000e+01	   3.2837998e-01	   1.1991787e-01	
   9.8010000e+01	   2.7812716e-01	   3.7513965e-02	
   9.8065000e+01	   3.2576954e-01	  -5.2575382e-02	
   9.8120000e+01	   4.1276189e-01	  -1.2003369e-01	
   9.8175000e+01	   4.2235943e-01	  -1.5938789e-01	
   9.8230000e+01	   3.0268178e-01	  -2.0617654e-01	
   9.8285000e+01	   1.1831669e-01	  -3.0247989e-01	
   9.8340000e+01	  -1.4569270e-02	  -4.2793538e-01	
   9.8395000e+01	  -1.7748210e-02	  -4.8685982e-01	
   9.8450000e+01	   1.1021984e-01	  -3.9361935e-01	
   9.8505000e+01	   3.0778186e-01	  -1.6711488e-01	
   9.8560000e+01	   4.9878385e-01	   7.7359440e-02	
   9.8615000e+01	   6.3127243e-01	   2.2362566e-01	
   9.8670000e+01	   6.7712498e-01	   2.3238063e-01	
   9.8725000e+01	   6.2965696e-01	   1.4644179e-01	
   9.8780000e+01	   5.2031283e-01	   4.3868728e-02	
   9.8835000e+01	   4.0992166e-01	  -2.1214057e-02	
   9.8890000e+01	   3.4165266e-01	  -4.7947196e-02	
   9.8945000e+01	   3.0972927e-01	  -6.7108084e-02	
   9.9000000e+01	   2.7651769e-01	  -1.0290449e-01	
   9.9055000e+01	   2.1541567e-01	  -1.6487153e-01	
   9.9110000e+01	   1.4010881e-01	  -2.5759474e-01	
   9.9165000e+01	   9.4819318e-02	  -3.6636658e-01	
   9.9220000e+01	   1.1469503e-01	  -4.3639210e-01	
   9.9275000e+01	   1.9185694e-01	  -4.0527612e-01	
   9.9330000e+01	   2.7532762e-01	  -2.7330551e-01	
   9.9385000e+01	   3.0913754e-01	  -1.1525884e-01	
   9.9440000e+01	   2.8156123e-01	  -5.7256005e-03	
   9.9495000e+01	   2.3049681e-01	   4.6385499e-02	
   9.9550000e+01	   1.9175202e-01	   7.7573254e-02	
   9.9605000e+01	   1.6171444e-01	   1.0845802e-01	
   9.9660000e+01	   1.2461315e-01	   1.2296750e-01	
   9.9715000e+01	   9.2836688e-02	   9.6701787e-02	
   9.9770000e+01	   9.5053036e-02	   2.4879288e-02	
   9.9825000e+01	   1.3480774e-01	  -7.6667492e-02	
   9.9880000e+01	   1.8450052e-01	  -1.8294484e-01	
   9.9935000e+01	   2.0764080e-01	  -2.7234400e-01	
   9.9990000e+01	   1.7153576e-01	  -3.3513544e-01	
   1.0004500e+02	   7.4493194e-02	  -3.6392915e-01	
   1.0010000e+02	  -2.1669955e-02	  -3.3849526e-01	
   1.0015500e+02	  -3.1481770e-02	  -2.4253575e-01	
   1.0021000e+02	   6.1699179e-02	  -1.0141550e-01	
   1.0026500e+02	   1.8130867e-01	   2.0100176e-02	
   1.0032000e+02	   2.3244505e-01	   7.3101458e-02	
   1.0037500e+02	   1.8305364e-01	   6.5289428e-02	
   1.0043000e+02	   7.4382560e-02	   3.3549351e-02	
   1.0048500e+02	  -2.6025269e-02	  -7.4955653e-03	
   1.0054000e+02	  -7.7993807e-02	  -6.6074120e-02	
   1.0059500e+02	  -9.8309009e-02	  -1.4049548e-01	
   1.0065000e+02	  -1.4461607e-01	  -2.1872547e-01	
   1.0070500e+02	  -2.4889134e-01	  -2.9728123e-01	
   1.0076000e+02	  -3.6616401e-01	  -3.7181354e-01	
   1.0081500e+02	  -4.1493462e-01	  -4.2096607e-01	
   1.0087000e+02	  -3.6517543e-01	  -4.1931150e-01	
   1.0092500e+02	  -2.5949045e-01	  -3.5731128e-01	
   1.0098000e+02	  -1.5209897e-01	  -2.4363768e-01	
   1.0103500e+02	  -6.0461414e-02	  -1.0332537e-01	
   1.0109000e+02	   1.4460240e-02	   2.1858032e-02	
   1.0114500e+02	   5.3993480e-02	   8.7397664e-02	
   1.0120000e+02	   3.5582308e-02	   7.2806162e-02	
   1.0125500e+02	  -3.0428640e-02	  -6.1003723e-03	
   1.0131000e+02	  -9.8496084e-02	  -1.1180981e-01	
   1.0136500e+02	  -1.2679780e-01	  -2.0949182e-01	
   1.0142000e+02	  -1.1653331e-01	  -2.8353343e-01	
   1.0147500e+02	  -1.1568000e-01	  -3.4317153e-01	
   1.0153000e+02	  -1.8650459e-01	  -4.1227992e-01	
   1.0158500e+02	  -3.5888957e-01	  -5.0170701e-01	
   1.0164000e+02	  -5.9616283e-01	  -5.8868443e-01	
   1.0169500e+02	  -8.0028835e-01	  -6.2707398e-01	
   1.0175000e+02	  -8.7046216e-01	  -5.7741327e-01	
   1.0180500e+02	  -7.8025870e-01	  -4.3503686e-01	
   1.0186000e+02	  -5.9488659e-01	  -2.4308609e-01	
   1.0191500e+02	  -4.0836683e-01	  -7.6822751e-02	
   1.0197000e+02	  -2.7967074e-01	  -5.7257091e-04	
   1.0202500e+02	  -2.2600067e-01	  -2.7807683e-02	
   1.0208000e+02	  -2.4267898e-01	  -1.1768382e-01	
   1.0213500e+02	  -3.1310905e-01	  -2.1150095e-01	
   1.0219000e+02	  -4.1149596e-01	  -2.7769246e-01	
   1.0224500e+02	  -4.9937796e-01	  -3.2196846e-01	
   1.0230000e+02	  -5.2871560e-01	  -3.5716982e-01	
   1.0235500e+02	  -4.8828501e-01	  -3.8419757e-01	
   1.0241000e+02	  -4.4966848e-01	  -4.1278207e-01	
   1.0246500e+02	  -5.0028104e-01	  -4.6913994e-01	
   1.0252000e+02	  -6.0917669e-01	  -5.5151934e-01	
   1.0257500e+02	  -6.3407993e-01	  -6.0014744e-01	
   1.0263000e+02	  -5.0468880e-01	  -5.5101570e-01	
   1.0268500e+02	  -3.3637699e-01	  -4.1292102e-01	
   1.0274000e+02	  -3.0254292e-01	  -2.6281745e-01	
   1.0279500e+02	  -4.2866420e-01	  -1.7395556e-01	
   1.0285000e+02	  -5.6829535e-01	  -1.6744654e-01	
   1.0290500e+02	  -5.7112613e-01	  -2.1393773e-01	
   1.0296000e+02	  -4.3260585e-01	  -2.5972378e-01	
   1.0301500e+02	  -2.8144390e-01	  -2.6641242e-01	
   1.0307000e+02	  -2.5686946e-01	  -2.4428635e-01	
   1.0312500e+02	  -4.0131744e-01	  -2.4373631e-01	
   1.0318000e+02	  -6.4444901e-01	  -3.1087070e-01	
   1.0323500e+02	  -8.7573798e-01	  -4.5344791e-01	
   1.0329000e+02	  -1.0249425e+00	  -6.3867117e-01	
   1.0334500e+02	  -1.0757356e+00	  -8.0468346e-01	
   1.0340000e+02	  -1.0366501e+00	  -8.7535577e-01	
   1.0345500e+02	  -9.2368066e-01	  -7.9598836e-01	
   1.0351000e+02	  -7.5485806e-01	  -5.8237290e-01	
   1.0356500e+02	  -5.5219861e-01	  -3.2585649e-01	
   1.0362000e+02	  -3.5774992e-01	  -1.3271092e-01	
   1.0367500e+02	  -2.3837506e-01	  -5.9796861e-02	
   1.0373000e+02	  -2.5264085e-01	  -1.0107875e-01	
   1.0378500e+02	  -3.9417686e-01	  -2.0891532e-01	
   1.0384000e+02	  -5.7202777e-01	  -3.2181443e-01	
   1.0389500e+02	  -6.8887305e-01	  -3.9834810e-01	
   1.0395000e+02	  -7.4866978e-01	  -4.4459595e-01	
   1.0400500e+02	  -8.3571463e-01	  -4.9946660e-01	
   1.0406000e+02	  -9.8121871e-01	  -5.8016648e-01	
   1.0411500e+02	  -1.1083539e+00	  -6.5075278e-01	
   1.0417000e+02	  -1.1188501e+00	  -6.5539648e-01	
   1.0422500e+02	  -9.9111377e-01	  -5.7360112e-01	
   1.0428000e+02	  -7.8685091e-01	  -4.3567836e-01	
   1.0433500e+02	  -5.9530453e-01	  -2.9555482e-01	
   1.0439000e+02	  -4.8279965e-01	  -1.9641104e-01	
   1.0444500e+02	  -4.6640736e-01	  -1.5290867e-01	
   1.0450000e+02	  -5.1232444e-01	  -1.5253606e-01	
   1.0455500e+02	  -5.6946365e-01	  -1.7246450e-01	
   1.0461000e+02	  -6.0818718e-01	  -2.0149678e-01	
   1.0466500e+02	  -6.2809260e-01	  -2.4613747e-01	
   1.0472000e+02	  -6.5315896e-01	  -3.1638519e-01	
   1.0477500e+02	  -7.1288179e-01	  -4.1150341e-01	
   1.0483000e+02	  -7.9484818e-01	  -5.1444773e-01	
   1.0488500e+02	  -8.2781013e-01	  -5.8976340e-01	
   1.0494000e+02	  -7.3786522e-01	  -5.9394385e-01	
   1.0499500e+02	  -5.1868631e-01	  -5.0520185e-01	
   1.0505000e+02	  -2.4672864e-01	  -3.4922794e-01	
   1.0510500e+02	  -3.3451059e-02	  -1.8721542e-01	
   1.0516000e+02	   4.7262787e-02	  -6.9868428e-02	
   1.0521500e+02	  -6.6262417e-04	  -6.2815512e-03	
   1.0527000e+02	  -1.2012193e-01	   2.0285501e-02	
   1.0532500e+02	  -2.5476593e-01	   1.9462257e-02	
   1.0538000e+02	  -3.6529869e-01	  -1.2642764e-02	
   1.0543500e+02	  -4.1807909e-01	  -7.6872427e-02	
   1.0549000e+02	  -4.1142698e-01	  -1.6408878e-01	
   1.0554500e+02	  -4.0432775e-01	  -2.6146096e-01	
   1.0560000e+02	  -4.5806735e-01	  -3.4745443e-01	
   1.0565500e+02	  -5.5030255e-01	  -3.8124844e-01	
   1.0571000e+02	  -5.9818639e-01	  -3.2380602e-01	
   1.0576500e+02	  -5.5982016e-01	  -1.8212997e-01	
   1.0582000e+02	  -4.6494179e-01	  -1.4799560e-02	
   1.0587500e+02	  -3.5989893e-01	   1.1513490e-01	
   1.0593000e+02	  -2.7589177e-01	   1.8104866e-01	
   1.0598500e+02	  -2.3586475e-01	   1.9335332e-01	
   1.0604000e+02	  -2.3856268e-01	   1.8111999e-01	
   1.0609500e+02	  -2.4533125e-01	   1.6975362e-01	
   1.0615000e+02	  -2.2134376e-01	   1.5676459e-01	
   1.0620500e+02	  -1.8129579e-01	   1.1154178e-01	
   1.0626000e+02	  -1.6937249e-01	   1.6070172e-02	
   1.0631500e+02	  -2.0378006e-01	  -9.9144219e-02	
   1.0637000e+02	  -2.6161356e-01	  -1.7422120e-01	
   1.0642500e+02	  -3.0515753e-01	  -1.6467479e-01	
   1.0648000e+02	  -2.9834927e-01	  -6.1087053e-02	
   1.0653500e+02	  -2.1410113e-01	   1.0805275e-01	
   1.0659000e+02	  -6.1310077e-02	   2.7794745e-01	
   1.0664500e+02	   9.7953106e-02	   3.7898905e-01	
   1.0670000e+02	   1.8206522e-01	   3.8900490e-01	
   1.0675500e+02	   1.4608688e-01	   3.4428084e-01	
   1.0681000e+02	   1.3362060e-02	   2.9393782e-01	
   1.0686500e+02	  -1.2767928e-01	   2.5946049e-01	
   1.0692000e+02	  -1.6697608e-01	   2.3748627e-01	
   1.0697500e+02	  -5.3895958e-02	   2.1462541e-01	
   1.0703000e+02	   1.4072164e-01	   1.7307609e-01	
   1.0708500e+02	   2.6408463e-01	   1.0961476e-01	
   1.0714000e+02	   2.2011015e-01	   6.0520817e-02	
   1.0719500e+02	   7.1005822e-02	   8.2622377e-02	
   1.0725000e+02	  -1.9954395e-02	   1.9363422e-01	
   1.0730500e+02	   5.4797173e-02	   3.4441886e-01	
   1.0736000e+02	   2.5797291e-01	   4.6001381e-01	
   1.0741500e+02	   4.5554901e-01	   5.0073644e-01	
   1.0747000e+02	   5.2032535e-01	   4.7956771e-01	
   1.0752500e+02	   4.0550078e-01	   4.3158247e-01	
   1.0758000e+02	   1.7719000e-01	   3.7898307e-01	
   1.0763500e+02	  -2.0497865e-02	   3.2195469e-01	
   1.0769000e+02	  -8.1653500e-02	   2.5123940e-01	
   1.0774500e+02	  -2.6172428e-02	   1.6976178e-01	
   1.0780000e+02	   5.2613664e-02	   1.0988343e-01	
   1.0785500e+02	   1.0332756e-01	   1.2250574e-01	
   1.0791000e+02	   1.3817051e-01	   2.3103578e-01	
   1.0796500e+02	   1.6714518e-01	   3.9496219e-01	
   1.0802000e+02	   1.7243386e-01	   5.3536973e-01	
   1.0807500e+02	   1.4568316e-01	   5.9947023e-01	
   1.0813000e+02	   1.0426574e-01	   5.8852606e-01	
   1.0818500e+02	   6.5016517e-02	   5.3143963e-01	
   1.0824000e+02	   3.3577493e-02	   4.5920535e-01	
   1.0829500e+02	   2.2137545e-02	   4.0100637e-01	
   1.0835000e+02	   4.2566564e-02	   3.6503688e-01	
   1.0840500e+02	   7.0665958e-02	   3.1735913e-01	
   1.0846000e+02	   5.3599335e-02	   2.1798009e-01	
   1.0851500e+02	  -1.8916641e-02	   8.6428302e-02	
   1.0857000e+02	  -7.4287297e-02	   3.4167274e-03	
   1.0862500e+02	  -2.3146889e-02	   4.0374790e-02	
   1.0868000e+02	   1.4110751e-01	   1.9926431e-01	
   1.0873500e+02	   3.3547792e-01	   4.1510011e-01	
   1.0879000e+02	   4.7359774e-01	   6.0328222e-01	
   1.0884500e+02	   5.3338068e-01	   7.1131818e-01	
   1.0890000e+02	   5.4293842e-01	   7.3991906e-01	
   1.0895500e+02	   5.2675125e-01	   7.1895752e-01	
   1.0901000e+02	   4.8131053e-01	   6.6901394e-01	
   1.0906500e+02	   4.0159702e-01	   5.9418253e-01	
   1.0912000e+02	   3.1658478e-01	   5.0409802e-01	
   1.0917500e+02	   2.7462059e-01	   4.2146765e-01	
   1.0923000e+02	   2.7918148e-01	   3.5464808e-01	
   1.0928500e+02	   2.5837050e-01	   2.7660978e-01	
   1.0934000e+02	   1.3669540e-01	   1.5918391e-01	
   1.0939500e+02	  -6.1926418e-02	   2.6845028e-02	
   1.0945000e+02	  -2.1951586e-01	  -4.9775000e-02	
   1.0950500e+02	  -2.3866848e-01	  -1.5272043e-02	
   1.0956000e+02	  -1.2692772e-01	   1.2833918e-01	
   1.0961500e+02	   3.4496930e-02	   3.2656474e-01	
   1.0967000e+02	   1.8252907e-01	   5.0362270e-01	
   1.0972500e+02	   3.1181931e-01	   6.0418797e-01	
   1.0978000e+02	   4.2647268e-01	   6.2568535e-01	
   1.0983500e+02	   4.8741963e-01	   6.1115947e-01	
   1.0989000e+02	   4.3574682e-01	   6.0398075e-01	
   1.0994500e+02	   2.6470415e-01	   6.0989446e-01	
   1.1000000e+02	   5.4738906e-02	   6.0373331e-01	
   1.1005500e+02	  -7.8579188e-02	   5.6284237e-01	
   1.1011000e+02	  -8.4702948e-02	   4.8287810e-01	
   1.1016500e+02	  -2.3264220e-02	   3.6870696e-01	
   1.1022000e+02	   4.6951248e-03	   2.3521353e-01	
   1.1027500e+02	  -2.5754398e-02	   1.2563717e-01	
   1.1033000e+02	  -3.7584462e-02	   1.0048987e-01	
   1.1038500e+02	   3.7980532e-02	   1.8173968e-01	
   1.1044000e+02	   1.6021428e-01	   3.1812583e-01	
   1.1049500e+02	   2.3102326e-01	   4.2514087e-01	
   1.1055000e+02	   2.2420924e-01	   4.5764447e-01	
   1.1060500e+02	   2.0954774e-01	   4.3530343e-01	
   1.1066000e+02	   2.4672000e-01	   4.0506883e-01	
   1.1071500e+02	   3.0246181e-01	   3.9350123e-01	
   1.1077000e+02	   2.9818669e-01	   3.9317412e-01	
   1.1082500e+02	   2.0563784e-01	   3.7893188e-01	
   1.1088000e+02	   6.3496621e-02	   3.3037797e-01	
   1.1093500e+02	  -7.2202429e-02	   2.4627885e-01	
   1.1099000e+02	  -1.6154136e-01	   1.4850052e-01	
   1.1104500e+02	  -1.8246403e-01	   7.8440239e-02	
   1.1110000e+02	  -1.2787761e-01	   8.1624664e-02	
   1.1115500e+02	  -5.9916146e-03	   1.7560161e-01	
   1.1121000e+02	   1.5969487e-01	   3.2474873e-01	
   1.1126500e+02	   3.2446525e-01	   4.5936360e-01	
   1.1132000e+02	   4.2365873e-01	   5.2964276e-01	
   1.1137500e+02	   4.1814723e-01	   5.3528937e-01	
   1.1143000e+02	   3.4447454e-01	   5.0029127e-01	
   1.1148500e+02	   2.7398779e-01	   4.3642318e-01	
   1.1154000e+02	   2.2354351e-01	   3.4576908e-01	
   1.1159500e+02	   1.5463059e-01	   2.4177032e-01	
   1.1165000e+02	   4.5092500e-02	   1.4319435e-01	
   1.1170500e+02	  -8.2696239e-02	   5.2808214e-02	
   1.1176000e+02	  -1.8336534e-01	  -3.8561469e-02	
   1.1181500e+02	  -2.1381327e-01	  -1.2512821e-01	
   1.1187000e+02	  -1.5867857e-01	  -1.7477749e-01	
   1.1192500e+02	  -3.7107771e-02	  -1.5069258e-01	
   1.1198000e+02	   1.1710747e-01	  -4.3942539e-02	
   1.1203500e+02	   2.6960247e-01	   1.1356590e-01	
   1.1209000e+02	   3.8826879e-01	   2.6500516e-01	
   1.1214500e+02	   4.4523922e-01	   3.6091653e-01	
   1.1220000e+02	   4.2294782e-01	   3.8683469e-01	
   1.1225500e+02	   3.3128966e-01	   3.6593747e-01	
   1.1231000e+02	   2.1013097e-01	   3.3145252e-01	
   1.1236500e+02	   1.0548480e-01	   2.9519193e-01	
   1.1242000e+02	   5.3770379e-02	   2.4730840e-01	
   1.1247500e+02	   6.4867384e-02	   1.8095008e-01	
   1.1253000e+02	   8.6004026e-02	   1.0258336e-01	
   1.1258500e+02	   1.7632039e-02	   1.8367511e-02	
   1.1264000e+02	  -1.7979552e-01	  -7.2572362e-02	
   1.1269500e+02	  -4.0985784e-01	  -1.6186857e-01	
   1.1275000e+02	  -5.1791189e-01	  -2.1831383e-01	
   1.1280500e+02	  -4.4039544e-01	  -2.0494896e-01	
   1.1286000e+02	  -2.4236571e-01	  -1.1361767e-01	
   1.1291500e+02	  -2.2556867e-02	   2.3342601e-02	
   1.1297000e+02	   1.6456223e-01	   1.5784150e-01	
   1.1302500e+02	   2.9366749e-01	   2.5664278e-01	
   1.1308000e+02	   3.4053394e-01	   3.1059914e-01	
   1.1313500e+02	   3.0163587e-01	   3.2829892e-01	
   1.1319000e+02	   2.1042925e-01	   3.2100900e-01	
   1.1324500e+02	   1.0608417e-01	   2.8405444e-01	
   1.1330000e+02	   2.3803282e-04	   2.0201221e-01	
   1.1335500e+02	  -1.0907959e-01	   7.8880460e-02	
   1.1341000e+02	  -2.0841135e-01	  -5.6160335e-02	
   1.1346500e+02	  -2.6987938e-01	  -1.7453715e-01	
   1.1352000e+02	  -2.6575457e-01	  -2.5138615e-01	
   1.1357500e+02	  -1.8288372e-01	  -2.4924547e-01	
   1.1363000e+02	  -5.1734522e-02	  -1.4456783e-01	
   1.1368500e+02	   5.2352440e-02	   2.2893157e-02	
   1.1374000e+02	   8.0303302e-02	   1.6674150e-01	
   1.1379500e+02	   6.7948769e-02	   2.3048079e-01	
   1.1385000e+02	   8.3876556e-02	   2.2352160e-01	
   1.1390500e+02	   1.3612444e-01	   1.8326755e-01	
   1.1396000e+02	   1.6888514e-01	   1.2971740e-01	
   1.1401500e+02	   1.3849977e-01	   6.2191930e-02	
   1.1407000e+02	   5.6795773e-02	  -2.1741719e-02	
   1.1412500e+02	  -3.3847520e-02	  -1.1470429e-01	
   1.1418000e+02	  -9.7939110e-02	  -1.9390603e-01	
   1.1423500e+02	  -1.2119325e-01	  -2.2284804e-01	
   1.1429000e+02	  -1.0997334e-01	  -1.7663279e-01	
   1.1434500e+02	  -7.8124371e-02	  -7.3710173e-02	
   1.1440000e+02	  -2.2568577e-02	   3.3379605e-02	
   1.1445500e+02	   7.4540443e-02	   1.0742007e-01	
   1.1451000e+02	   1.9636566e-01	   1.5350993e-01	
   1.1456500e+02	   2.6652722e-01	   1.8932925e-01	
   1.1462000e+02	   2.1784803e-01	   2.0662921e-01	
   1.1467500e+02	   7.8024233e-02	   1.8159333e-01	
   1.1473000e+02	  -5.8987216e-02	   1.1174104e-01	
   1.1478500e+02	  -1.4595363e-01	   1.8622766e-02	
   1.1484000e+02	  -2.1814116e-01	  -7.9038584e-02	
   1.1489500e+02	  -3.1292171e-01	  -1.6815498e-01	
   1.1495000e+02	  -4.0490194e-01	  -2.1997187e-01	
   1.1500500e+02	  -4.3602853e-01	  -1.9524018e-01	
   1.1506000e+02	  -3.7606351e-01	  -8.2314183e-02	
   1.1511500e+02	  -2.4133163e-01	   8.0575356e-02	
   1.1517000e+02	  -7.9349365e-02	   2.2831771e-01	
   1.1522500e+02	   4.8583864e-02	   3.1575284e-01	
   1.1528000e+02	   8.8757949e-02	   3.4421906e-01	
   1.1533500e+02	   3.2256232e-02	   3.4065233e-01	
   1.1539000e+02	  -6.4199274e-02	   3.1407724e-01	
   1.1544500e+02	  -1.2197188e-01	   2.4673868e-01	
   1.1550000e+02	  -1.1511958e-01	   1.2958611e-01	
   1.1555500e+02	  -8.2026615e-02	  -1.1594461e-02	
   1.1561000e+02	  -7.1060618e-02	  -1.3415090e-01	
   1.1566500e+02	  -1.0278790e-01	  -2.1105601e-01	
   1.1572000e+02	  -1.6495643e-01	  -2.3507560e-01	
   1.1577500e+02	  -2.1384177e-01	  -2.0014330e-01	
   1.1583000e+02	  -2.0414684e-01	  -1.0220749e-01	
   1.1588500e+02	  -1.3590561e-01	   3.5586558e-02	
   1.1594000e+02	  -4.8556690e-02	   1.6403373e-01	
   1.1599500e+02	   3.3524823e-02	   2.4940078e-01	
   1.1605000e+02	   1.1588756e-01	   2.9601493e-01	
   1.1610500e+02	   1.8641832e-01	   3.2124978e-01	
   1.1616000e+02	   1.9820727e-01	   3.2939059e-01	
   1.1621500e+02	   1.3257244e-01	   3.1418395e-01	
   1.1627000e+02	   3.5520827e-02	   2.6910588e-01	
   1.1632500e+02	  -5.4064432e-02	   1.9384939e-01	
   1.1638000e+02	  -1.6199536e-01	   1.0261903e-01	
   1.1643500e+02	  -3.0282282e-01	   2.2098128e-02	
   1.1649000e+02	  -4.0137240e-01	  -2.9270335e-02	
   1.1654500e+02	  -3.7070589e-01	  -5.2024677e-02	
   1.1660000e+02	  -2.3069936e-01	  -4.4542089e-02	
   1.1665500e+02	  -7.8475428e-02	   1.3146286e-02	
   1.1671000e+02	   3.1896556e-02	   1.3183631e-01	
   1.1676500e+02	   1.2003829e-01	   2.7977797e-01	
   1.1682000e+02	   2.0240496e-01	   4.0051375e-01	
   1.1687500e+02	   2.4472219e-01	   4.5733662e-01	
   1.1693000e+02	   2.1491373e-01	   4.4283337e-01	
   1.1698500e+02	   1.4543633e-01	   3.6110465e-01	
   1.1704000e+02	   1.0134844e-01	   2.2780325e-01	
   1.1709500e+02	   1.0124183e-01	   7.8705960e-02	
   1.1715000e+02	   1.0450566e-01	  -4.6285599e-02	
   1.1720500e+02	   6.5979138e-02	  -1.2763384e-01	
   1.1726000e+02	  -2.0406700e-02	  -1.6482607e-01	
   1.1731500e+02	  -1.1404413e-01	  -1.5727914e-01	
   1.1737000e+02	  -1.4930047e-01	  -1.0253758e-01	
   1.1742500e+02	  -9.2876714e-02	  -1.5111141e-02	
   1.1748000e+02	   1.3797677e-02	   7.2611251e-02	
   1.1753500e+02	   9.9756054e-02	   1.3832086e-01	
   1.1759000e+02	   1.3828076e-01	   1.8122402e-01	
   1.1764500e+02	   1.3692533e-01	   2.0018954e-01	
   1.1770000e+02	   8.8696243e-02	   1.8547442e-01	
   1.1775500e+02	  -8.3105259e-03	   1.4068870e-01	
   1.1781000e+02	  -1.1006754e-01	   8.6378209e-02	
   1.1786500e+02	  -1.6394656e-01	   2.9509508e-02	
   1.1792000e+02	  -1.7163368e-01	  -4.5729729e-02	
   1.1797500e+02	  -1.6826897e-01	  -1.3943632e-01	
   1.1803000e+02	  -1.5028969e-01	  -2.0696706e-01	
   1.1808500e+02	  -6.9550759e-02	  -1.9155010e-01	
   1.1814000e+02	   9.4190614e-02	  -8.2670769e-02	
   1.1819500e+02	   2.8691413e-01	   7.0557201e-02	
   1.1825000e+02	   4.2007030e-01	   2.0024259e-01	
   1.1830500e+02	   4.4398487e-01	   2.6688179e-01	
   1.1836000e+02	   3.8414449e-01	   2.7357640e-01	
   1.1841500e+02	   3.1077020e-01	   2.4446515e-01	
   1.1847000e+02	   2.6290640e-01	   1.9477230e-01	
   1.1852500e+02	   2.1626112e-01	   1.2366978e-01	
   1.1858000e+02	   1.4652378e-01	   3.0855088e-02	
   1.1863500e+02	   8.8848166e-02	  -6.6867394e-02	
   1.1869000e+02	   8.6276777e-02	  -1.3730612e-01	
   1.1874500e+02	   1.1057594e-01	  -1.5353158e-01	
   1.1880000e+02	   9.9951762e-02	  -1.1368309e-01	
   1.1885500e+02	   5.3930218e-02	  -3.8623006e-02	
   1.1891000e+02	   2.6159844e-02	   4.3950974e-02	
   1.1896500e+02	   4.3250296e-02	   1.0981316e-01	
   1.1902000e+02	   8.4835286e-02	   1.4814580e-01	
   1.1907500e+02	   1.2331655e-01	   1.7224538e-01	
   1.1913000e+02	   1.4324275e-01	   2.0595678e-01	
   1.1918500e+02	   1.3957677e-01	   2.4752520e-01	
   1.1924000e+02	   1.2263911e-01	   2.6153814e-01	
   1.1929500e+02	   1.0991804e-01	   2.1810112e-01	
   1.1935000e+02	   9.3082456e-02	   1.2282930e-01	
   1.1940500e+02	   2.6646286e-02	   1.6126033e-04	
   1.1946000e+02	  -1.1530017e-01	  -1.2542516e-01	
   1.1951500e+02	  -2.6796226e-01	  -2.1615154e-01	
   1.1957000e+02	  -3.0553652e-01	  -2.1895687e-01	
   1.1962500e+02	  -1.6905240e-01	  -1.1106480e-01	
   1.1968000e+02	   5.9211332e-02	   6.0041615e-02	
   1.1973500e+02	   2.3348778e-01	   2.1093330e-01	
   1.1979000e+02	   2.7885543e-01	   2.9366442e-01	
   1.1984500e+02	   2.2135455e-01	   3.1363417e-01	
   1.1990000e+02	   1.1136439e-01	   2.9330224e-01	
   1.1995500e+02	  -2.1926246e-02	   2.4657946e-01	
   1.2001000e+02	  -1.3801743e-01	   1.7989743e-01	
   1.2006500e+02	  -1.7320554e-01	   9.8452397e-02	
   1.2012000e+02	  -9.7320062e-02	   1.2355848e-02	
   1.2017500e+02	   3.7678165e-02	  -6.4289249e-02	
   1.2023000e+02	   1.1698245e-01	  -1.3043749e-01	
   1.2028500e+02	   3.5256885e-02	  -2.0635247e-01	
   1.2034000e+02	  -2.1683582e-01	  -3.0318241e-01	
   1.2039500e+02	  -5.1424529e-01	  -3.8490193e-01	
   1.2045000e+02	  -6.6594214e-01	  -3.8632930e-01	
   1.2050500e+02	  -5.6062194e-01	  -2.7897795e-01	
   1.2056000e+02	  -2.5818402e-01	  -1.0076188e-01	
   1.2061500e+02	   7.2086867e-02	   8.2484609e-02	
   1.2067000e+02	   2.8886783e-01	   2.1981504e-01	
   1.2072500e+02	   3.4544275e-01	   2.7997635e-01	
   1.2078000e+02	   2.7310083e-01	   2.5330973e-01	
   1.2083500e+02	   1.4758570e-01	   1.6850322e-01	
   1.2089000e+02	   4.5928644e-02	   8.2939259e-02	
   1.2094500e+02	  -6.9360257e-03	   3.3212422e-02	
   1.2100000e+02	  -4.3594925e-02	   1.5497677e-03	
   1.2105500e+02	  -9.4508259e-02	  -5.8277651e-02	
   1.2111000e+02	  -1.5175983e-01	  -1.6664821e-01	
   1.2116500e+02	  -2.0442724e-01	  -2.9130065e-01	
   1.2122000e+02	  -2.6092127e-01	  -3.6544829e-01	
   1.2127500e+02	  -3.0488736e-01	  -3.3482971e-01	
   1.2133000e+02	  -2.7620252e-01	  -2.0522042e-01	
   1.2138500e+02	  -1.4689395e-01	  -5.0773895e-02	
   1.2144000e+02	   8.1495682e-03	   4.0813142e-02	
   1.2149500e+02	   7.2655369e-02	   4.3860675e-02	
   1.2155000e+02	   2.0522783e-02	   6.2507558e-03	
   1.2160500e+02	  -6.5132247e-02	  -1.7881371e-02	
   1.2166000e+02	  -1.1073131e-01	  -2.7427008e-02	
   1.2171500e+02	  -1.3578702e-01	  -5.8253604e-02	
   1.2177000e+02	  -1.9907960e-01	  -1.3161400e-01	
   1.2182500e+02	  -3.1126802e-01	  -2.3566848e-01	
   1.2188000e+02	  -4.3209328e-01	  -3.3850752e-01	
   1.2193500e+02	  -5.1195173e-01	  -3.9695383e-01	
   1.2199000e+02	  -5.0639844e-01	  -3.7067347e-01	
   1.2204500e+02	  -4.0458652e-01	  -2.6011029e-01	
   1.2210000e+02	  -2.7808154e-01	  -1.2466864e-01	
   1.2215500e+02	  -2.3868618e-01	  -3.7464889e-02	
   1.2221000e+02	  -3.1287108e-01	  -2.2914675e-02	
   1.2226500e+02	  -4.1147992e-01	  -5.0168927e-02	
   1.2232000e+02	  -4.4048665e-01	  -7.7891175e-02	
   1.2237500e+02	  -3.9515479e-01	  -9.3472757e-02	
   1.2243000e+02	  -3.4076374e-01	  -1.1644720e-01	
   1.2248500e+02	  -3.3909160e-01	  -1.7597180e-01	
   1.2254000e+02	  -4.0145204e-01	  -2.8285209e-01	
   1.2259500e+02	  -4.9182042e-01	  -4.1033933e-01	
   1.2265000e+02	  -5.5861918e-01	  -4.9637134e-01	
   1.2270500e+02	  -5.6291142e-01	  -4.7920691e-01	
   1.2276000e+02	  -4.9381762e-01	  -3.4990677e-01	
   1.2281500e+02	  -3.7352934e-01	  -1.6712450e-01	
   1.2287000e+02	  -2.4769192e-01	  -9.4742764e-03	
   1.2292500e+02	  -1.6933321e-01	   8.0016719e-02	
   1.2298000e+02	  -1.8264551e-01	   1.0235183e-01	
   1.2303500e+02	  -2.9299836e-01	   8.2127618e-02	
   1.2309000e+02	  -4.4134886e-01	   4.9547587e-02	
   1.2314500e+02	  -5.3854199e-01	   2.0747607e-02	
   1.2320000e+02	  -5.4948187e-01	  -1.3932490e-02	
   1.2325500e+02	  -5.2877486e-01	  -7.1164499e-02	
   1.2331000e+02	  -5.6174039e-01	  -1.4897435e-01	
   1.2336500e+02	  -6.8287968e-01	  -2.2990378e-01	
   1.2342000e+02	  -8.4217579e-01	  -2.9190623e-01	
   1.2347500e+02	  -9.2661502e-01	  -3.0093637e-01	
   1.2353000e+02	  -8.3999976e-01	  -2.2047624e-01	
   1.2358500e+02	  -6.0538442e-01	  -5.5965554e-02	
   1.2364000e+02	  -3.7104415e-01	   1.2826702e-01	
   1.2369500e+02	  -2.7285411e-01	   2.5714871e-01	
   1.2375000e+02	  -3.0591887e-01	   3.0048032e-01	
   1.2380500e+02	  -3.6783933e-01	   2.7644236e-01	
   1.2386000e+02	  -3.9786427e-01	   2.1871524e-01	
   1.2391500e+02	  -4.1373925e-01	   1.5274967e-01	
   1.2397000e+02	  -4.3490993e-01	   9.1127934e-02	
   1.2402500e+02	  -4.5099352e-01	   3.3360300e-02	
   1.2408000e+02	  -4.6588243e-01	  -2.9650632e-02	
   1.2413500e+02	  -4.9641676e-01	  -9.9161861e-02	
   1.2419000e+02	  -5.2137443e-01	  -1.5263316e-01	
   1.2424500e+02	  -4.9696461e-01	  -1.5377660e-01	
   1.2430000e+02	  -4.2703579e-01	  -8.5611883e-02	
   1.2435500e+02	  -3.6290992e-01	   3.4023245e-02	
   1.2441000e+02	  -3.2592798e-01	   1.6965747e-01	
   1.2446500e+02	  -2.7798026e-01	   2.8616736e-01	
   1.2452000e+02	  -1.9245036e-01	   3.5421729e-01	
   1.2457500e+02	  -1.1970312e-01	   3.6120071e-01	
   1.2463000e+02	  -1.4406401e-01	   3.1979446e-01	
   1.2468500e+02	  -2.8771871e-01	   2.5064149e-01	
   1.2474000e+02	  -4.8086760e-01	   1.5955098e-01	
   1.2479500e+02	  -6.1442588e-01	   4.7706552e-02	
   1.2485000e+02	  -6.1427194e-01	  -5.8509535e-02	
   1.2490500e+02	  -4.9299738e-01	  -1.0677414e-01	
   1.2496000e+02	  -3.4373989e-01	  -5.9605352e-02	
   1.2501500e+02	  -2.6155848e-01	   6.6974280e-02	
   1.2507000e+02	  -2.6672250e-01	   2.1362347e-01	
   1.2512500e+02	  -3.2157537e-01	   3.2446498e-01	
   1.2518000e+02	  -3.9850405e-01	   3.7763289e-01	
   1.2523500e+02	  -4.8781436e-01	   3.7942640e-01	
   1.2529000e+02	  -5.5876191e-01	   3.4358423e-01	
   1.2534500e+02	  -5.7336834e-01	   2.7635653e-01	
   1.2540000e+02	  -5.4265778e-01	   1.7989011e-01	
   1.2545500e+02	  -5.2034439e-01	   7.4215821e-02	
   1.2551000e+02	  -5.2763639e-01	   5.4766971e-03	
   1.2556500e+02	  -5.2154347e-01	   1.2752000e-02	
   1.2562000e+02	  -4.5583071e-01	   8.7560752e-02	
   1.2567500e+02	  -3.4632605e-01	   1.8213024e-01	
   1.2573000e+02	  -2.5609554e-01	   2.5889148e-01	
   1.2578500e+02	  -2.3231164e-01	   3.1775140e-01	
   1.2584000e+02	  -2.6792083e-01	   3.7319559e-01	
   1.2589500e+02	  -3.0540454e-01	   4.2420079e-01	
   1.2595000e+02	  -2.7343835e-01	   4.5661610e-01	
   1.2600500e+02	  -1.5434500e-01	   4.5790374e-01	
   1.2606000e+02	  -2.7836153e-02	   4.1730477e-01	
   1.2611500e+02	  -5.4070581e-03	   3.2549876e-01	
   1.2617000e+02	  -1.0577180e-01	   1.8911463e-01	
   1.2622500e+02	  -2.4272611e-01	   4.7332616e-02	
   1.2628000e+02	  -3.3681566e-01	  -3.1214680e-02	
   1.2633500e+02	  -3.6837348e-01	   1.3333827e-02	
   1.2639000e+02	  -3.2324589e-01	   1.7808351e-01	
   1.2644500e+02	  -1.8368788e-01	   3.8641618e-01	
   1.2650000e+02	   2.0247130e-04	   5.4253079e-01	
   1.2655500e+02	   1.2027744e-01	   5.9940925e-01	
   1.2661000e+02	   1.3702524e-01	   5.7816787e-01	
   1.2666500e+02	   1.2070625e-01	   5.2849755e-01	
   1.2672000e+02	   1.2837636e-01	   4.7659120e-01	
   1.2677500e+02	   1.2456140e-01	   4.1572839e-01	
   1.2683000e+02	   5.9109207e-02	   3.3745688e-01	
