	
0   5   7
   0.0000000e+00	   5.1914016e-01	  -3.4742104e-03	
   5.5000000e-02	   5.2296297e-01	   6.3646551e-03	
   1.1000000e-01	   5.2705985e-01	   1.5822429e-02	
   1.6500000e-01	   5.3185529e-01	   2.4918199e-02	
   2.2000000e-01	   5.3772764e-01	   3.3670487e-02	
   2.7500000e-01	   5.4498576e-01	   4.2093171e-02	
   3.3000000e-01	   5.5385088e-01	   5.0191309e-02	
   3.8500000e-01	   5.6444588e-01	   5.7958653e-02	
   4.4000000e-01	   5.7679421e-01	   6.5378991e-02	
   4.9500000e-01	   5.9083014e-01	   7.2432293e-02	
   5.5000000e-01	   6.0641888e-01	   7.9104641e-02	
   6.0500000e-01	   6.2338191e-01	   8.5399183e-02	
   6.6000000e-01	   6.4152126e-01	   9.1344823e-02	
   7.1500000e-01	   6.6063810e-01	   9.7000153e-02	
   7.7000000e-01	   6.8054259e-01	   1.0245151e-01	
   8.2500000e-01	   7.0105387e-01	   1.0780561e-01	
   8.8000000e-01	   7.2199179e-01	   1.1317852e-01	
   9.3500000e-01	   7.4316437e-01	   1.1868283e-01	
   9.9000000e-01	   7.6435484e-01	   1.2441501e-01	
   1.0450000e+00	   7.8531093e-01	   1.3044439e-01	
   1.1000000e+00	   8.0573894e-01	   1.3680573e-01	
   1.1550000e+00	   8.2530468e-01	   1.4349624e-01	
   1.2100000e+00	   8.4364170e-01	   1.5047726e-01	
   1.2650000e+00	   8.6036585e-01	   1.5768016e-01	
   1.3200000e+00	   8.7509421e-01	   1.6501538e-01	
   1.3750000e+00	   8.8746592e-01	   1.7238218e-01	
   1.4300000e+00	   8.9716228e-01	   1.7967701e-01	
   1.4850000e+00	   9.0392448e-01	   1.8679908e-01	
   1.5400000e+00	   9.0756834e-01	   1.9365320e-01	
   1.5950000e+00	   9.0799544e-01	   2.0014999e-01	
   1.6500000e+00	   9.0520046e-01	   2.0620411e-01	
   1.7050000e+00	   8.9927553e-01	   2.1173275e-01	
   1.7600000e+00	   8.9041378e-01	   2.1665649e-01	
   1.8150000e+00	   8.7891432e-01	   2.2090366e-01	
   1.8700000e+00	   8.6518814e-01	   2.2441710e-01	
   1.9250000e+00	   8.4976204e-01	   2.2716168e-01	
   1.9800000e+00	   8.3327627e-01	   2.2912999e-01	
   2.0350000e+00	   8.1647312e-01	   2.3034445e-01	
   2.0900000e+00	   8.0017517e-01	   2.3085489e-01	
   2.1450000e+00	   7.8525290e-01	   2.3073232e-01	
   2.2000000e+00	   7.7258139e-01	   2.3006036e-01	
   2.2550000e+00	   7.6298607e-01	   2.2892539e-01	
   2.3100000e+00	   7.5717902e-01	   2.2740659e-01	
   2.3650000e+00	   7.5569082e-01	   2.2556711e-01	
   2.4200000e+00	   7.5880825e-01	   2.2344808e-01	
   2.4750000e+00	   7.6653219e-01	   2.2106683e-01	
   2.5300000e+00	   7.7856901e-01	   2.1842004e-01	
   2.5850000e+00	   7.9436082e-01	   2.1549138e-01	
   2.6400000e+00	   8.1314859e-01	   2.1226185e-01	
   2.6950000e+00	   8.3405243e-01	   2.0871980e-01	
   2.7500000e+00	   8.5615147e-01	   2.0486904e-01	
   2.8050000e+00	   8.7855173e-01	   2.0073357e-01	
   2.8600000e+00	   9.0043833e-01	   1.9635838e-01	
   2.9150000e+00	   9.2111237e-01	   1.9180570e-01	
   2.9700000e+00	   9.4001474e-01	   1.8714778e-01	
   3.0250000e+00	   9.5673924e-01	   1.8245751e-01	
   3.0800000e+00	   9.7103684e-01	   1.7779825e-01	
   3.1350000e+00	   9.8281273e-01	   1.7321446e-01	
   3.1900000e+00	   9.9211855e-01	   1.6872486e-01	
   3.2450000e+00	   9.9914309e-01	   1.6432015e-01	
   3.3000000e+00	   1.0042038e+00	   1.5996610e-01	
   3.3550000e+00	   1.0077390e+00	   1.5561218e-01	
   3.4100000e+00	   1.0103002e+00	   1.5120397e-01	
   3.4650000e+00	   1.0125380e+00	   1.4669628e-01	
   3.5200000e+00	   1.0151798e+00	   1.4206372e-01	
   3.5750000e+00	   1.0189911e+00	   1.3730710e-01	
   3.6300000e+00	   1.0247222e+00	   1.3245523e-01	
   3.6850000e+00	   1.0330419e+00	   1.2756177e-01	
   3.7400000e+00	   1.0444709e+00	   1.2269755e-01	
   3.7950000e+00	   1.0593293e+00	   1.1793956e-01	
   3.8500000e+00	   1.0777106e+00	   1.1335847e-01	
   3.9050000e+00	   1.0994845e+00	   1.0900680e-01	
   3.9600000e+00	   1.1243210e+00	   1.0490917e-01	
   4.0150000e+00	   1.1517249e+00	   1.0105650e-01	
   4.0700000e+00	   1.1810753e+00	   9.7405332e-02	
   4.1250000e+00	   1.2116674e+00	   9.3882788e-02	
   4.1800000e+00	   1.2427583e+00	   9.0396938e-02	
   4.2350000e+00	   1.2736135e+00	   8.6850805e-02	
   4.2900000e+00	   1.3035497e+00	   8.3157087e-02	
   4.3450000e+00	   1.3319673e+00	   7.9250081e-02	
   4.4000000e+00	   1.3583731e+00	   7.5092715e-02	
   4.4550000e+00	   1.3823894e+00	   7.0678751e-02	
   4.5100000e+00	   1.4037525e+00	   6.6031076e-02	
   4.5650000e+00	   1.4223005e+00	   6.1196071e-02	
   4.6200000e+00	   1.4379541e+00	   5.6233906e-02	
   4.6750000e+00	   1.4506931e+00	   5.1206028e-02	
   4.7300000e+00	   1.4605325e+00	   4.6162238e-02	
   4.7850000e+00	   1.4675007e+00	   4.1129644e-02	
   4.8400000e+00	   1.4716244e+00	   3.6105587e-02	
   4.8950000e+00	   1.4729214e+00	   3.1056749e-02	
   4.9500000e+00	   1.4714037e+00	   2.5925175e-02	
   5.0050000e+00	   1.4670875e+00	   2.0639002e-02	
   5.0600000e+00	   1.4600034e+00	   1.5124231e-02	
   5.1150000e+00	   1.4502034e+00	   9.3149303e-03	
   5.1700000e+00	   1.4377627e+00	   3.1606281e-03	
   5.2250000e+00	   1.4227780e+00	  -3.3698582e-03	
   5.2800000e+00	   1.4053627e+00	  -1.0287998e-02	
   5.3350000e+00	   1.3856415e+00	  -1.7587572e-02	
   5.3900000e+00	   1.3637459e+00	  -2.5248329e-02	
   5.4450000e+00	   1.3398105e+00	  -3.3240530e-02	
   5.5000000e+00	   1.3139734e+00	  -4.1528613e-02	
   5.5550000e+00	   1.2863824e+00	  -5.0071410e-02	
   5.6100000e+00	   1.2572109e+00	  -5.8817804e-02	
   5.6650000e+00	   1.2266769e+00	  -6.7699233e-02	
   5.7200000e+00	   1.1950618e+00	  -7.6621664e-02	
   5.7750000e+00	   1.1627211e+00	  -8.5459768e-02	
   5.8300000e+00	   1.1300848e+00	  -9.4055613e-02	
   5.8850000e+00	   1.0976466e+00	  -1.0222329e-01	
   5.9400000e+00	   1.0659423e+00	  -1.0975927e-01	
   5.9950000e+00	   1.0355222e+00	  -1.1645696e-01	
   6.0500000e+00	   1.0069174e+00	  -1.2212309e-01	
   6.1050000e+00	   9.8060347e-01	  -1.2659344e-01	
   6.1600000e+00	   9.5696215e-01	  -1.2974589e-01	
   6.2150000e+00	   9.3624383e-01	  -1.3150925e-01	
   6.2700000e+00	   9.1853301e-01	  -1.3186715e-01	
   6.3250000e+00	   9.0372296e-01	  -1.3085575e-01	
   6.3800000e+00	   8.9150989e-01	  -1.2855518e-01	
   6.4350000e+00	   8.8141531e-01	  -1.2507614e-01	
   6.4900000e+00	   8.7283540e-01	  -1.2054523e-01	
   6.5450000e+00	   8.6510497e-01	  -1.1509212e-01	
   6.6000000e+00	   8.5755990e-01	  -1.0884037e-01	
   6.6550000e+00	   8.4958736e-01	  -1.0190302e-01	
   6.7100000e+00	   8.4066101e-01	  -9.4383044e-02	
   6.7650000e+00	   8.3036307e-01	  -8.6378235e-02	
   6.8200000e+00	   8.1839608e-01	  -7.7988738e-02	
   6.8750000e+00	   8.0458629e-01	  -6.9325579e-02	
   6.9300000e+00	   7.8887954e-01	  -6.0518094e-02	
   6.9850000e+00	   7.7133268e-01	  -5.1717769e-02	
   7.0400000e+00	   7.5210439e-01	  -4.3096376e-02	
   7.0950000e+00	   7.3144836e-01	  -3.4837943e-02	
   7.1500000e+00	   7.0970750e-01	  -2.7125860e-02	
   7.2050000e+00	   6.8730486e-01	  -2.0127626e-02	
   7.2600000e+00	   6.6472428e-01	  -1.3980598e-02	
   7.3150000e+00	   6.4247549e-01	  -8.7819824e-03	
   7.3700000e+00	   6.2104487e-01	  -4.5844900e-03	
   7.4250000e+00	   6.0084183e-01	  -1.3969251e-03	
   7.4800000e+00	   5.8215445e-01	   8.1139116e-04	
   7.5350000e+00	   5.6512430e-01	   2.1026176e-03	
   7.5900000e+00	   5.4974494e-01	   2.5590507e-03	
   7.6450000e+00	   5.3588361e-01	   2.2697724e-03	
   7.7000000e+00	   5.2331917e-01	   1.3176320e-03	
   7.7550000e+00	   5.1178524e-01	  -2.3077539e-04	
   7.8100000e+00	   5.0101081e-01	  -2.3298137e-03	
   7.8650000e+00	   4.9075544e-01	  -4.9527257e-03	
   7.9200000e+00	   4.8083775e-01	  -8.0828970e-03	
   7.9750000e+00	   4.7115406e-01	  -1.1700898e-02	
   8.0300000e+00	   4.6168258e-01	  -1.5771505e-02	
   8.0850000e+00	   4.5246775e-01	  -2.0234775e-02	
   8.1400000e+00	   4.4358217e-01	  -2.5003320e-02	
   8.1950000e+00	   4.3506946e-01	  -2.9965508e-02	
   8.2500000e+00	   4.2687991e-01	  -3.4992521e-02	
   8.3050000e+00	   4.1881473e-01	  -3.9947185e-02	
   8.3600000e+00	   4.1049040e-01	  -4.4693769e-02	
   8.4150000e+00	   4.0132900e-01	  -4.9108843e-02	
   8.4700000e+00	   3.9057635e-01	  -5.3092504e-02	
   8.5250000e+00	   3.7734663e-01	  -5.6578390e-02	
   8.5800000e+00	   3.6068557e-01	  -5.9540705e-02	
   8.6350000e+00	   3.3964255e-01	  -6.1996548e-02	
   8.6900000e+00	   3.1334496e-01	  -6.4001744e-02	
   8.7450000e+00	   2.8107053e-01	  -6.5640125e-02	
   8.8000000e+00	   2.4231124e-01	  -6.7009091e-02	
   8.8550000e+00	   1.9682195e-01	  -6.8205449e-02	
   8.9100000e+00	   1.4464930e-01	  -6.9314321e-02	
   8.9650000e+00	   8.6139030e-02	  -7.0402313e-02	
   9.0200000e+00	   2.1921101e-02	  -7.1515178e-02	
   9.0750000e+00	  -4.7127269e-02	  -7.2679319e-02	
   9.1300000e+00	  -1.1993922e-01	  -7.3905876e-02	
   9.1850000e+00	  -1.9533107e-01	  -7.5196038e-02	
   9.2400000e+00	  -2.7207954e-01	  -7.6546151e-02	
   9.2950000e+00	  -3.4898993e-01	  -7.7950983e-02	
   9.3500000e+00	  -4.2494509e-01	  -7.9403827e-02	
   9.4050000e+00	  -4.9893267e-01	  -8.0893384e-02	
   9.4600000e+00	  -5.7005499e-01	  -8.2398980e-02	
   9.5150000e+00	  -6.3752889e-01	  -8.3886550e-02	
   9.5700000e+00	  -7.0068233e-01	  -8.5307370e-02	
   9.6250000e+00	  -7.5895183e-01	  -8.6600214e-02	
   9.6800000e+00	  -8.1188263e-01	  -8.7696283e-02	
   9.7350000e+00	  -8.5913229e-01	  -8.8525811e-02	
   9.7900000e+00	  -9.0047730e-01	  -8.9025707e-02	
   9.8450000e+00	  -9.3582135e-01	  -8.9147957e-02	
   9.9000000e+00	  -9.6520242e-01	  -8.8867817e-02	
   9.9550000e+00	  -9.8879522e-01	  -8.8189560e-02	
   1.0010000e+01	  -1.0069046e+00	  -8.7147252e-02	
   1.0065000e+01	  -1.0199471e+00	  -8.5799312e-02	
   1.0120000e+01	  -1.0284223e+00	  -8.4217580e-02	
   1.0175000e+01	  -1.0328765e+00	  -8.2473463e-02	
   1.0230000e+01	  -1.0338682e+00	  -8.0624964e-02	
   1.0285000e+01	  -1.0319397e+00	  -7.8707934e-02	
   1.0340000e+01	  -1.0275958e+00	  -7.6732467e-02	
   1.0395000e+01	  -1.0212906e+00	  -7.4683438e-02	
   1.0450000e+01	  -1.0134225e+00	  -7.2524238e-02	
   1.0505000e+01	  -1.0043366e+00	  -7.0203548e-02	
   1.0560000e+01	  -9.9433670e-01	  -6.7664657e-02	
   1.0615000e+01	  -9.8369931e-01	  -6.4855891e-02	
   1.0670000e+01	  -9.7268833e-01	  -6.1740538e-02	
   1.0725000e+01	  -9.6156486e-01	  -5.8304583e-02	
   1.0780000e+01	  -9.5059033e-01	  -5.4559738e-02	
   1.0835000e+01	  -9.4001969e-01	  -5.0539623e-02	
   1.0890000e+01	  -9.3008525e-01	  -4.6289742e-02	
   1.0945000e+01	  -9.2097552e-01	  -4.1854500e-02	
   1.1000000e+01	  -9.1281503e-01	  -3.7264781e-02	
   1.1055000e+01	  -9.0565008e-01	  -3.2528841e-02	
   1.1110000e+01	  -8.9944428e-01	  -2.7628898e-02	
   1.1165000e+01	  -8.9408564e-01	  -2.2524546e-02	
   1.1220000e+01	  -8.8940397e-01	  -1.7162040e-02	
   1.1275000e+01	  -8.8519526e-01	  -1.1487262e-02	
   1.1330000e+01	  -8.8124935e-01	  -5.4600789e-03	
   1.1385000e+01	  -8.7737752e-01	   9.3226345e-04	
   1.1440000e+01	  -8.7343698e-01	   7.6648592e-03	
   1.1495000e+01	  -8.6934863e-01	   1.4669576e-02	
   1.1550000e+01	  -8.6510545e-01	   2.1835251e-02	
   1.1605000e+01	  -8.6076928e-01	   2.9014402e-02	
   1.1660000e+01	  -8.5645660e-01	   3.6036394e-02	
   1.1715000e+01	  -8.5231644e-01	   4.2725097e-02	
   1.1770000e+01	  -8.4850620e-01	   4.8917283e-02	
   1.1825000e+01	  -8.4517026e-01	   5.4478090e-02	
   1.1880000e+01	  -8.4242414e-01	   5.9311194e-02	
   1.1935000e+01	  -8.4034456e-01	   6.3362839e-02	
   1.1990000e+01	  -8.3896473e-01	   6.6620216e-02	
   1.2045000e+01	  -8.3827355e-01	   6.9105836e-02	
   1.2100000e+01	  -8.3821859e-01	   7.0869943e-02	
   1.2155000e+01	  -8.3871279e-01	   7.1982521e-02	
   1.2210000e+01	  -8.3964423e-01	   7.2525960e-02	
   1.2265000e+01	  -8.4088638e-01	   7.2589424e-02	
   1.2320000e+01	  -8.4230575e-01	   7.2265997e-02	
   1.2375000e+01	  -8.4376610e-01	   7.1652889e-02	
   1.2430000e+01	  -8.4513046e-01	   7.0853402e-02	
   1.2485000e+01	  -8.4626341e-01	   6.9978326e-02	
   1.2540000e+01	  -8.4703442e-01	   6.9144533e-02	
   1.2595000e+01	  -8.4732284e-01	   6.8470032e-02	
   1.2650000e+01	  -8.4702420e-01	   6.8066387e-02	
   1.2705000e+01	  -8.4605759e-01	   6.8030201e-02	
   1.2760000e+01	  -8.4437344e-01	   6.8434895e-02	
   1.2815000e+01	  -8.4196081e-01	   6.9323759e-02	
   1.2870000e+01	  -8.3885234e-01	   7.0705595e-02	
   1.2925000e+01	  -8.3512413e-01	   7.2554275e-02	
   1.2980000e+01	  -8.3088771e-01	   7.4812691e-02	
   1.3035000e+01	  -8.2627419e-01	   7.7400576e-02	
   1.3090000e+01	  -8.2141418e-01	   8.0224788e-02	
   1.3145000e+01	  -8.1641937e-01	   8.3189853e-02	
   1.3200000e+01	  -8.1137104e-01	   8.6206391e-02	
   1.3255000e+01	  -8.0631762e-01	   8.9196039e-02	
   1.3310000e+01	  -8.0128010e-01	   9.2092791e-02	
   1.3365000e+01	  -7.9626188e-01	   9.4841346e-02	
   1.3420000e+01	  -7.9126040e-01	   9.7393176e-02	
   1.3475000e+01	  -7.8627881e-01	   9.9701339e-02	
   1.3530000e+01	  -7.8133621e-01	   1.0171569e-01	
   1.3585000e+01	  -7.7647461e-01	   1.0338003e-01	
   1.3640000e+01	  -7.7176027e-01	   1.0463219e-01	
   1.3695000e+01	  -7.6727761e-01	   1.0540760e-01	
   1.3750000e+01	  -7.6311566e-01	   1.0564665e-01	
   1.3805000e+01	  -7.5935011e-01	   1.0530420e-01	
   1.3860000e+01	  -7.5602648e-01	   1.0435849e-01	
   1.3915000e+01	  -7.5314855e-01	   1.0281719e-01	
   1.3970000e+01	  -7.5067430e-01	   1.0071982e-01	
   1.4025000e+01	  -7.4851925e-01	   9.8136461e-02	
   1.4080000e+01	  -7.4656681e-01	   9.5162554e-02	
   1.4135000e+01	  -7.4468486e-01	   9.1909542e-02	
   1.4190000e+01	  -7.4274621e-01	   8.8492526e-02	
   1.4245000e+01	  -7.4064959e-01	   8.5016838e-02	
   1.4300000e+01	  -7.3833827e-01	   8.1565510e-02	
   1.4355000e+01	  -7.3581327e-01	   7.8189457e-02	
   1.4410000e+01	  -7.3313889e-01	   7.4902137e-02	
   1.4465000e+01	  -7.3043869e-01	   7.1680013e-02	
   1.4520000e+01	  -7.2788120e-01	   6.8469024e-02	
   1.4575000e+01	  -7.2565760e-01	   6.5195540e-02	
   1.4630000e+01	  -7.2395653e-01	   6.1779045e-02	
   1.4685000e+01	  -7.2294147e-01	   5.8143931e-02	
   1.4740000e+01	  -7.2273408e-01	   5.4228570e-02	
   1.4795000e+01	  -7.2340479e-01	   4.9990277e-02	
   1.4850000e+01	  -7.2497093e-01	   4.5404845e-02	
   1.4905000e+01	  -7.2740258e-01	   4.0460447e-02	
   1.4960000e+01	  -7.3063464e-01	   3.5147828e-02	
   1.5015000e+01	  -7.3458224e-01	   2.9449864e-02	
   1.5070000e+01	  -7.3915712e-01	   2.3332537e-02	
   1.5125000e+01	  -7.4428336e-01	   1.6738579e-02	
   1.5180000e+01	  -7.4991071e-01	   9.5853700e-03	
   1.5235000e+01	  -7.5602259e-01	   1.7688061e-03	
   1.5290000e+01	  -7.6263653e-01	  -6.8265381e-03	
   1.5345000e+01	  -7.6979663e-01	  -1.6312625e-02	
   1.5400000e+01	  -7.7756056e-01	  -2.6781390e-02	
   1.5455000e+01	  -7.8598475e-01	  -3.8289619e-02	
   1.5510000e+01	  -7.9511222e-01	  -5.0848284e-02	
   1.5565000e+01	  -8.0496562e-01	  -6.4417950e-02	
   1.5620000e+01	  -8.1554642e-01	  -7.8910134e-02	
   1.5675000e+01	  -8.2683999e-01	  -9.4194013e-02	
   1.5730000e+01	  -8.3882544e-01	  -1.1010820e-01	
   1.5785000e+01	  -8.5148838e-01	  -1.2647645e-01	
   1.5840000e+01	  -8.6483284e-01	  -1.4312458e-01	
   1.5895000e+01	  -8.7888960e-01	  -1.5989547e-01	
   1.5950000e+01	  -8.9371869e-01	  -1.7665965e-01	
   1.6005000e+01	  -9.0940435e-01	  -1.9332010e-01	
   1.6060000e+01	  -9.2604120e-01	  -2.0981030e-01	
   1.6115000e+01	  -9.4371446e-01	  -2.2608721e-01	
   1.6170000e+01	  -9.6248066e-01	  -2.4212275e-01	
   1.6225000e+01	  -9.8235387e-01	  -2.5789655e-01	
   1.6280000e+01	  -1.0032990e+00	  -2.7339130e-01	
   1.6335000e+01	  -1.0252317e+00	  -2.8859121e-01	
   1.6390000e+01	  -1.0480257e+00	  -3.0348421e-01	
   1.6445000e+01	  -1.0715253e+00	  -3.1806687e-01	
   1.6500000e+01	  -1.0955617e+00	  -3.3234984e-01	
   1.6555000e+01	  -1.1199703e+00	  -3.4636217e-01	
   1.6610000e+01	  -1.1446066e+00	  -3.6015438e-01	
   1.6665000e+01	  -1.1693583e+00	  -3.7379893e-01	
   1.6720000e+01	  -1.1941492e+00	  -3.8738714e-01	
   1.6775000e+01	  -1.2189328e+00	  -4.0102188e-01	
   1.6830000e+01	  -1.2436783e+00	  -4.1480702e-01	
   1.6885000e+01	  -1.2683545e+00	  -4.2883572e-01	
   1.6940000e+01	  -1.2929155e+00	  -4.4318004e-01	
   1.6995000e+01	  -1.3172939e+00	  -4.5788384e-01	
   1.7050000e+01	  -1.3414031e+00	  -4.7296021e-01	
   1.7105000e+01	  -1.3651475e+00	  -4.8839332e-01	
   1.7160000e+01	  -1.3884356e+00	  -5.0414362e-01	
   1.7215000e+01	  -1.4111936e+00	  -5.2015464e-01	
   1.7270000e+01	  -1.4333757e+00	  -5.3635889e-01	
   1.7325000e+01	  -1.4549681e+00	  -5.5268113e-01	
   1.7380000e+01	  -1.4759889e+00	  -5.6903911e-01	
   1.7435000e+01	  -1.4964810e+00	  -5.8534234e-01	
   1.7490000e+01	  -1.5165027e+00	  -6.0148910e-01	
   1.7545000e+01	  -1.5361139e+00	  -6.1736160e-01	
   1.7600000e+01	  -1.5553635e+00	  -6.3282095e-01	
   1.7655000e+01	  -1.5742794e+00	  -6.4770407e-01	
   1.7710000e+01	  -1.5928638e+00	  -6.6182389e-01	
   1.7765000e+01	  -1.6110925e+00	  -6.7497307e-01	
   1.7820000e+01	  -1.6289185e+00	  -6.8693185e-01	
   1.7875000e+01	  -1.6462789e+00	  -6.9748012e-01	
   1.7930000e+01	  -1.6631057e+00	  -7.0641199e-01	
   1.7985000e+01	  -1.6793358e+00	  -7.1354972e-01	
   1.8040000e+01	  -1.6949184e+00	  -7.1875405e-01	
   1.8095000e+01	  -1.7098178e+00	  -7.2192921e-01	
   1.8150000e+01	  -1.7240092e+00	  -7.2302184e-01	
   1.8205000e+01	  -1.7374702e+00	  -7.2201465e-01	
   1.8260000e+01	  -1.7501692e+00	  -7.1891811e-01	
   1.8315000e+01	  -1.7620552e+00	  -7.1376325e-01	
   1.8370000e+01	  -1.7730512e+00	  -7.0659720e-01	
   1.8425000e+01	  -1.7830521e+00	  -6.9748151e-01	
   1.8480000e+01	  -1.7919290e+00	  -6.8649332e-01	
   1.8535000e+01	  -1.7995395e+00	  -6.7372868e-01	
   1.8590000e+01	  -1.8057416e+00	  -6.5930678e-01	
   1.8645000e+01	  -1.8104090e+00	  -6.4337436e-01	
   1.8700000e+01	  -1.8134435e+00	  -6.2610858e-01	
   1.8755000e+01	  -1.8147824e+00	  -6.0771532e-01	
   1.8810000e+01	  -1.8143954e+00	  -5.8842086e-01	
   1.8865000e+01	  -1.8122745e+00	  -5.6845785e-01	
   1.8920000e+01	  -1.8084223e+00	  -5.4804944e-01	
   1.8975000e+01	  -1.8028416e+00	  -5.2739564e-01	
   1.9030000e+01	  -1.7955314e+00	  -5.0666389e-01	
   1.9085000e+01	  -1.7864860e+00	  -4.8598496e-01	
   1.9140000e+01	  -1.7757003e+00	  -4.6545388e-01	
   1.9195000e+01	  -1.7631777e+00	  -4.4513514e-01	
   1.9250000e+01	  -1.7489404e+00	  -4.2507099e-01	
   1.9305000e+01	  -1.7330393e+00	  -4.0529156e-01	
   1.9360000e+01	  -1.7155629e+00	  -3.8582512e-01	
   1.9415000e+01	  -1.6966399e+00	  -3.6670621e-01	
   1.9470000e+01	  -1.6764357e+00	  -3.4797907e-01	
   1.9525000e+01	  -1.6551414e+00	  -3.2969535e-01	
   1.9580000e+01	  -1.6329585e+00	  -3.1190773e-01	
   1.9635000e+01	  -1.6100830e+00	  -2.9466259e-01	
   1.9690000e+01	  -1.5866930e+00	  -2.7799434e-01	
   1.9745000e+01	  -1.5629408e+00	  -2.6192280e-01	
   1.9800000e+01	  -1.5389506e+00	  -2.4645318e-01	
   1.9855000e+01	  -1.5148220e+00	  -2.3157775e-01	
   1.9910000e+01	  -1.4906364e+00	  -2.1727874e-01	
   1.9965000e+01	  -1.4664652e+00	  -2.0353312e-01	
   2.0020000e+01	  -1.4423799e+00	  -1.9031879e-01	
   2.0075000e+01	  -1.4184598e+00	  -1.7762042e-01	
   2.0130000e+01	  -1.3947954e+00	  -1.6543306e-01	
   2.0185000e+01	  -1.3714855e+00	  -1.5376151e-01	
   2.0240000e+01	  -1.3486284e+00	  -1.4261520e-01	
   2.0295000e+01	  -1.3263071e+00	  -1.3199915e-01	
   2.0350000e+01	  -1.3045732e+00	  -1.2190394e-01	
   2.0405000e+01	  -1.2834333e+00	  -1.1229804e-01	
   2.0460000e+01	  -1.2628440e+00	  -1.0312470e-01	
   2.0515000e+01	  -1.2427157e+00	  -9.4304094e-02	
   2.0570000e+01	  -1.2229242e+00	  -8.5740201e-02	
   2.0625000e+01	  -1.2033282e+00	  -7.7331629e-02	
   2.0680000e+01	  -1.1837917e+00	  -6.8984579e-02	
   2.0735000e+01	  -1.1642043e+00	  -6.0625490e-02	
   2.0790000e+01	  -1.1445004e+00	  -5.2211397e-02	
   2.0845000e+01	  -1.1246695e+00	  -4.3736757e-02	
   2.0900000e+01	  -1.1047610e+00	  -3.5235567e-02	
   2.0955000e+01	  -1.0848783e+00	  -2.6777729e-02	
   2.1010000e+01	  -1.0651638e+00	  -1.8459421e-02	
   2.1065000e+01	  -1.0457772e+00	  -1.0388597e-02	
   2.1120000e+01	  -1.0268712e+00	  -2.6683413e-03	
   2.1175000e+01	  -1.0085693e+00	   4.6181136e-03	
   2.1230000e+01	  -9.9095201e-01	   1.1417322e-02	
   2.1285000e+01	  -9.7405073e-01	   1.7709098e-02	
   2.1340000e+01	  -9.5785210e-01	   2.3504329e-02	
   2.1395000e+01	  -9.4230869e-01	   2.8838652e-02	
   2.1450000e+01	  -9.2735471e-01	   3.3763108e-02	
   2.1505000e+01	  -9.1292327e-01	   3.8333183e-02	
   2.1560000e+01	  -8.9896190e-01	   4.2598371e-02	
   2.1615000e+01	  -8.8544410e-01	   4.6594145e-02	
   2.1670000e+01	  -8.7237524e-01	   5.0337650e-02	
   2.1725000e+01	  -8.5979123e-01	   5.3828522e-02	
   2.1780000e+01	  -8.4774933e-01	   5.7055086e-02	
   2.1835000e+01	  -8.3631386e-01	   6.0003269e-02	
   2.1890000e+01	  -8.2554157e-01	   6.2664210e-02	
   2.1945000e+01	  -8.1547025e-01	   6.5038487e-02	
   2.2000000e+01	  -8.0611240e-01	   6.7136886e-02	
   2.2055000e+01	  -7.9745498e-01	   6.8978157e-02	
   2.2110000e+01	  -7.8946442e-01	   7.0584271e-02	
   2.2165000e+01	  -7.8209423e-01	   7.1974376e-02	
   2.2220000e+01	  -7.7529290e-01	   7.3158895e-02	
   2.2275000e+01	  -7.6901138e-01	   7.4134790e-02	
   2.2330000e+01	  -7.6320988e-01	   7.4882536e-02	
   2.2385000e+01	  -7.5786245e-01	   7.5365501e-02	
   2.2440000e+01	  -7.5295671e-01	   7.5532710e-02	
   2.2495000e+01	  -7.4848775e-01	   7.5325302e-02	
   2.2550000e+01	  -7.4444755e-01	   7.4685388e-02	
   2.2605000e+01	  -7.4081362e-01	   7.3565146e-02	
   2.2660000e+01	  -7.3754087e-01	   7.1934139e-02	
   2.2715000e+01	  -7.3455918e-01	   6.9783627e-02	
   2.2770000e+01	  -7.3177696e-01	   6.7127344e-02	
   2.2825000e+01	  -7.2908911e-01	   6.3999060e-02	
   2.2880000e+01	  -7.2638737e-01	   6.0447631e-02	
   2.2935000e+01	  -7.2357127e-01	   5.6530369e-02	
   2.2990000e+01	  -7.2055818e-01	   5.2305840e-02	
   2.3045000e+01	  -7.1729031e-01	   4.7827662e-02	
   2.3100000e+01	  -7.1373725e-01	   4.3140735e-02	
   2.3155000e+01	  -7.0989332e-01	   3.8280827e-02	
   2.3210000e+01	  -7.0576923e-01	   3.3278338e-02	
   2.3265000e+01	  -7.0137939e-01	   2.8166169e-02	
   2.3320000e+01	  -6.9672793e-01	   2.2989357e-02	
   2.3375000e+01	  -6.9179764e-01	   1.7812914e-02	
   2.3430000e+01	  -6.8654479e-01	   1.2725627e-02	
   2.3485000e+01	  -6.8090072e-01	   7.8393665e-03	
   2.3540000e+01	  -6.7478033e-01	   3.2841580e-03	
   2.3595000e+01	  -6.6809559e-01	  -8.0003061e-04	
   2.3650000e+01	  -6.6077071e-01	  -4.2727426e-03	
   2.3705000e+01	  -6.5275453e-01	  -7.0015614e-03	
   2.3760000e+01	  -6.4402738e-01	  -8.8685292e-03	
   2.3815000e+01	  -6.3460006e-01	  -9.7736890e-03	
   2.3870000e+01	  -6.2450502e-01	  -9.6351089e-03	
   2.3925000e+01	  -6.1378319e-01	  -8.3861852e-03	
   2.3980000e+01	  -6.0247310e-01	  -5.9726948e-03	
   2.4035000e+01	  -5.9060579e-01	  -2.3515852e-03	
   2.4090000e+01	  -5.7820452e-01	   2.5083063e-03	
   2.4145000e+01	  -5.6528696e-01	   8.6240190e-03	
   2.4200000e+01	  -5.5186934e-01	   1.5994580e-02	
   2.4255000e+01	  -5.3797283e-01	   2.4595373e-02	
   2.4310000e+01	  -5.2363067e-01	   3.4371671e-02	
   2.4365000e+01	  -5.0889397e-01	   4.5233004e-02	
   2.4420000e+01	  -4.9383420e-01	   5.7050286e-02	
   2.4475000e+01	  -4.7854134e-01	   6.9657621e-02	
   2.4530000e+01	  -4.6311687e-01	   8.2860214e-02	
   2.4585000e+01	  -4.4766243e-01	   9.6447800e-02	
   2.4640000e+01	  -4.3226648e-01	   1.1021058e-01	
   2.4695000e+01	  -4.1699245e-01	   1.2395385e-01	
   2.4750000e+01	  -4.0187120e-01	   1.3750882e-01	
   2.4805000e+01	  -3.8689922e-01	   1.5073833e-01	
   2.4860000e+01	  -3.7204361e-01	   1.6353734e-01	
   2.4915000e+01	  -3.5725341e-01	   1.7582882e-01	
   2.4970000e+01	  -3.4247517e-01	   1.8755652e-01	
   2.5025000e+01	  -3.2766945e-01	   1.9867616e-01	
   2.5080000e+01	  -3.1282493e-01	   2.0914639e-01	
   2.5135000e+01	  -2.9796706e-01	   2.1892171e-01	
   2.5190000e+01	  -2.8315817e-01	   2.2794954e-01	
   2.5245000e+01	  -2.6848777e-01	   2.3617264e-01	
   2.5300000e+01	  -2.5405447e-01	   2.4353657e-01	
   2.5355000e+01	  -2.3994508e-01	   2.5000045e-01	
   2.5410000e+01	  -2.2621687e-01	   2.5554853e-01	
   2.5465000e+01	  -2.1288746e-01	   2.6019942e-01	
   2.5520000e+01	  -1.9993324e-01	   2.6401103e-01	
   2.5575000e+01	  -1.8729436e-01	   2.6708032e-01	
   2.5630000e+01	  -1.7488439e-01	   2.6953758e-01	
   2.5685000e+01	  -1.6260422e-01	   2.7153556e-01	
   2.5740000e+01	  -1.5036006e-01	   2.7323457e-01	
   2.5795000e+01	  -1.3808305e-01	   2.7478582e-01	
   2.5850000e+01	  -1.2574611e-01	   2.7631590e-01	
   2.5905000e+01	  -1.1337341e-01	   2.7791490e-01	
   2.5960000e+01	  -1.0103907e-01	   2.7963067e-01	
   2.6015000e+01	  -8.8853708e-02	   2.8147123e-01	
   2.6070000e+01	  -7.6941791e-02	   2.8341468e-01	
   2.6125000e+01	  -6.5416425e-02	   2.8542308e-01	
   2.6180000e+01	  -5.4358761e-02	   2.8745631e-01	
   2.6235000e+01	  -4.3806162e-02	   2.8948265e-01	
   2.6290000e+01	  -3.3750025e-02	   2.9148452e-01	
   2.6345000e+01	  -2.4142021e-02	   2.9345954e-01	
   2.6400000e+01	  -1.4906310e-02	   2.9541793e-01	
   2.6455000e+01	  -5.9552299e-03	   2.9737785e-01	
   2.6510000e+01	   2.7931134e-03	   2.9935903e-01	
   2.6565000e+01	   1.1396758e-02	   3.0137506e-01	
   2.6620000e+01	   1.9874703e-02	   3.0342578e-01	
   2.6675000e+01	   2.8199718e-02	   3.0549288e-01	
   2.6730000e+01	   3.6302407e-02	   3.0754026e-01	
   2.6785000e+01	   4.4085531e-02	   3.0951894e-01	
   2.6840000e+01	   5.1444230e-02	   3.1137471e-01	
   2.6895000e+01	   5.8286201e-02	   3.1305659e-01	
   2.6950000e+01	   6.4546268e-02	   3.1452375e-01	
   2.7005000e+01	   7.0192702e-02	   3.1574914e-01	
   2.7060000e+01	   7.5226276e-02	   3.1671996e-01	
   2.7115000e+01	   7.9673947e-02	   3.1743555e-01	
   2.7170000e+01	   8.3578267e-02	   3.1790328e-01	
   2.7225000e+01	   8.6984355e-02	   3.1813274e-01	
   2.7280000e+01	   8.9927873e-02	   3.1812923e-01	
   2.7335000e+01	   9.2426666e-02	   3.1788752e-01	
   2.7390000e+01	   9.4476882e-02	   3.1738755e-01	
   2.7445000e+01	   9.6054541e-02	   3.1659404e-01	
   2.7500000e+01	   9.7123635e-02	   3.1546181e-01	
   2.7555000e+01	   9.7649076e-02	   3.1394530e-01	
   2.7610000e+01	   9.7610022e-02	   3.1200924e-01	
   2.7665000e+01	   9.7009850e-02	   3.0963742e-01	
   2.7720000e+01	   9.5881209e-02	   3.0683788e-01	
   2.7775000e+01	   9.4285201e-02	   3.0364400e-01	
   2.7830000e+01	   9.2304010e-02	   3.0011087e-01	
   2.7885000e+01	   9.0028466e-02	   2.9630768e-01	
   2.7940000e+01	   8.7543929e-02	   2.9230748e-01	
   2.7995000e+01	   8.4917005e-02	   2.8817587e-01	
   2.8050000e+01	   8.2184074e-02	   2.8396020e-01	
   2.8105000e+01	   7.9343230e-02	   2.7968102e-01	
   2.8160000e+01	   7.6352814e-02	   2.7532844e-01	
   2.8215000e+01	   7.3139090e-02	   2.7086532e-01	
   2.8270000e+01	   6.9612286e-02	   2.6623693e-01	
   2.8325000e+01	   6.5686634e-02	   2.6138414e-01	
   2.8380000e+01	   6.1299003e-02	   2.5625654e-01	
   2.8435000e+01	   5.6421965e-02	   2.5082215e-01	
   2.8490000e+01	   5.1069253e-02	   2.4507211e-01	
   2.8545000e+01	   4.5293554e-02	   2.3902039e-01	
   2.8600000e+01	   3.9178116e-02	   2.3269976e-01	
   2.8655000e+01	   3.2824473e-02	   2.2615514e-01	
   2.8710000e+01	   2.6338948e-02	   2.1943621e-01	
   2.8765000e+01	   1.9820457e-02	   2.1259125e-01	
   2.8820000e+01	   1.3351402e-02	   2.0566380e-01	
   2.8875000e+01	   6.9930824e-03	   1.9869187e-01	
   2.8930000e+01	   7.8702019e-04	   1.9170948e-01	
   2.8985000e+01	  -5.2378152e-03	   1.8475031e-01	
   2.9040000e+01	  -1.1054544e-02	   1.7785231e-01	
   2.9095000e+01	  -1.6628687e-02	   1.7106129e-01	
   2.9150000e+01	  -2.1912373e-02	   1.6443159e-01	
   2.9205000e+01	  -2.6843880e-02	   1.5802351e-01	
   2.9260000e+01	  -3.1352470e-02	   1.5189763e-01	
   2.9315000e+01	  -3.5367207e-02	   1.4610688e-01	
   2.9370000e+01	  -3.8827170e-02	   1.4068801e-01	
   2.9425000e+01	  -4.1689869e-02	   1.3565480e-01	
   2.9480000e+01	  -4.3935593e-02	   1.3099435e-01	
   2.9535000e+01	  -4.5566861e-02	   1.2666733e-01	
   2.9590000e+01	  -4.6602856e-02	   1.2261271e-01	
   2.9645000e+01	  -4.7069527e-02	   1.1875684e-01	
   2.9700000e+01	  -4.6988000e-02	   1.1502465e-01	
   2.9755000e+01	  -4.6365604e-02	   1.1134987e-01	
   2.9810000e+01	  -4.5192530e-02	   1.0768182e-01	
   2.9865000e+01	  -4.3443944e-02	   1.0398764e-01	
   2.9920000e+01	  -4.1085870e-02	   1.0024993e-01	
   2.9975000e+01	  -3.8084254e-02	   9.6460484e-02	
   3.0030000e+01	  -3.4416781e-02	   9.2611797e-02	
   3.0085000e+01	  -3.0084994e-02	   8.8689156e-02	
   3.0140000e+01	  -2.5122835e-02	   8.4665521e-02	
   3.0195000e+01	  -1.9598303e-02	   8.0500878e-02	
   3.0250000e+01	  -1.3606576e-02	   7.6146724e-02	
   3.0305000e+01	  -7.2557891e-03	   7.1554827e-02	
   3.0360000e+01	  -6.5031778e-04	   6.6687372e-02	
   3.0415000e+01	   6.1224618e-03	   6.1525335e-02	
   3.0470000e+01	   1.2998779e-02	   5.6073802e-02	
   3.0525000e+01	   1.9938903e-02	   5.0364423e-02	
   3.0580000e+01	   2.6923163e-02	   4.4454833e-02	
   3.0635000e+01	   3.3945200e-02	   3.8424633e-02	
   3.0690000e+01	   4.1004277e-02	   3.2368257e-02	
   3.0745000e+01	   4.8098178e-02	   2.6385647e-02	
   3.0800000e+01	   5.5217168e-02	   2.0571573e-02	
   3.0855000e+01	   6.2339391e-02	   1.5005083e-02	
   3.0910000e+01	   6.9429578e-02	   9.7418866e-03	
   3.0965000e+01	   7.6443393e-02	   4.8123505e-03	
   3.1020000e+01	   8.3337693e-02	   2.2510645e-04	
   3.1075000e+01	   9.0083671e-02	  -4.0264179e-03	
   3.1130000e+01	   9.6678172e-02	  -7.9571149e-03	
   3.1185000e+01	   1.0314921e-01	  -1.1584215e-02	
   3.1240000e+01	   1.0955373e-01	  -1.4923230e-02	
   3.1295000e+01	   1.1596805e-01	  -1.7986720e-02	
   3.1350000e+01	   1.2247345e-01	  -2.0785774e-02	
   3.1405000e+01	   1.2913986e-01	  -2.3333585e-02	
   3.1460000e+01	   1.3600968e-01	  -2.5650839e-02	
   3.1515000e+01	   1.4308321e-01	  -2.7772314e-02	
   3.1570000e+01	   1.5030854e-01	  -2.9752684e-02	
   3.1625000e+01	   1.5757820e-01	  -3.1668908e-02	
   3.1680000e+01	   1.6473415e-01	  -3.3617680e-02	
   3.1735000e+01	   1.7158204e-01	  -3.5707740e-02	
   3.1790000e+01	   1.7791404e-01	  -3.8048078e-02	
   3.1845000e+01	   1.8353598e-01	  -4.0734616e-02	
   3.1900000e+01	   1.8829261e-01	  -4.3838863e-02	
   3.1955000e+01	   1.9208612e-01	  -4.7401013e-02	
   3.2010000e+01	   1.9488602e-01	  -5.1427635e-02	
   3.2065000e+01	   1.9673008e-01	  -5.5893122e-02	
   3.2120000e+01	   1.9771700e-01	  -6.0744565e-02	
   3.2175000e+01	   1.9799205e-01	  -6.5909815e-02	
   3.2230000e+01	   1.9772851e-01	  -7.1307808e-02	
   3.2285000e+01	   1.9710745e-01	  -7.6859856e-02	
   3.2340000e+01	   1.9629818e-01	  -8.2500379e-02	
   3.2395000e+01	   1.9544279e-01	  -8.8184807e-02	
   3.2450000e+01	   1.9464870e-01	  -9.3892075e-02	
   3.2505000e+01	   1.9399118e-01	  -9.9620687e-02	
   3.2560000e+01	   1.9352353e-01	  -1.0537998e-01	
   3.2615000e+01	   1.9329017e-01	  -1.1117964e-01	
   3.2670000e+01	   1.9333826e-01	  -1.1702005e-01	
   3.2725000e+01	   1.9372481e-01	  -1.2288535e-01	
   3.2780000e+01	   1.9451776e-01	  -1.2874014e-01	
   3.2835000e+01	   1.9579080e-01	  -1.3452995e-01	
   3.2890000e+01	   1.9761384e-01	  -1.4018489e-01	
   3.2945000e+01	   2.0004127e-01	  -1.4562626e-01	
   3.3000000e+01	   2.0309973e-01	  -1.5077621e-01	
   3.3055000e+01	   2.0677725e-01	  -1.5556947e-01	
   3.3110000e+01	   2.1101730e-01	  -1.5996460e-01	
   3.3165000e+01	   2.1572003e-01	  -1.6395156e-01	
   3.3220000e+01	   2.2075125e-01	  -1.6755344e-01	
   3.3275000e+01	   2.2595807e-01	  -1.7082151e-01	
   3.3330000e+01	   2.3118807e-01	  -1.7382527e-01	
   3.3385000e+01	   2.3630728e-01	  -1.7664140e-01	
   3.3440000e+01	   2.4121220e-01	  -1.7934464e-01	
   3.3495000e+01	   2.4583380e-01	  -1.8200153e-01	
   3.3550000e+01	   2.5013419e-01	  -1.8466660e-01	
   3.3605000e+01	   2.5409739e-01	  -1.8738097e-01	
   3.3660000e+01	   2.5771591e-01	  -1.9017443e-01	
   3.3715000e+01	   2.6097474e-01	  -1.9307043e-01	
   3.3770000e+01	   2.6383561e-01	  -1.9609276e-01	
   3.3825000e+01	   2.6622435e-01	  -1.9927171e-01	
   3.3880000e+01	   2.6802492e-01	  -2.0264768e-01	
   3.3935000e+01	   2.6908303e-01	  -2.0627081e-01	
   3.3990000e+01	   2.6922033e-01	  -2.1019630e-01	
   3.4045000e+01	   2.6825560e-01	  -2.1447735e-01	
   3.4100000e+01	   2.6602614e-01	  -2.1915813e-01	
   3.4155000e+01	   2.6240331e-01	  -2.2426898e-01	
   3.4210000e+01	   2.5730008e-01	  -2.2982475e-01	
   3.4265000e+01	   2.5067117e-01	  -2.3582631e-01	
   3.4320000e+01	   2.4250720e-01	  -2.4226546e-01	
   3.4375000e+01	   2.3282466e-01	  -2.4913141e-01	
   3.4430000e+01	   2.2165498e-01	  -2.5641744e-01	
   3.4485000e+01	   2.0903606e-01	  -2.6412577e-01	
   3.4540000e+01	   1.9500882e-01	  -2.7226941e-01	
   3.4595000e+01	   1.7962071e-01	  -2.8086965e-01	
   3.4650000e+01	   1.6293602e-01	  -2.8994883e-01	
   3.4705000e+01	   1.4504936e-01	  -2.9952051e-01	
   3.4760000e+01	   1.2609682e-01	  -3.0957988e-01	
   3.4815000e+01	   1.0626191e-01	  -3.2009627e-01	
   3.4870000e+01	   8.5775448e-02	  -3.3100859e-01	
   3.4925000e+01	   6.4909840e-02	  -3.4222386e-01	
   3.4980000e+01	   4.3967623e-02	  -3.5361925e-01	
   3.5035000e+01	   2.3265236e-02	  -3.6504755e-01	
   3.5090000e+01	   3.1141279e-03	  -3.7634541e-01	
   3.5145000e+01	  -1.6197400e-02	  -3.8734282e-01	
   3.5200000e+01	  -3.4417747e-02	  -3.9787140e-01	
   3.5255000e+01	  -5.1337817e-02	  -4.0776916e-01	
   3.5310000e+01	  -6.6788757e-02	  -4.1688136e-01	
   3.5365000e+01	  -8.0634833e-02	  -4.2505956e-01	
   3.5420000e+01	  -9.2765738e-02	  -4.3216130e-01	
   3.5475000e+01	  -1.0309113e-01	  -4.3805092e-01	
   3.5530000e+01	  -1.1153839e-01	  -4.4260183e-01	
   3.5585000e+01	  -1.1805360e-01	  -4.4570102e-01	
   3.5640000e+01	  -1.2260511e-01	  -4.4725516e-01	
   3.5695000e+01	  -1.2518777e-01	  -4.4719622e-01	
   3.5750000e+01	  -1.2582479e-01	  -4.4548416e-01	
   3.5805000e+01	  -1.2456461e-01	  -4.4210606e-01	
   3.5860000e+01	  -1.2147254e-01	  -4.3707243e-01	
   3.5915000e+01	  -1.1661956e-01	  -4.3041158e-01	
   3.5970000e+01	  -1.1007217e-01	  -4.2216354e-01	
   3.6025000e+01	  -1.0188669e-01	  -4.1237516e-01	
   3.6080000e+01	  -9.2109213e-02	  -4.0109726e-01	
   3.6135000e+01	  -8.0780313e-02	  -3.8838335e-01	
   3.6190000e+01	  -6.7942803e-02	  -3.7428964e-01	
   3.6245000e+01	  -5.3650860e-02	  -3.5887665e-01	
   3.6300000e+01	  -3.7977971e-02	  -3.4221175e-01	
   3.6355000e+01	  -2.1020890e-02	  -3.2437103e-01	
   3.6410000e+01	  -2.8977264e-03	  -3.0543940e-01	
   3.6465000e+01	   1.6260273e-02	  -2.8550831e-01	
   3.6520000e+01	   3.6321611e-02	  -2.6467131e-01	
   3.6575000e+01	   5.7167971e-02	  -2.4301820e-01	
   3.6630000e+01	   7.8703239e-02	  -2.2062992e-01	
   3.6685000e+01	   1.0085549e-01	  -1.9757622e-01	
   3.6740000e+01	   1.2357279e-01	  -1.7391705e-01	
   3.6795000e+01	   1.4681483e-01	  -1.4970757e-01	
   3.6850000e+01	   1.7054171e-01	  -1.2500603e-01	
   3.6905000e+01	   1.9470163e-01	  -9.9882406e-02	
   3.6960000e+01	   2.1922079e-01	  -7.4425165e-02	
   3.7015000e+01	   2.4399960e-01	  -4.8744234e-02	
   3.7070000e+01	   2.6891667e-01	  -2.2969588e-02	
   3.7125000e+01	   2.9383793e-01	   2.7532799e-03	
   3.7180000e+01	   3.1862642e-01	   2.8269483e-02	
   3.7235000e+01	   3.4314973e-01	   5.3421263e-02	
   3.7290000e+01	   3.6728393e-01	   7.8053753e-02	
   3.7345000e+01	   3.9091360e-01	   1.0201878e-01	
   3.7400000e+01	   4.1392844e-01	   1.2517598e-01	
   3.7455000e+01	   4.3621773e-01	   1.4739172e-01	
   3.7510000e+01	   4.5766541e-01	   1.6853689e-01	
   3.7565000e+01	   4.7814760e-01	   1.8848523e-01	
   3.7620000e+01	   4.9753467e-01	   2.0711402e-01	
   3.7675000e+01	   5.1569914e-01	   2.2430827e-01	
   3.7730000e+01	   5.3252810e-01	   2.3996858e-01	
   3.7785000e+01	   5.4793659e-01	   2.5402043e-01	
   3.7840000e+01	   5.6187873e-01	   2.6642229e-01	
   3.7895000e+01	   5.7435450e-01	   2.7717067e-01	
   3.7950000e+01	   5.8541069e-01	   2.8630020e-01	
   3.8005000e+01	   5.9513450e-01	   2.9387850e-01	
   3.8060000e+01	   6.0364107e-01	   2.9999705e-01	
   3.8115000e+01	   6.1105817e-01	   3.0476064e-01	
   3.8170000e+01	   6.1751141e-01	   3.0827684e-01	
   3.8225000e+01	   6.2311098e-01	   3.1064666e-01	
   3.8280000e+01	   6.2794089e-01	   3.1195757e-01	
   3.8335000e+01	   6.3205271e-01	   3.1228081e-01	
   3.8390000e+01	   6.3546619e-01	   3.1167385e-01	
   3.8445000e+01	   6.3817682e-01	   3.1018707e-01	
   3.8500000e+01	   6.4016835e-01	   3.0787347e-01	
   3.8555000e+01	   6.4142639e-01	   3.0479890e-01	
   3.8610000e+01	   6.4194931e-01	   3.0104971e-01	
   3.8665000e+01	   6.4175344e-01	   2.9673481e-01	
   3.8720000e+01	   6.4087158e-01	   2.9198180e-01	
   3.8775000e+01	   6.3934584e-01	   2.8692864e-01	
   3.8830000e+01	   6.3721652e-01	   2.8171246e-01	
   3.8885000e+01	   6.3450898e-01	   2.7645706e-01	
   3.8940000e+01	   6.3122073e-01	   2.7126064e-01	
   3.8995000e+01	   6.2731141e-01	   2.6618575e-01	
   3.9050000e+01	   6.2269813e-01	   2.6125358e-01	
   3.9105000e+01	   6.1725856e-01	   2.5644394e-01	
   3.9160000e+01	   6.1084364e-01	   2.5170257e-01	
   3.9215000e+01	   6.0329899e-01	   2.4695486e-01	
   3.9270000e+01	   5.9448976e-01	   2.4212256e-01	
   3.9325000e+01	   5.8432188e-01	   2.3713872e-01	
   3.9380000e+01	   5.7275539e-01	   2.3195825e-01	
   3.9435000e+01	   5.5980876e-01	   2.2656369e-01	
   3.9490000e+01	   5.4555537e-01	   2.2096630e-01	
   3.9545000e+01	   5.3011389e-01	   2.1520287e-01	
   3.9600000e+01	   5.1363451e-01	   2.0932921e-01	
   3.9655000e+01	   4.9628256e-01	   2.0341147e-01	
   3.9710000e+01	   4.7822113e-01	   1.9751688e-01	
   3.9765000e+01	   4.5959501e-01	   1.9170508e-01	
   3.9820000e+01	   4.4051946e-01	   1.8602180e-01	
   3.9875000e+01	   4.2107702e-01	   1.8049634e-01	
   3.9930000e+01	   4.0132352e-01	   1.7514385e-01	
   3.9985000e+01	   3.8130087e-01	   1.6997088e-01	
   4.0040000e+01	   3.6105238e-01	   1.6498175e-01	
   4.0095000e+01	   3.4063637e-01	   1.6018345e-01	
   4.0150000e+01	   3.2013495e-01	   1.5558738e-01	
   4.0205000e+01	   2.9965587e-01	   1.5120757e-01	
   4.0260000e+01	   2.7932755e-01	   1.4705613e-01	
   4.0315000e+01	   2.5928909e-01	   1.4313738e-01	
   4.0370000e+01	   2.3967754e-01	   1.3944159e-01	
   4.0425000e+01	   2.2061439e-01	   1.3593880e-01	
   4.0480000e+01	   2.0219304e-01	   1.3257406e-01	
   4.0535000e+01	   1.8446949e-01	   1.2926541e-01	
   4.0590000e+01	   1.6745881e-01	   1.2590672e-01	
   4.0645000e+01	   1.5113979e-01	   1.2237635e-01	
   4.0700000e+01	   1.3546663e-01	   1.1855099e-01	
   4.0755000e+01	   1.2038313e-01	   1.1432142e-01	
   4.0810000e+01	   1.0583442e-01	   1.0960653e-01	
   4.0865000e+01	   9.1774103e-02	   1.0436303e-01	
   4.0920000e+01	   7.8166771e-02	   9.8590163e-02	
   4.0975000e+01	   6.4986500e-02	   9.2329191e-02	
   4.1030000e+01	   5.2212337e-02	   8.5658557e-02	
   4.1085000e+01	   3.9822157e-02	   7.8686122e-02	
   4.1140000e+01	   2.7787325e-02	   7.1540680e-02	
   4.1195000e+01	   1.6071159e-02	   6.4365115e-02	
   4.1250000e+01	   4.6334800e-03	   5.7312638e-02	
   4.1305000e+01	  -6.5588097e-03	   5.0546105e-02	
   4.1360000e+01	  -1.7518164e-02	   4.4238972e-02	
   4.1415000e+01	  -2.8224689e-02	   3.8575236e-02	
   4.1470000e+01	  -3.8620490e-02	   3.3745680e-02	
   4.1525000e+01	  -4.8611913e-02	   2.9939653e-02	
   4.1580000e+01	  -5.8079007e-02	   2.7333836e-02	
   4.1635000e+01	  -6.6890158e-02	   2.6080121e-02	
   4.1690000e+01	  -7.4919444e-02	   2.6294039e-02	
   4.1745000e+01	  -8.2063463e-02	   2.8045081e-02	
   4.1800000e+01	  -8.8253330e-02	   3.1350943e-02	
   4.1855000e+01	  -9.3458394e-02	   3.6177399e-02	
   4.1910000e+01	  -9.7681054e-02	   4.2444194e-02	
   4.1965000e+01	  -1.0094474e-01	   5.0036006e-02	
   4.2020000e+01	  -1.0327915e-01	   5.8816419e-02	
   4.2075000e+01	  -1.0470750e-01	   6.8641789e-02	
   4.2130000e+01	  -1.0523925e-01	   7.9372082e-02	
   4.2185000e+01	  -1.0486874e-01	   9.0877320e-02	
   4.2240000e+01	  -1.0357892e-01	   1.0303985e-01	
   4.2295000e+01	  -1.0134913e-01	   1.1575316e-01	
   4.2350000e+01	  -9.8166019e-02	   1.2891765e-01	
   4.2405000e+01	  -9.4036517e-02	   1.4243431e-01	
   4.2460000e+01	  -8.9000346e-02	   1.5619800e-01	
   4.2515000e+01	  -8.3138334e-02	   1.7009333e-01	
   4.2570000e+01	  -7.6573006e-02	   1.8399472e-01	
   4.2625000e+01	  -6.9460486e-02	   1.9777085e-01	
   4.2680000e+01	  -6.1975707e-02	   2.1129220e-01	
   4.2735000e+01	  -5.4294800e-02	   2.2443994e-01	
   4.2790000e+01	  -4.6579385e-02	   2.3711393e-01	
   4.2845000e+01	  -3.8967092e-02	   2.4923743e-01	
   4.2900000e+01	  -3.1569944e-02	   2.6075783e-01	
   4.2955000e+01	  -2.4478872e-02	   2.7164399e-01	
   4.3010000e+01	  -1.7771748e-02	   2.8188114e-01	
   4.3065000e+01	  -1.1523206e-02	   2.9146420e-01	
   4.3120000e+01	  -5.8141670e-03	   3.0039051e-01	
   4.3175000e+01	  -7.3776527e-04	   3.0865383e-01	
   4.3230000e+01	   3.6011248e-03	   3.1624162e-01	
   4.3285000e+01	   7.0936232e-03	   3.2313659e-01	
   4.3340000e+01	   9.6407704e-03	   3.2932239e-01	
   4.3395000e+01	   1.1170296e-02	   3.3479151e-01	
   4.3450000e+01	   1.1650910e-02	   3.3955244e-01	
   4.3505000e+01	   1.1099547e-02	   3.4363343e-01	
   4.3560000e+01	   9.5803667e-03	   3.4708257e-01	
   4.3615000e+01	   7.1967234e-03	   3.4996466e-01	
   4.3670000e+01	   4.0775482e-03	   3.5235538e-01	
   4.3725000e+01	   3.5991133e-04	   3.5433317e-01	
   4.3780000e+01	  -3.8290555e-03	   3.5597015e-01	
   4.3835000e+01	  -8.3868055e-03	   3.5732464e-01	
   4.3890000e+01	  -1.3243068e-02	   3.5843740e-01	
   4.3945000e+01	  -1.8358915e-02	   3.5933252e-01	
   4.4000000e+01	  -2.3718271e-02	   3.6002189e-01	
   4.4055000e+01	  -2.9315311e-02	   3.6051138e-01	
   4.4110000e+01	  -3.5141415e-02	   3.6080674e-01	
   4.4165000e+01	  -4.1174232e-02	   3.6091749e-01	
   4.4220000e+01	  -4.7370684e-02	   3.6085797e-01	
   4.4275000e+01	  -5.3665795e-02	   3.6064526e-01	
   4.4330000e+01	  -5.9978054e-02	   3.6029433e-01	
   4.4385000e+01	  -6.6219811e-02	   3.5981135e-01	
   4.4440000e+01	  -7.2309696e-02	   3.5918661e-01	
   4.4495000e+01	  -7.8184216e-02	   3.5838871e-01	
   4.4550000e+01	  -8.3806673e-02	   3.5736134e-01	
   4.4605000e+01	  -8.9171904e-02	   3.5602394e-01	
   4.4660000e+01	  -9.4305299e-02	   3.5427730e-01	
   4.4715000e+01	  -9.9256029e-02	   3.5201429e-01	
   4.4770000e+01	  -1.0408714e-01	   3.4913358e-01	
   4.4825000e+01	  -1.0886611e-01	   3.4555250e-01	
   4.4880000e+01	  -1.1365742e-01	   3.4121734e-01	
   4.4935000e+01	  -1.1851654e-01	   3.3611032e-01	
   4.4990000e+01	  -1.2348579e-01	   3.3025298e-01	
   4.5045000e+01	  -1.2859318e-01	   3.2370499e-01	
   4.5100000e+01	  -1.3385484e-01	   3.1655863e-01	
   4.5155000e+01	  -1.3927916e-01	   3.0893068e-01	
   4.5210000e+01	  -1.4487076e-01	   3.0095324e-01	
   4.5265000e+01	  -1.5063213e-01	   2.9276533e-01	
   4.5320000e+01	  -1.5656096e-01	   2.8450690e-01	
   4.5375000e+01	  -1.6264268e-01	   2.7631659e-01	
   4.5430000e+01	  -1.6884090e-01	   2.6833155e-01	
   4.5485000e+01	  -1.7509049e-01	   2.6068675e-01	
   4.5540000e+01	  -1.8129541e-01	   2.5351258e-01	
   4.5595000e+01	  -1.8733088e-01	   2.4693147e-01	
   4.5650000e+01	  -1.9304882e-01	   2.4105448e-01	
   4.5705000e+01	  -1.9828667e-01	   2.3597762e-01	
   4.5760000e+01	  -2.0287902e-01	   2.3177799e-01	
   4.5815000e+01	  -2.0667011e-01	   2.2851059e-01	
   4.5870000e+01	  -2.0952500e-01	   2.2620629e-01	
   4.5925000e+01	  -2.1133697e-01	   2.2487140e-01	
   4.5980000e+01	  -2.1202793e-01	   2.2449023e-01	
   4.6035000e+01	  -2.1154126e-01	   2.2503111e-01	
   4.6090000e+01	  -2.0983046e-01	   2.2645416e-01	
   4.6145000e+01	  -2.0684934e-01	   2.2871765e-01	
   4.6200000e+01	  -2.0254729e-01	   2.3178105e-01	
   4.6255000e+01	  -1.9687020e-01	   2.3560420e-01	
   4.6310000e+01	  -1.8976683e-01	   2.4014310e-01	
   4.6365000e+01	  -1.8119898e-01	   2.4534355e-01	
   4.6420000e+01	  -1.7115358e-01	   2.5113483e-01	
   4.6475000e+01	  -1.5965434e-01	   2.5742486e-01	
   4.6530000e+01	  -1.4677104e-01	   2.6409804e-01	
   4.6585000e+01	  -1.3262387e-01	   2.7101558e-01	
   4.6640000e+01	  -1.1738012e-01	   2.7801995e-01	
   4.6695000e+01	  -1.0124218e-01	   2.8494418e-01	
   4.6750000e+01	  -8.4428951e-02	   2.9162471e-01	
   4.6805000e+01	  -6.7156141e-02	   2.9791396e-01	
   4.6860000e+01	  -4.9619637e-02	   3.0368957e-01	
   4.6915000e+01	  -3.1984178e-02	   3.0885957e-01	
   4.6970000e+01	  -1.4378516e-02	   3.1336321e-01	
   4.7025000e+01	   3.1013876e-03	   3.1716732e-01	
   4.7080000e+01	   2.0381403e-02	   3.2025848e-01	
   4.7135000e+01	   3.7394083e-02	   3.2263364e-01	
   4.7190000e+01	   5.4064274e-02	   3.2429188e-01	
   4.7245000e+01	   7.0299227e-02	   3.2522917e-01	
   4.7300000e+01	   8.5985472e-02	   3.2543721e-01	
   4.7355000e+01	   1.0099384e-01	   3.2490754e-01	
   4.7410000e+01	   1.1519233e-01	   3.2364079e-01	
   4.7465000e+01	   1.2846367e-01	   3.2165803e-01	
   4.7520000e+01	   1.4072262e-01	   3.1900965e-01	
   4.7575000e+01	   1.5192849e-01	   3.1577908e-01	
   4.7630000e+01	   1.6209018e-01	   3.1208083e-01	
   4.7685000e+01	   1.7126299e-01	   3.0805339e-01	
   4.7740000e+01	   1.7953805e-01	   3.0384817e-01	
   4.7795000e+01	   1.8702620e-01	   2.9961600e-01	
   4.7850000e+01	   1.9383927e-01	   2.9549260e-01	
   4.7905000e+01	   2.0007138e-01	   2.9158464e-01	
   4.7960000e+01	   2.0578278e-01	   2.8795820e-01	
   4.8015000e+01	   2.1098881e-01	   2.8463218e-01	
   4.8070000e+01	   2.1565618e-01	   2.8157803e-01	
   4.8125000e+01	   2.1970800e-01	   2.7872565e-01	
   4.8180000e+01	   2.2303702e-01	   2.7597392e-01	
   4.8235000e+01	   2.2552422e-01	   2.7320378e-01	
   4.8290000e+01	   2.2705793e-01	   2.7029146e-01	
   4.8345000e+01	   2.2754942e-01	   2.6711961e-01	
   4.8400000e+01	   2.2694265e-01	   2.6358540e-01	
   4.8455000e+01	   2.2521844e-01	   2.5960562e-01	
   4.8510000e+01	   2.2239317e-01	   2.5511865e-01	
   4.8565000e+01	   2.1851246e-01	   2.5008297e-01	
   4.8620000e+01	   2.1364109e-01	   2.4447263e-01	
   4.8675000e+01	   2.0785124e-01	   2.3827105e-01	
   4.8730000e+01	   2.0121147e-01	   2.3146431e-01	
   4.8785000e+01	   1.9377816e-01	   2.2403546e-01	
   4.8840000e+01	   1.8559183e-01	   2.1596139e-01	
   4.8895000e+01	   1.7668006e-01	   2.0721456e-01	
   4.8950000e+01	   1.6706647e-01	   1.9776987e-01	
   4.9005000e+01	   1.5678249e-01	   1.8761443e-01	
   4.9060000e+01	   1.4587743e-01	   1.7675638e-01	
   4.9115000e+01	   1.3442449e-01	   1.6523024e-01	
   4.9170000e+01	   1.2252174e-01	   1.5309758e-01	
   4.9225000e+01	   1.1028826e-01	   1.4044312e-01	
   4.9280000e+01	   9.7855763e-02	   1.2736700e-01	
   4.9335000e+01	   8.5356821e-02	   1.1397520e-01	
   4.9390000e+01	   7.2911683e-02	   1.0037007e-01	
   4.9445000e+01	   6.0615570e-02	   8.6642083e-02	
   4.9500000e+01	   4.8529004e-02	   7.2863741e-02	
   4.9555000e+01	   3.6674180e-02	   5.9087033e-02	
   4.9610000e+01	   2.5039184e-02	   4.5345855e-02	
   4.9665000e+01	   1.3589250e-02	   3.1663053e-02	
   4.9720000e+01	   2.2824289e-03	   1.8059858e-02	
   4.9775000e+01	  -8.9137327e-03	   4.5647790e-03	
   4.9830000e+01	  -2.0008320e-02	  -8.7806211e-03	
   4.9885000e+01	  -3.0979398e-02	  -2.1920366e-02	
   4.9940000e+01	  -4.1773771e-02	  -3.4786487e-02	
   4.9995000e+01	  -5.2312849e-02	  -4.7303370e-02	
   5.0050000e+01	  -6.2502244e-02	  -5.9392649e-02	
   5.0105000e+01	  -7.2242508e-02	  -7.0978152e-02	
   5.0160000e+01	  -8.1437848e-02	  -8.1990285e-02	
   5.0215000e+01	  -8.9999354e-02	  -9.2368337e-02	
   5.0270000e+01	  -9.7840512e-02	  -1.0205912e-01	
   5.0325000e+01	  -1.0486596e-01	  -1.1101192e-01	
   5.0380000e+01	  -1.1095763e-01	  -1.1917161e-01	
   5.0435000e+01	  -1.1596332e-01	  -1.2647282e-01	
   5.0490000e+01	  -1.1969155e-01	  -1.3283696e-01	
   5.0545000e+01	  -1.2191447e-01	  -1.3817308e-01	
   5.0600000e+01	  -1.2237906e-01	  -1.4238277e-01	
   5.0655000e+01	  -1.2082550e-01	  -1.4536854e-01	
   5.0710000e+01	  -1.1700981e-01	  -1.4704429e-01	
   5.0765000e+01	  -1.1072809e-01	  -1.4734644e-01	
   5.0820000e+01	  -1.0184003e-01	  -1.4624461e-01	
   5.0875000e+01	  -9.0288396e-02	  -1.4375002e-01	
   5.0930000e+01	  -7.6109525e-02	  -1.3991827e-01	
   5.0985000e+01	  -5.9430598e-02	  -1.3484463e-01	
   5.1040000e+01	  -4.0454551e-02	  -1.2865260e-01	
   5.1095000e+01	  -1.9437915e-02	  -1.2147925e-01	
   5.1150000e+01	   3.3325487e-03	  -1.1346098e-01	
   5.1205000e+01	   2.7560179e-02	  -1.0472322e-01	
   5.1260000e+01	   5.2953118e-02	  -9.5375657e-02	
   5.1315000e+01	   7.9232622e-02	  -8.5512636e-02	
   5.1370000e+01	   1.0613568e-01	  -7.5217133e-02	
   5.1425000e+01	   1.3341331e-01	  -6.4566787e-02	
   5.1480000e+01	   1.6082628e-01	  -5.3640344e-02	
   5.1535000e+01	   1.8814159e-01	  -4.2522527e-02	
   5.1590000e+01	   2.1513295e-01	  -3.1305466e-02	
   5.1645000e+01	   2.4158710e-01	  -2.0086067e-02	
   5.1700000e+01	   2.6731421e-01	  -8.9601605e-03	
   5.1755000e+01	   2.9215885e-01	   1.9849127e-03	
   5.1810000e+01	   3.1600813e-01	   1.2677437e-02	
   5.1865000e+01	   3.3879473e-01	   2.3066295e-02	
   5.1920000e+01	   3.6049369e-01	   3.3122212e-02	
   5.1975000e+01	   3.8111432e-01	   4.2834740e-02	
   5.2030000e+01	   4.0068959e-01	   5.2205759e-02	
   5.2085000e+01	   4.1926529e-01	   6.1241038e-02	
   5.2140000e+01	   4.3688987e-01	   6.9941589e-02	
   5.2195000e+01	   4.5360574e-01	   7.8296845e-02	
   5.2250000e+01	   4.6944352e-01	   8.6281714e-02	
   5.2305000e+01	   4.8442107e-01	   9.3858548e-02	
   5.2360000e+01	   4.9854852e-01	   1.0098348e-01	
   5.2415000e+01	   5.1183852e-01	   1.0761553e-01	
   5.2470000e+01	   5.2431837e-01	   1.1372643e-01	
   5.2525000e+01	   5.3603922e-01	   1.1930856e-01	
   5.2580000e+01	   5.4707885e-01	   1.2437859e-01	
   5.2635000e+01	   5.5753757e-01	   1.2897608e-01	
   5.2690000e+01	   5.6752868e-01	   1.3315782e-01	
   5.2745000e+01	   5.7716480e-01	   1.3698950e-01	
   5.2800000e+01	   5.8654157e-01	   1.4053590e-01	
   5.2855000e+01	   5.9572092e-01	   1.4385139e-01	
   5.2910000e+01	   6.0471676e-01	   1.4697211e-01	
   5.2965000e+01	   6.1348600e-01	   1.4991115e-01	
   5.3020000e+01	   6.2192808e-01	   1.5265730e-01	
   5.3075000e+01	   6.2989482e-01	   1.5517781e-01	
   5.3130000e+01	   6.3720860e-01	   1.5742478e-01	
   5.3185000e+01	   6.4368377e-01	   1.5934311e-01	
   5.3240000e+01	   6.4914676e-01	   1.6087821e-01	
   5.3295000e+01	   6.5345162e-01	   1.6198235e-01	
   5.3350000e+01	   6.5649004e-01	   1.6261944e-01	
   5.3405000e+01	   6.5819508e-01	   1.6276747e-01	
   5.3460000e+01	   6.5853850e-01	   1.6241756e-01	
   5.3515000e+01	   6.5752310e-01	   1.6156999e-01	
   5.3570000e+01	   6.5517286e-01	   1.6022929e-01	
   5.3625000e+01	   6.5152412e-01	   1.5840013e-01	
   5.3680000e+01	   6.4661976e-01	   1.5608517e-01	
   5.3735000e+01	   6.4050839e-01	   1.5328560e-01	
   5.3790000e+01	   6.3324924e-01	   1.5000542e-01	
   5.3845000e+01	   6.2492052e-01	   1.4625789e-01	
   5.3900000e+01	   6.1562736e-01	   1.4207134e-01	
   5.3955000e+01	   6.0550623e-01	   1.3749256e-01	
   5.4010000e+01	   5.9472532e-01	   1.3258768e-01	
   5.4065000e+01	   5.8348110e-01	   1.2744042e-01	
   5.4120000e+01	   5.7199076e-01	   1.2214715e-01	
   5.4175000e+01	   5.6048158e-01	   1.1680961e-01	
   5.4230000e+01	   5.4917955e-01	   1.1152742e-01	
   5.4285000e+01	   5.3830049e-01	   1.0639286e-01	
   5.4340000e+01	   5.2804534e-01	   1.0148896e-01	
   5.4395000e+01	   5.1860082e-01	   9.6890888e-02	
   5.4450000e+01	   5.1014436e-01	   9.2669771e-02	
   5.4505000e+01	   5.0285108e-01	   8.8896515e-02	
   5.4560000e+01	   4.9689891e-01	   8.5643564e-02	
   5.4615000e+01	   4.9246962e-01	   8.2983948e-02	
   5.4670000e+01	   4.8974457e-01	   8.0988443e-02	
   5.4725000e+01	   4.8889577e-01	   7.9721499e-02	
   5.4780000e+01	   4.9007312e-01	   7.9235837e-02	
   5.4835000e+01	   4.9338994e-01	   7.9566131e-02	
   5.4890000e+01	   4.9890984e-01	   8.0723255e-02	
   5.4945000e+01	   5.0663829e-01	   8.2690780e-02	
   5.5000000e+01	   5.1652125e-01	   8.5425010e-02	
   5.5055000e+01	   5.2845161e-01	   8.8859509e-02	
   5.5110000e+01	   5.4228154e-01	   9.2913955e-02	
   5.5165000e+01	   5.5783709e-01	   9.7505135e-02	
   5.5220000e+01	   5.7493032e-01	   1.0255662e-01	
   5.5275000e+01	   5.9336643e-01	   1.0800464e-01	
   5.5330000e+01	   6.1294581e-01	   1.1379970e-01	
   5.5385000e+01	   6.3346208e-01	   1.1990482e-01	
   5.5440000e+01	   6.5469815e-01	   1.2629110e-01	
   5.5495000e+01	   6.7642145e-01	   1.3293151e-01	
   5.5550000e+01	   6.9838056e-01	   1.3979428e-01	
   5.5605000e+01	   7.2030573e-01	   1.4683843e-01	
   5.5660000e+01	   7.4191599e-01	   1.5401337e-01	
   5.5715000e+01	   7.6293318e-01	   1.6126252e-01	
   5.5770000e+01	   7.8310012e-01	   1.6852963e-01	
   5.5825000e+01	   8.0219856e-01	   1.7576535e-01	
   5.5880000e+01	   8.2006310e-01	   1.8293209e-01	
   5.5935000e+01	   8.3658870e-01	   1.9000594e-01	
   5.5990000e+01	   8.5173097e-01	   1.9697520e-01	
   5.6045000e+01	   8.6549872e-01	   2.0383544e-01	
   5.6100000e+01	   8.7794022e-01	   2.1058129e-01	
   5.6155000e+01	   8.8912613e-01	   2.1719642e-01	
   5.6210000e+01	   8.9913327e-01	   2.2364470e-01	
   5.6265000e+01	   9.0803191e-01	   2.2986498e-01	
   5.6320000e+01	   9.1587751e-01	   2.3577040e-01	
   5.6375000e+01	   9.2270794e-01	   2.4125292e-01	
   5.6430000e+01	   9.2854696e-01	   2.4619239e-01	
   5.6485000e+01	   9.3341249e-01	   2.5046797e-01	
   5.6540000e+01	   9.3732545e-01	   2.5396820e-01	
   5.6595000e+01	   9.4031512e-01	   2.5659781e-01	
   5.6650000e+01	   9.4241959e-01	   2.5828112e-01	
   5.6705000e+01	   9.4368225e-01	   2.5896310e-01	
   5.6760000e+01	   9.4414484e-01	   2.5860789e-01	
   5.6815000e+01	   9.4383695e-01	   2.5719506e-01	
   5.6870000e+01	   9.4276336e-01	   2.5471510e-01	
   5.6925000e+01	   9.4089302e-01	   2.5116592e-01	
   5.6980000e+01	   9.3815342e-01	   2.4655114e-01	
   5.7035000e+01	   9.3443254e-01	   2.4087993e-01	
   5.7090000e+01	   9.2959027e-01	   2.3416967e-01	
   5.7145000e+01	   9.2347797e-01	   2.2645183e-01	
   5.7200000e+01	   9.1596171e-01	   2.1777936e-01	
   5.7255000e+01	   9.0694305e-01	   2.0823221e-01	
   5.7310000e+01	   8.9637287e-01	   1.9791916e-01	
   5.7365000e+01	   8.8425663e-01	   1.8697517e-01	
   5.7420000e+01	   8.7065054e-01	   1.7555461e-01	
   5.7475000e+01	   8.5564974e-01	   1.6382100e-01	
   5.7530000e+01	   8.3937151e-01	   1.5193519e-01	
   5.7585000e+01	   8.2193764e-01	   1.4004390e-01	
   5.7640000e+01	   8.0345989e-01	   1.2827043e-01	
   5.7695000e+01	   7.8403097e-01	   1.1670909e-01	
   5.7750000e+01	   7.6372327e-01	   1.0542474e-01	
   5.7805000e+01	   7.4259609e-01	   9.4457897e-02	
   5.7860000e+01	   7.2070824e-01	   8.3834225e-02	
   5.7915000e+01	   6.9813052e-01	   7.3575146e-02	
   5.7970000e+01	   6.7495409e-01	   6.3706412e-02	
   5.8025000e+01	   6.5129348e-01	   5.4262792e-02	
   5.8080000e+01	   6.2728433e-01	   4.5288336e-02	
   5.8135000e+01	   6.0307624e-01	   3.6832562e-02	
   5.8190000e+01	   5.7882292e-01	   2.8944099e-02	
   5.8245000e+01	   5.5467250e-01	   2.1664439e-02	
   5.8300000e+01	   5.3076091e-01	   1.5024054e-02	
   5.8355000e+01	   5.0720968e-01	   9.0414455e-03	
   5.8410000e+01	   4.8412900e-01	   3.7246632e-03	
   5.8465000e+01	   4.6162522e-01	  -9.2536662e-04	
   5.8520000e+01	   4.3980976e-01	  -4.9109458e-03	
   5.8575000e+01	   4.1880505e-01	  -8.2350743e-03	
   5.8630000e+01	   3.9874491e-01	  -1.0901557e-02	
   5.8685000e+01	   3.7976927e-01	  -1.2917609e-02	
   5.8740000e+01	   3.6201452e-01	  -1.4298213e-02	
   5.8795000e+01	   3.4560091e-01	  -1.5071297e-02	
   5.8850000e+01	   3.3061910e-01	  -1.5282235e-02	
   5.8905000e+01	   3.1711959e-01	  -1.4995979e-02	
   5.8960000e+01	   3.0510837e-01	  -1.4295736e-02	
   5.9015000e+01	   2.9455146e-01	  -1.3277628e-02	
   5.9070000e+01	   2.8538697e-01	  -1.2041418e-02	
   5.9125000e+01	   2.7754089e-01	  -1.0679086e-02	
   5.9180000e+01	   2.7094113e-01	  -9.2646355e-03	
   5.9235000e+01	   2.6552618e-01	  -7.8481780e-03	
   5.9290000e+01	   2.6124718e-01	  -6.4553212e-03	
   5.9345000e+01	   2.5806407e-01	  -5.0910511e-03	
   5.9400000e+01	   2.5593692e-01	  -3.7468755e-03	
   5.9455000e+01	   2.5481368e-01	  -2.4102632e-03	
   5.9510000e+01	   2.5461648e-01	  -1.0749330e-03	
   5.9565000e+01	   2.5523026e-01	   2.5060884e-04	
   5.9620000e+01	   2.5649882e-01	   1.5391425e-03	
   5.9675000e+01	   2.5823103e-01	   2.7468636e-03	
   5.9730000e+01	   2.6021657e-01	   3.8208647e-03	
   5.9785000e+01	   2.6224615e-01	   4.7094772e-03	
   5.9840000e+01	   2.6413029e-01	   5.3720253e-03	
   5.9895000e+01	   2.6571140e-01	   5.7849917e-03	
   5.9950000e+01	   2.6686761e-01	   5.9436170e-03	
   6.0005000e+01	   2.6750985e-01	   5.8599296e-03	
   6.0060000e+01	   2.6757465e-01	   5.5584261e-03	
   6.0115000e+01	   2.6701522e-01	   5.0697973e-03	
   6.0170000e+01	   2.6579249e-01	   4.4230882e-03	
   6.0225000e+01	   2.6386804e-01	   3.6376082e-03	
   6.0280000e+01	   2.6120040e-01	   2.7165821e-03	
   6.0335000e+01	   2.5774617e-01	   1.6446891e-03	
   6.0390000e+01	   2.5346699e-01	   3.9137024e-04	
   6.0445000e+01	   2.4834187e-01	  -1.0799696e-03	
   6.0500000e+01	   2.4238140e-01	  -2.7998544e-03	
   6.0555000e+01	   2.3563907e-01	  -4.7823491e-03	
   6.0610000e+01	   2.2821593e-01	  -7.0194248e-03	
   6.0665000e+01	   2.2025792e-01	  -9.4803560e-03	
   6.0720000e+01	   2.1194663e-01	  -1.2115111e-02	
   6.0775000e+01	   2.0348476e-01	  -1.4860719e-02	
   6.0830000e+01	   1.9507796e-01	  -1.7649721e-02	
   6.0885000e+01	   1.8691536e-01	  -2.0419575e-02	
   6.0940000e+01	   1.7915193e-01	  -2.3121625e-02	
   6.0995000e+01	   1.7189628e-01	  -2.5728023e-02	
   6.1050000e+01	   1.6520637e-01	  -2.8234552e-02	
   6.1105000e+01	   1.5909443e-01	  -3.0657425e-02	
   6.1160000e+01	   1.5353979e-01	  -3.3024364e-02	
   6.1215000e+01	   1.4850552e-01	  -3.5363300e-02	
   6.1270000e+01	   1.4395356e-01	  -3.7692644e-02	
   6.1325000e+01	   1.3985432e-01	  -4.0015393e-02	
   6.1380000e+01	   1.3618945e-01	  -4.2317656e-02	
   6.1435000e+01	   1.3294858e-01	  -4.4571138e-02	
   6.1490000e+01	   1.3012164e-01	  -4.6738581e-02	
   6.1545000e+01	   1.2768927e-01	  -4.8781045e-02	
   6.1600000e+01	   1.2561405e-01	  -5.0665929e-02	
   6.1655000e+01	   1.2383453e-01	  -5.2374190e-02	
   6.1710000e+01	   1.2226437e-01	  -5.3904461e-02	
   6.1765000e+01	   1.2079835e-01	  -5.5272003e-02	
   6.1820000e+01	   1.1932531e-01	  -5.6502467e-02	
   6.1875000e+01	   1.1774436e-01	  -5.7623162e-02	
   6.1930000e+01	   1.1597873e-01	  -5.8655022e-02	
   6.1985000e+01	   1.1398391e-01	  -5.9606913e-02	
   6.2040000e+01	   1.1175031e-01	  -6.0472650e-02	
   6.2095000e+01	   1.0930128e-01	  -6.1231119e-02	
   6.2150000e+01	   1.0668726e-01	  -6.1849720e-02	
   6.2205000e+01	   1.0397751e-01	  -6.2290028e-02	
   6.2260000e+01	   1.0125260e-01	  -6.2513393e-02	
   6.2315000e+01	   9.8601372e-02	  -6.2484322e-02	
   6.2370000e+01	   9.6124200e-02	  -6.2170548e-02	
   6.2425000e+01	   9.3940649e-02	  -6.1540124e-02	
   6.2480000e+01	   9.2197436e-02	  -6.0557708e-02	
   6.2535000e+01	   9.1072112e-02	  -5.9183052e-02	
   6.2590000e+01	   9.0770196e-02	  -5.7373025e-02	
   6.2645000e+01	   9.1516471e-02	  -5.5085960e-02	
   6.2700000e+01	   9.3542444e-02	  -5.2286796e-02	
   6.2755000e+01	   9.7070571e-02	  -4.8952940e-02	
   6.2810000e+01	   1.0229498e-01	  -4.5080987e-02	
   6.2865000e+01	   1.0936068e-01	  -4.0693099e-02	
   6.2920000e+01	   1.1834604e-01	  -3.5841259e-02	
   6.2975000e+01	   1.2925346e-01	  -3.0608043e-02	
   6.3030000e+01	   1.4201043e-01	  -2.5102765e-02	
   6.3085000e+01	   1.5648010e-01	  -1.9452402e-02	
   6.3140000e+01	   1.7247695e-01	  -1.3789066e-02	
   6.3195000e+01	   1.8978270e-01	  -8.2381729e-03	
   6.3250000e+01	   2.0815863e-01	  -2.9110245e-03	
   6.3305000e+01	   2.2735243e-01	   2.0972261e-03	
   6.3360000e+01	   2.4710008e-01	   6.7052731e-03	
   6.3415000e+01	   2.6712429e-01	   1.0840449e-02	
   6.3470000e+01	   2.8713187e-01	   1.4432198e-02	
   6.3525000e+01	   3.0681228e-01	   1.7406353e-02	
   6.3580000e+01	   3.2583995e-01	   1.9682316e-02	
   6.3635000e+01	   3.4388233e-01	   2.1174338e-02	
   6.3690000e+01	   3.6061361e-01	   2.1796795e-02	
   6.3745000e+01	   3.7573288e-01	   2.1472374e-02	
   6.3800000e+01	   3.8898402e-01	   2.0141121e-02	
   6.3855000e+01	   4.0017320e-01	   1.7767655e-02	
   6.3910000e+01	   4.0917963e-01	   1.4344360e-02	
   6.3965000e+01	   4.1595825e-01	   9.8904358e-03	
   6.4020000e+01	   4.2053536e-01	   4.4485930e-03	
   6.4075000e+01	   4.2299852e-01	  -1.9192971e-03	
   6.4130000e+01	   4.2348099e-01	  -9.1378978e-03	
   6.4185000e+01	   4.2214255e-01	  -1.7125777e-02	
   6.4240000e+01	   4.1915037e-01	  -2.5803424e-02	
   6.4295000e+01	   4.1466360e-01	  -3.5100273e-02	
   6.4350000e+01	   4.0882348e-01	  -4.4959349e-02	
   6.4405000e+01	   4.0175020e-01	  -5.5337963e-02	
   6.4460000e+01	   3.9354709e-01	  -6.6203126e-02	
   6.4515000e+01	   3.8431068e-01	  -7.7522588e-02	
   6.4570000e+01	   3.7414166e-01	  -8.9255108e-02	
   6.4625000e+01	   3.6315240e-01	  -1.0134347e-01	
   6.4680000e+01	   3.5146910e-01	  -1.1371177e-01	
   6.4735000e+01	   3.3922857e-01	  -1.2626716e-01	
   6.4790000e+01	   3.2657005e-01	  -1.3890589e-01	
   6.4845000e+01	   3.1362307e-01	  -1.5152191e-01	
   6.4900000e+01	   3.0049403e-01	  -1.6401587e-01	
   6.4955000e+01	   2.8725367e-01	  -1.7630287e-01	
   6.5010000e+01	   2.7392809e-01	  -1.8831818e-01	
   6.5065000e+01	   2.6049607e-01	  -2.0001983e-01	
   6.5120000e+01	   2.4689542e-01	  -2.1138714e-01	
   6.5175000e+01	   2.3303829e-01	  -2.2241515e-01	
   6.5230000e+01	   2.1883135e-01	  -2.3310671e-01	
   6.5285000e+01	   2.0419537e-01	  -2.4346444e-01	
   6.5340000e+01	   1.8908042e-01	  -2.5348431e-01	
   6.5395000e+01	   1.7347497e-01	  -2.6315175e-01	
   6.5450000e+01	   1.5740798e-01	  -2.7244121e-01	
   6.5505000e+01	   1.4094407e-01	  -2.8131931e-01	
   6.5560000e+01	   1.2417337e-01	  -2.8975043e-01	
   6.5615000e+01	   1.0719879e-01	  -2.9770313e-01	
   6.5670000e+01	   9.0123430e-02	  -3.0515541e-01	
   6.5725000e+01	   7.3041650e-02	  -3.1209738e-01	
   6.5780000e+01	   5.6036331e-02	  -3.1853016e-01	
   6.5835000e+01	   3.9183038e-02	  -3.2446174e-01	
   6.5890000e+01	   2.2557982e-02	  -3.2990195e-01	
   6.5945000e+01	   6.2453770e-03	  -3.3485873e-01	
   6.6000000e+01	  -9.6584858e-03	  -3.3933629e-01	
   6.6055000e+01	  -2.5045145e-02	  -3.4333485e-01	
   6.6110000e+01	  -3.9798298e-02	  -3.4685217e-01	
   6.6165000e+01	  -5.3802831e-02	  -3.4988723e-01	
   6.6220000e+01	  -6.6957523e-02	  -3.5244540e-01	
   6.6275000e+01	  -7.9189127e-02	  -3.5454415e-01	
   6.6330000e+01	  -9.0464962e-02	  -3.5621838e-01	
   6.6385000e+01	  -1.0080050e-01	  -3.5752400e-01	
   6.6440000e+01	  -1.1025827e-01	  -3.5853746e-01	
   6.6495000e+01	  -1.1893619e-01	  -3.5934892e-01	
   6.6550000e+01	  -1.2694809e-01	  -3.6005016e-01	
   6.6605000e+01	  -1.3440210e-01	  -3.6072073e-01	
   6.6660000e+01	  -1.4138270e-01	  -3.6141641e-01	
   6.6715000e+01	  -1.4793961e-01	  -3.6216246e-01	
   6.6770000e+01	  -1.5408495e-01	  -3.6295287e-01	
   6.6825000e+01	  -1.5979844e-01	  -3.6375528e-01	
   6.6880000e+01	  -1.6503978e-01	  -3.6452044e-01	
   6.6935000e+01	  -1.6976636e-01	  -3.6519444e-01	
   6.6990000e+01	  -1.7395354e-01	  -3.6573188e-01	
   6.7045000e+01	  -1.7761309e-01	  -3.6610750e-01	
   6.7100000e+01	  -1.8080437e-01	  -3.6632367e-01	
   6.7155000e+01	  -1.8363398e-01	  -3.6641187e-01	
   6.7210000e+01	  -1.8624338e-01	  -3.6642786e-01	
   6.7265000e+01	  -1.8878934e-01	  -3.6644189e-01	
   6.7320000e+01	  -1.9142410e-01	  -3.6652678e-01	
   6.7375000e+01	  -1.9428006e-01	  -3.6674648e-01	
   6.7430000e+01	  -1.9746028e-01	  -3.6714787e-01	
   6.7485000e+01	  -2.0103546e-01	  -3.6775711e-01	
   6.7540000e+01	  -2.0504786e-01	  -3.6858100e-01	
   6.7595000e+01	  -2.0952171e-01	  -3.6961239e-01	
   6.7650000e+01	  -2.1447662e-01	  -3.7083776e-01	
   6.7705000e+01	  -2.1994007e-01	  -3.7224493e-01	
   6.7760000e+01	  -2.2595554e-01	  -3.7382860e-01	
   6.7815000e+01	  -2.3258416e-01	  -3.7559263e-01	
   6.7870000e+01	  -2.3989824e-01	  -3.7754798e-01	
   6.7925000e+01	  -2.4796713e-01	  -3.7970643e-01	
   6.7980000e+01	  -2.5683948e-01	  -3.8207199e-01	
   6.8035000e+01	  -2.6652725e-01	  -3.8463292e-01	
   6.8090000e+01	  -2.7699599e-01	  -3.8735694e-01	
   6.8145000e+01	  -2.8816325e-01	  -3.9019060e-01	
   6.8200000e+01	  -2.9990449e-01	  -3.9306251e-01	
   6.8255000e+01	  -3.1206466e-01	  -3.9588950e-01	
   6.8310000e+01	  -3.2447329e-01	  -3.9858511e-01	
   6.8365000e+01	  -3.3696037e-01	  -4.0106907e-01	
   6.8420000e+01	  -3.4937013e-01	  -4.0327588e-01	
   6.8475000e+01	  -3.6157026e-01	  -4.0516053e-01	
   6.8530000e+01	  -3.7345510e-01	  -4.0669961e-01	
   6.8585000e+01	  -3.8494317e-01	  -4.0788766e-01	
   6.8640000e+01	  -3.9597007e-01	  -4.0872957e-01	
   6.8695000e+01	  -4.0647925e-01	  -4.0923161e-01	
   6.8750000e+01	  -4.1641318e-01	  -4.0939396e-01	
   6.8805000e+01	  -4.2570704e-01	  -4.0920669e-01	
   6.8860000e+01	  -4.3428643e-01	  -4.0864926e-01	
   6.8915000e+01	  -4.4207007e-01	  -4.0769280e-01	
   6.8970000e+01	  -4.4897779e-01	  -4.0630507e-01	
   6.9025000e+01	  -4.5494226e-01	  -4.0445817e-01	
   6.9080000e+01	  -4.5992044e-01	  -4.0213659e-01	
   6.9135000e+01	  -4.6390023e-01	  -3.9934271e-01	
   6.9190000e+01	  -4.6689966e-01	  -3.9609749e-01	
   6.9245000e+01	  -4.6895872e-01	  -3.9243706e-01	
   6.9300000e+01	  -4.7012764e-01	  -3.8840644e-01	
   6.9355000e+01	  -4.7045555e-01	  -3.8405242e-01	
   6.9410000e+01	  -4.6998240e-01	  -3.7941668e-01	
   6.9465000e+01	  -4.6873515e-01	  -3.7453090e-01	
   6.9520000e+01	  -4.6672832e-01	  -3.6941466e-01	
   6.9575000e+01	  -4.6396831e-01	  -3.6407593e-01	
   6.9630000e+01	  -4.6046048e-01	  -3.5851366e-01	
   6.9685000e+01	  -4.5621829e-01	  -3.5272207e-01	
   6.9740000e+01	  -4.5127206e-01	  -3.4669595e-01	
   6.9795000e+01	  -4.4567344e-01	  -3.4043524e-01	
   6.9850000e+01	  -4.3949226e-01	  -3.3394704e-01	
   6.9905000e+01	  -4.3280553e-01	  -3.2724375e-01	
   6.9960000e+01	  -4.2568124e-01	  -3.2033809e-01	
   7.0015000e+01	  -4.1816218e-01	  -3.1323647e-01	
   7.0070000e+01	  -4.1025459e-01	  -3.0593351e-01	
   7.0125000e+01	  -4.0192479e-01	  -2.9840967e-01	
   7.0180000e+01	  -3.9310461e-01	  -2.9063319e-01	
   7.0235000e+01	  -3.8370426e-01	  -2.8256562e-01	
   7.0290000e+01	  -3.7363071e-01	  -2.7416991e-01	
   7.0345000e+01	  -3.6280903e-01	  -2.6541972e-01	
   7.0400000e+01	  -3.5120323e-01	  -2.5630855e-01	
   7.0455000e+01	  -3.3883241e-01	  -2.4685701e-01	
   7.0510000e+01	  -3.2577819e-01	  -2.3711673e-01	
   7.0565000e+01	  -3.1218022e-01	  -2.2716927e-01	
   7.0620000e+01	  -2.9821958e-01	  -2.1711913e-01	
   7.0675000e+01	  -2.8409425e-01	  -2.0708247e-01	
   7.0730000e+01	  -2.6999434e-01	  -1.9717554e-01	
   7.0785000e+01	  -2.5608401e-01	  -1.8750625e-01	
   7.0840000e+01	  -2.4249312e-01	  -1.7817026e-01	
   7.0895000e+01	  -2.2931763e-01	  -1.6925122e-01	
   7.0950000e+01	  -2.1662728e-01	  -1.6082432e-01	
   7.1005000e+01	  -2.0447809e-01	  -1.5296196e-01	
   7.1060000e+01	  -1.9292621e-01	  -1.4573951e-01	
   7.1115000e+01	  -1.8203972e-01	  -1.3923975e-01	
   7.1170000e+01	  -1.7190610e-01	  -1.3355535e-01	
   7.1225000e+01	  -1.6263357e-01	  -1.2878830e-01	
   7.1280000e+01	  -1.5434436e-01	  -1.2504517e-01	
   7.1335000e+01	  -1.4716005e-01	  -1.2242816e-01	
   7.1390000e+01	  -1.4118319e-01	  -1.2102413e-01	
   7.1445000e+01	  -1.3648052e-01	  -1.2089415e-01	
   7.1500000e+01	  -1.3307109e-01	  -1.2206523e-01	
   7.1555000e+01	  -1.3092068e-01	  -1.2452516e-01	
   7.1610000e+01	  -1.2994334e-01	  -1.2822121e-01	
   7.1665000e+01	  -1.3001017e-01	  -1.3306236e-01	
   7.1720000e+01	  -1.3096415e-01	  -1.3892432e-01	
   7.1775000e+01	  -1.3263802e-01	  -1.4565710e-01	
   7.1830000e+01	  -1.3487290e-01	  -1.5309484e-01	
   7.1885000e+01	  -1.3753444e-01	  -1.6106703e-01	
   7.1940000e+01	  -1.4052406e-01	  -1.6940880e-01	
   7.1995000e+01	  -1.4378403e-01	  -1.7796856e-01	
   7.2050000e+01	  -1.4729629e-01	  -1.8661201e-01	
   7.2105000e+01	  -1.5107472e-01	  -1.9522150e-01	
   7.2160000e+01	  -1.5515169e-01	  -2.0369169e-01	
   7.2215000e+01	  -1.5956173e-01	  -2.1192377e-01	
   7.2270000e+01	  -1.6432573e-01	  -2.1982098e-01	
   7.2325000e+01	  -1.6943870e-01	  -2.2728634e-01	
   7.2380000e+01	  -1.7486365e-01	  -2.3422300e-01	
   7.2435000e+01	  -1.8053263e-01	  -2.4053711e-01	
   7.2490000e+01	  -1.8635423e-01	  -2.4614316e-01	
   7.2545000e+01	  -1.9222510e-01	  -2.5097045e-01	
   7.2600000e+01	  -1.9804264e-01	  -2.5496958e-01	
   7.2655000e+01	  -2.0371598e-01	  -2.5811766e-01	
   7.2710000e+01	  -2.0917208e-01	  -2.6042049e-01	
   7.2765000e+01	  -2.1435508e-01	  -2.6191033e-01	
   7.2820000e+01	  -2.1922040e-01	  -2.6263978e-01	
   7.2875000e+01	  -2.2372705e-01	  -2.6267309e-01	
   7.2930000e+01	  -2.2783124e-01	  -2.6207728e-01	
   7.2985000e+01	  -2.3148329e-01	  -2.6091455e-01	
   7.3040000e+01	  -2.3462843e-01	  -2.5923763e-01	
   7.3095000e+01	  -2.3721178e-01	  -2.5708877e-01	
   7.3150000e+01	  -2.3918661e-01	  -2.5450224e-01	
   7.3205000e+01	  -2.4052414e-01	  -2.5150898e-01	
   7.3260000e+01	  -2.4122249e-01	  -2.4814167e-01	
   7.3315000e+01	  -2.4131112e-01	  -2.4443788e-01	
   7.3370000e+01	  -2.4084792e-01	  -2.4043963e-01	
   7.3425000e+01	  -2.3990771e-01	  -2.3618897e-01	
   7.3480000e+01	  -2.3856431e-01	  -2.3172088e-01	
   7.3535000e+01	  -2.3687069e-01	  -2.2705567e-01	
   7.3590000e+01	  -2.3484223e-01	  -2.2219280e-01	
   7.3645000e+01	  -2.3244656e-01	  -2.1710821e-01	
   7.3700000e+01	  -2.2960187e-01	  -2.1175598e-01	
   7.3755000e+01	  -2.2618432e-01	  -2.0607428e-01	
   7.3810000e+01	  -2.2204358e-01	  -1.9999450e-01	
   7.3865000e+01	  -2.1702367e-01	  -1.9345217e-01	
   7.3920000e+01	  -2.1098467e-01	  -1.8639855e-01	
   7.3975000e+01	  -2.0382147e-01	  -1.7881112e-01	
   7.4030000e+01	  -1.9547632e-01	  -1.7070033e-01	
   7.4085000e+01	  -1.8594332e-01	  -1.6211080e-01	
   7.4140000e+01	  -1.7526330e-01	  -1.5311600e-01	
   7.4195000e+01	  -1.6351021e-01	  -1.4380784e-01	
   7.4250000e+01	  -1.5077369e-01	  -1.3428413e-01	
   7.4305000e+01	  -1.3714350e-01	  -1.2463748e-01	
   7.4360000e+01	  -1.2269992e-01	  -1.1494768e-01	
   7.4415000e+01	  -1.0751079e-01	  -1.0527797e-01	
   7.4470000e+01	  -9.1635011e-02	  -9.5675677e-02	
   7.4525000e+01	  -7.5131579e-02	  -8.6177045e-02	
   7.4580000e+01	  -5.8072025e-02	  -7.6815033e-02	
   7.4635000e+01	  -4.0553254e-02	  -6.7627384e-02	
   7.4690000e+01	  -2.2707299e-02	  -5.8662748e-02	
   7.4745000e+01	  -4.7046876e-03	  -4.9983047e-02	
   7.4800000e+01	   1.3251049e-02	  -4.1660765e-02	
   7.4855000e+01	   3.0937405e-02	  -3.3771396e-02	
   7.4910000e+01	   4.8131618e-02	  -2.6383539e-02	
   7.4965000e+01	   6.4628690e-02	  -1.9549864e-02	
   7.5020000e+01	   8.0254740e-02	  -1.3301107e-02	
   7.5075000e+01	   9.4874224e-02	  -7.6436968e-03	
   7.5130000e+01	   1.0839118e-01	  -2.5608786e-03	
   7.5185000e+01	   1.2074529e-01	   1.9831581e-03	
   7.5240000e+01	   1.3190379e-01	   6.0367546e-03	
   7.5295000e+01	   1.4185039e-01	   9.6525937e-03	
   7.5350000e+01	   1.5057287e-01	   1.2879104e-02	
   7.5405000e+01	   1.5805269e-01	   1.5753692e-02	
   7.5460000e+01	   1.6426064e-01	   1.8300180e-02	
   7.5515000e+01	   1.6916046e-01	   2.0531503e-02	
   7.5570000e+01	   1.7271949e-01	   2.2456628e-02	
   7.5625000e+01	   1.7492267e-01	   2.4089025e-02	
   7.5680000e+01	   1.7578502e-01	   2.5453569e-02	
   7.5735000e+01	   1.7535895e-01	   2.6589921e-02	
   7.5790000e+01	   1.7373577e-01	   2.7552595e-02	
   7.5845000e+01	   1.7104288e-01	   2.8409077e-02	
   7.5900000e+01	   1.6743741e-01	   2.9236684e-02	
   7.5955000e+01	   1.6309695e-01	   3.0117893e-02	
   7.6010000e+01	   1.5820886e-01	   3.1134475e-02	
   7.6065000e+01	   1.5296122e-01	   3.2362094e-02	
   7.6120000e+01	   1.4753798e-01	   3.3867393e-02	
   7.6175000e+01	   1.4211971e-01	   3.5708718e-02	
   7.6230000e+01	   1.3688937e-01	   3.7939954e-02	
   7.6285000e+01	   1.3204005e-01	   4.0615386e-02	
   7.6340000e+01	   1.2778067e-01	   4.3793164e-02	
   7.6395000e+01	   1.2433699e-01	   4.7535979e-02	
   7.6450000e+01	   1.2194678e-01	   5.1908630e-02	
   7.6505000e+01	   1.2084859e-01	   5.6972403e-02	
   7.6560000e+01	   1.2126525e-01	   6.2776678e-02	
   7.6615000e+01	   1.2338576e-01	   6.9349786e-02	
   7.6670000e+01	   1.2735084e-01	   7.6692053e-02	
   7.6725000e+01	   1.3324564e-01	   8.4772974e-02	
   7.6780000e+01	   1.4110021e-01	   9.3533195e-02	
   7.6835000e+01	   1.5089658e-01	   1.0289100e-01	
   7.6890000e+01	   1.6258018e-01	   1.1275158e-01	
   7.6945000e+01	   1.7607176e-01	   1.2301607e-01	
   7.7000000e+01	   1.9127638e-01	   1.3358831e-01	
   7.7055000e+01	   2.0808791e-01	   1.4437897e-01	
   7.7110000e+01	   2.2638897e-01	   1.5530711e-01	
   7.7165000e+01	   2.4604630e-01	   1.6629931e-01	
   7.7220000e+01	   2.6690349e-01	   1.7728640e-01	
   7.7275000e+01	   2.8877316e-01	   1.8819887e-01	
   7.7330000e+01	   3.1143076e-01	   1.9896173e-01	
   7.7385000e+01	   3.3461184e-01	   2.0949070e-01	
   7.7440000e+01	   3.5801664e-01	   2.1969202e-01	
   7.7495000e+01	   3.8132518e-01	   2.2946751e-01	
   7.7550000e+01	   4.0422142e-01	   2.3872405e-01	
   7.7605000e+01	   4.2642031e-01	   2.4738423e-01	
   7.7660000e+01	   4.4768999e-01	   2.5539530e-01	
   7.7715000e+01	   4.6786420e-01	   2.6273386e-01	
   7.7770000e+01	   4.8684377e-01	   2.6940578e-01	
   7.7825000e+01	   5.0458900e-01	   2.7544160e-01	
   7.7880000e+01	   5.2110516e-01	   2.8088849e-01	
   7.7935000e+01	   5.3642362e-01	   2.8580009e-01	
   7.7990000e+01	   5.5058181e-01	   2.9022577e-01	
   7.8045000e+01	   5.6360578e-01	   2.9420155e-01	
   7.8100000e+01	   5.7549898e-01	   2.9774479e-01	
   7.8155000e+01	   5.8624008e-01	   3.0085421e-01	
   7.8210000e+01	   5.9579122e-01	   3.0351550e-01	
   7.8265000e+01	   6.0411409e-01	   3.0571054e-01	
   7.8320000e+01	   6.1118772e-01	   3.0742713e-01	
   7.8375000e+01	   6.1702153e-01	   3.0866681e-01	
   7.8430000e+01	   6.2166028e-01	   3.0944947e-01	
   7.8485000e+01	   6.2518163e-01	   3.0981437e-01	
   7.8540000e+01	   6.2768797e-01	   3.0981771e-01	
   7.8595000e+01	   6.2929498e-01	   3.0952728e-01	
   7.8650000e+01	   6.3011929e-01	   3.0901521e-01	
   7.8705000e+01	   6.3026697e-01	   3.0835030e-01	
   7.8760000e+01	   6.2982414e-01	   3.0759090e-01	
   7.8815000e+01	   6.2885165e-01	   3.0677948e-01	
   7.8870000e+01	   6.2738621e-01	   3.0594029e-01	
   7.8925000e+01	   6.2544891e-01	   3.0508117e-01	
   7.8980000e+01	   6.2305908e-01	   3.0419946e-01	
   7.9035000e+01	   6.2024907e-01	   3.0329022e-01	
   7.9090000e+01	   6.1707642e-01	   3.0235415e-01	
   7.9145000e+01	   6.1363081e-01	   3.0140269e-01	
   7.9200000e+01	   6.1003463e-01	   3.0045939e-01	
   7.9255000e+01	   6.0643669e-01	   2.9955750e-01	
   7.9310000e+01	   6.0299986e-01	   2.9873421e-01	
   7.9365000e+01	   5.9988559e-01	   2.9802341e-01	
   7.9420000e+01	   5.9723914e-01	   2.9744873e-01	
   7.9475000e+01	   5.9517806e-01	   2.9701889e-01	
   7.9530000e+01	   5.9378601e-01	   2.9672606e-01	
   7.9585000e+01	   5.9311306e-01	   2.9654815e-01	
   7.9640000e+01	   5.9318210e-01	   2.9645472e-01	
   7.9695000e+01	   5.9399813e-01	   2.9641455e-01	
   7.9750000e+01	   5.9555669e-01	   2.9640262e-01	
   7.9805000e+01	   5.9784917e-01	   2.9640536e-01	
   7.9860000e+01	   6.0086431e-01	   2.9642329e-01	
   7.9915000e+01	   6.0458535e-01	   2.9647038e-01	
   7.9970000e+01	   6.0898347e-01	   2.9657033e-01	
   8.0025000e+01	   6.1401034e-01	   2.9675074e-01	
   8.0080000e+01	   6.1959267e-01	   2.9703714e-01	
   8.0135000e+01	   6.2563174e-01	   2.9744891e-01	
   8.0190000e+01	   6.3200978e-01	   2.9799898e-01	
   8.0245000e+01	   6.3860297e-01	   2.9869759e-01	
   8.0300000e+01	   6.4529746e-01	   2.9955781e-01	
   8.0355000e+01	   6.5200299e-01	   3.0060016e-01	
   8.0410000e+01	   6.5866120e-01	   3.0185440e-01	
   8.0465000e+01	   6.6524792e-01	   3.0335837e-01	
   8.0520000e+01	   6.7176976e-01	   3.0515402e-01	
   8.0575000e+01	   6.7825530e-01	   3.0728118e-01	
   8.0630000e+01	   6.8474170e-01	   3.0976975e-01	
   8.0685000e+01	   6.9125853e-01	   3.1263182e-01	
   8.0740000e+01	   6.9781237e-01	   3.1585564e-01	
   8.0795000e+01	   7.0437643e-01	   3.1940288e-01	
   8.0850000e+01	   7.1088886e-01	   3.2321026e-01	
   8.0905000e+01	   7.1726096e-01	   3.2719639e-01	
   8.0960000e+01	   7.2339307e-01	   3.3127302e-01	
   8.1015000e+01	   7.2919344e-01	   3.3535747e-01	
   8.1070000e+01	   7.3459454e-01	   3.3938231e-01	
   8.1125000e+01	   7.3956291e-01	   3.4329950e-01	
   8.1180000e+01	   7.4410117e-01	   3.4707887e-01	
   8.1235000e+01	   7.4824154e-01	   3.5070194e-01	
   8.1290000e+01	   7.5203216e-01	   3.5415249e-01	
   8.1345000e+01	   7.5551959e-01	   3.5740656e-01	
   8.1400000e+01	   7.5873169e-01	   3.6042421e-01	
   8.1455000e+01	   7.6166416e-01	   3.6314482e-01	
   8.1510000e+01	   7.6427421e-01	   3.6548732e-01	
   8.1565000e+01	   7.6648390e-01	   3.6735554e-01	
   8.1620000e+01	   7.6819300e-01	   3.6864837e-01	
   8.1675000e+01	   7.6929750e-01	   3.6927257e-01	
   8.1730000e+01	   7.6970841e-01	   3.6915565e-01	
   8.1785000e+01	   7.6936655e-01	   3.6825619e-01	
   8.1840000e+01	   7.6825045e-01	   3.6656964e-01	
   8.1895000e+01	   7.6637738e-01	   3.6412888e-01	
   8.1950000e+01	   7.6379807e-01	   3.6099986e-01	
   8.2005000e+01	   7.6058664e-01	   3.5727306e-01	
   8.2060000e+01	   7.5682730e-01	   3.5305237e-01	
   8.2115000e+01	   7.5260129e-01	   3.4844318e-01	
   8.2170000e+01	   7.4797674e-01	   3.4354148e-01	
   8.2225000e+01	   7.4300357e-01	   3.3842579e-01	
   8.2280000e+01	   7.3771460e-01	   3.3315407e-01	
   8.2335000e+01	   7.3213283e-01	   3.2776652e-01	
   8.2390000e+01	   7.2628190e-01	   3.2229207e-01	
   8.2445000e+01	   7.2019467e-01	   3.1675551e-01	
   8.2500000e+01	   7.1391685e-01	   3.1118325e-01	
   8.2555000e+01	   7.0750488e-01	   3.0560656e-01	
   8.2610000e+01	   7.0101891e-01	   3.0006160e-01	
   8.2665000e+01	   6.9451202e-01	   2.9458650e-01	
   8.2720000e+01	   6.8801779e-01	   2.8921619e-01	
   8.2775000e+01	   6.8153859e-01	   2.8397655e-01	
   8.2830000e+01	   6.7503738e-01	   2.7887961e-01	
   8.2885000e+01	   6.6843568e-01	   2.7392192e-01	
   8.2940000e+01	   6.6161971e-01	   2.6908667e-01	
   8.2995000e+01	   6.5445299e-01	   2.6434901e-01	
   8.3050000e+01	   6.4679256e-01	   2.5968270e-01	
   8.3105000e+01	   6.3850498e-01	   2.5506611e-01	
   8.3160000e+01	   6.2947946e-01	   2.5048611e-01	
   8.3215000e+01	   6.1963610e-01	   2.4593917e-01	
   8.3270000e+01	   6.0892839e-01	   2.4142987e-01	
   8.3325000e+01	   5.9734039e-01	   2.3696731e-01	
   8.3380000e+01	   5.8488033e-01	   2.3256077e-01	
   8.3435000e+01	   5.7157342e-01	   2.2821600e-01	
   8.3490000e+01	   5.5745698e-01	   2.2393314e-01	
   8.3545000e+01	   5.4258043e-01	   2.1970663e-01	
   8.3600000e+01	   5.2701108e-01	   2.1552769e-01	
   8.3655000e+01	   5.1084354e-01	   2.1138937e-01	
   8.3710000e+01	   4.9420854e-01	   2.0729242e-01	
   8.3765000e+01	   4.7727705e-01	   2.0324979e-01	
   8.3820000e+01	   4.6025831e-01	   1.9928901e-01	
   8.3875000e+01	   4.4339210e-01	   1.9545172e-01	
   8.3930000e+01	   4.2693634e-01	   1.9178978e-01	
   8.3985000e+01	   4.1115162e-01	   1.8835832e-01	
   8.4040000e+01	   3.9628406e-01	   1.8520727e-01	
   8.4095000e+01	   3.8254879e-01	   1.8237329e-01	
   8.4150000e+01	   3.7011686e-01	   1.7987404e-01	
   8.4205000e+01	   3.5910939e-01	   1.7770690e-01	
   8.4260000e+01	   3.4960150e-01	   1.7585314e-01	
   8.4315000e+01	   3.4163468e-01	   1.7428669e-01	
   8.4370000e+01	   3.3523185e-01	   1.7298453e-01	
   8.4425000e+01	   3.3040950e-01	   1.7193578e-01	
   8.4480000e+01	   3.2718332e-01	   1.7114718e-01	
   8.4535000e+01	   3.2556725e-01	   1.7064382e-01	
   8.4590000e+01	   3.2556804e-01	   1.7046571e-01	
   8.4645000e+01	   3.2717701e-01	   1.7066084e-01	
   8.4700000e+01	   3.3035993e-01	   1.7127562e-01	
   8.4755000e+01	   3.3504616e-01	   1.7234415e-01	
   8.4810000e+01	   3.4112055e-01	   1.7387850e-01	
   8.4865000e+01	   3.4842192e-01	   1.7586237e-01	
   8.4920000e+01	   3.5674991e-01	   1.7824989e-01	
   8.4975000e+01	   3.6587883e-01	   1.8097059e-01	
   8.5030000e+01	   3.7557428e-01	   1.8393819e-01	
   8.5085000e+01	   3.8560806e-01	   1.8705946e-01	
   8.5140000e+01	   3.9576886e-01	   1.9024046e-01	
   8.5195000e+01	   4.0586885e-01	   1.9338977e-01	
   8.5250000e+01	   4.1574604e-01	   1.9641918e-01	
   8.5305000e+01	   4.2526216e-01	   1.9924236e-01	
   8.5360000e+01	   4.3429704e-01	   2.0177253e-01	
   8.5415000e+01	   4.4274165e-01	   2.0391995e-01	
   8.5470000e+01	   4.5049260e-01	   2.0559015e-01	
   8.5525000e+01	   4.5745130e-01	   2.0668492e-01	
   8.5580000e+01	   4.6352968e-01	   2.0710729e-01	
   8.5635000e+01	   4.6866134e-01	   2.0677001e-01	
   8.5690000e+01	   4.7281356e-01	   2.0560503e-01	
   8.5745000e+01	   4.7599531e-01	   2.0357131e-01	
   8.5800000e+01	   4.7825833e-01	   2.0065948e-01	
   8.5855000e+01	   4.7969008e-01	   1.9689179e-01	
   8.5910000e+01	   4.8039930e-01	   1.9231713e-01	
   8.5965000e+01	   4.8049746e-01	   1.8700271e-01	
   8.6020000e+01	   4.8007958e-01	   1.8102429e-01	
   8.6075000e+01	   4.7920789e-01	   1.7445693e-01	
   8.6130000e+01	   4.7790061e-01	   1.6736840e-01	
   8.6185000e+01	   4.7612827e-01	   1.5981648e-01	
   8.6240000e+01	   4.7381929e-01	   1.5185094e-01	
   8.6295000e+01	   4.7087459e-01	   1.4351927e-01	
   8.6350000e+01	   4.6718745e-01	   1.3487398e-01	
   8.6405000e+01	   4.6266210e-01	   1.2597737e-01	
   8.6460000e+01	   4.5722628e-01	   1.1690174e-01	
   8.6515000e+01	   4.5083676e-01	   1.0772538e-01	
   8.6570000e+01	   4.4347905e-01	   9.8525524e-02	
   8.6625000e+01	   4.3516226e-01	   8.9369745e-02	
   8.6680000e+01	   4.2591144e-01	   8.0307840e-02	
   8.6735000e+01	   4.1575968e-01	   7.1365914e-02	
   8.6790000e+01	   4.0474150e-01	   6.2543479e-02	
   8.6845000e+01	   3.9288861e-01	   5.3813807e-02	
   8.6900000e+01	   3.8022963e-01	   4.5127892e-02	
   8.6955000e+01	   3.6679481e-01	   3.6422007e-02	
   8.7010000e+01	   3.5262441e-01	   2.7627901e-02	
   8.7065000e+01	   3.3777757e-01	   1.8683882e-02	
   8.7120000e+01	   3.2233937e-01	   9.5447420e-03	
   8.7175000e+01	   3.0642454e-01	   1.8885751e-04	
   8.7230000e+01	   2.9017667e-01	  -9.3784538e-03	
   8.7285000e+01	   2.7376257e-01	  -1.9125488e-02	
   8.7340000e+01	   2.5736292e-01	  -2.8997750e-02	
   8.7395000e+01	   2.4116176e-01	  -3.8922808e-02	
   8.7450000e+01	   2.2533832e-01	  -4.8814792e-02	
   8.7505000e+01	   2.1006346e-01	  -5.8577646e-02	
   8.7560000e+01	   1.9550070e-01	  -6.8106615e-02	
   8.7615000e+01	   1.8181003e-01	  -7.7288178e-02	
   8.7670000e+01	   1.6915125e-01	  -8.6000332e-02	
   8.7725000e+01	   1.5768351e-01	  -9.4115831e-02	
   8.7780000e+01	   1.4755946e-01	  -1.0150908e-01	
   8.7835000e+01	   1.3891494e-01	  -1.0806505e-01	
   8.7890000e+01	   1.3185603e-01	  -1.1368812e-01	
   8.7945000e+01	   1.2644584e-01	  -1.1830964e-01	
   8.8000000e+01	   1.2269374e-01	  -1.2189356e-01	
   8.8055000e+01	   1.2054966e-01	  -1.2443946e-01	
   8.8110000e+01	   1.1990573e-01	  -1.2598200e-01	
   8.8165000e+01	   1.2060585e-01	  -1.2658617e-01	
   8.8220000e+01	   1.2246196e-01	  -1.2633875e-01	
   8.8275000e+01	   1.2527265e-01	  -1.2533830e-01	
   8.8330000e+01	   1.2883960e-01	  -1.2368591e-01	
   8.8385000e+01	   1.3297863e-01	  -1.2147854e-01	
   8.8440000e+01	   1.3752408e-01	  -1.1880560e-01	
   8.8495000e+01	   1.4232636e-01	  -1.1574958e-01	
   8.8550000e+01	   1.4724492e-01	  -1.1239009e-01	
   8.8605000e+01	   1.5213909e-01	  -1.0881002e-01	
   8.8660000e+01	   1.5685878e-01	  -1.0510220e-01	
   8.8715000e+01	   1.6123819e-01	  -1.0137465e-01	
   8.8770000e+01	   1.6509695e-01	  -9.7752010e-02	
   8.8825000e+01	   1.6825138e-01	  -9.4370932e-02	
   8.8880000e+01	   1.7053343e-01	  -9.1370524e-02	
   8.8935000e+01	   1.7180975e-01	  -8.8881236e-02	
   8.8990000e+01	   1.7199424e-01	  -8.7016159e-02	
   8.9045000e+01	   1.7105060e-01	  -8.5866648e-02	
   8.9100000e+01	   1.6898584e-01	  -8.5502114e-02	
   8.9155000e+01	   1.6583696e-01	  -8.5972826e-02	
   8.9210000e+01	   1.6165391e-01	  -8.7314873e-02	
   8.9265000e+01	   1.5648161e-01	  -8.9556386e-02	
   8.9320000e+01	   1.5034420e-01	  -9.2723240e-02	
   8.9375000e+01	   1.4323505e-01	  -9.6842072e-02	
   8.9430000e+01	   1.3511554e-01	  -1.0193937e-01	
   8.9485000e+01	   1.2592337e-01	  -1.0803627e-01	
   8.9540000e+01	   1.1558874e-01	  -1.1513935e-01	
   8.9595000e+01	   1.0405288e-01	  -1.2322989e-01	
   8.9650000e+01	   9.1283039e-02	  -1.3225548e-01	
   8.9705000e+01	   7.7280982e-02	  -1.4212714e-01	
   8.9760000e+01	   6.2084766e-02	  -1.5272249e-01	
   8.9815000e+01	   4.5764197e-02	  -1.6389406e-01	
   8.9870000e+01	   2.8410732e-02	  -1.7548141e-01	
   8.9925000e+01	   1.0124454e-02	  -1.8732457e-01	
   8.9980000e+01	  -8.9982939e-03	  -1.9927716e-01	
   9.0035000e+01	  -2.8874461e-02	  -2.1121733e-01	
   9.0090000e+01	  -4.9440513e-02	  -2.2305544e-01	
   9.0145000e+01	  -7.0654613e-02	  -2.3473706e-01	
   9.0200000e+01	  -9.2493336e-02	  -2.4624055e-01	
   9.0255000e+01	  -1.1494256e-01	  -2.5756974e-01	
   9.0310000e+01	  -1.3798473e-01	  -2.6874383e-01	
   9.0365000e+01	  -1.6158633e-01	  -2.7978730e-01	
   9.0420000e+01	  -1.8568873e-01	  -2.9072175e-01	
   9.0475000e+01	  -2.1020415e-01	  -3.0156077e-01	
   9.0530000e+01	  -2.3501738e-01	  -3.1230788e-01	
   9.0585000e+01	  -2.5999276e-01	  -3.2295774e-01	
   9.0640000e+01	  -2.8498464e-01	  -3.3349929e-01	
   9.0695000e+01	  -3.0984906e-01	  -3.4391956e-01	
   9.0750000e+01	  -3.3445404e-01	  -3.5420711e-01	
   9.0805000e+01	  -3.5868608e-01	  -3.6435416e-01	
   9.0860000e+01	  -3.8245097e-01	  -3.7435635e-01	
   9.0915000e+01	  -4.0566939e-01	  -3.8420903e-01	
   9.0970000e+01	  -4.2826989e-01	  -3.9390118e-01	
   9.1025000e+01	  -4.5018289e-01	  -4.0340880e-01	
   9.1080000e+01	  -4.7133756e-01	  -4.1269003e-01	
   9.1135000e+01	  -4.9166257e-01	  -4.2168378e-01	
   9.1190000e+01	  -5.1109068e-01	  -4.3031266e-01	
   9.1245000e+01	  -5.2956598e-01	  -4.3848947e-01	
   9.1300000e+01	  -5.4705106e-01	  -4.4612576e-01	
   9.1355000e+01	  -5.6353225e-01	  -4.5314116e-01	
   9.1410000e+01	  -5.7902145e-01	  -4.5947126e-01	
   9.1465000e+01	  -5.9355341e-01	  -4.6507198e-01	
   9.1520000e+01	  -6.0717741e-01	  -4.6991853e-01	
   9.1575000e+01	  -6.1994503e-01	  -4.7400000e-01	
   9.1630000e+01	  -6.3189797e-01	  -4.7731235e-01	
   9.1685000e+01	  -6.4305979e-01	  -4.7985266e-01	
   9.1740000e+01	  -6.5343349e-01	  -4.8161650e-01	
   9.1795000e+01	  -6.6300487e-01	  -4.8259836e-01	
   9.1850000e+01	  -6.7175056e-01	  -4.8279501e-01	
   9.1905000e+01	  -6.7964999e-01	  -4.8221146e-01	
   9.1960000e+01	  -6.8669917e-01	  -4.8086820e-01	
   9.2015000e+01	  -6.9292412e-01	  -4.7880834e-01	
   9.2070000e+01	  -6.9839064e-01	  -4.7610302e-01	
   9.2125000e+01	  -7.0320745e-01	  -4.7285350e-01	
   9.2180000e+01	  -7.0752043e-01	  -4.6918784e-01	
   9.2235000e+01	  -7.1149841e-01	  -4.6525191e-01	
   9.2290000e+01	  -7.1531458e-01	  -4.6119685e-01	
   9.2345000e+01	  -7.1912792e-01	  -4.5716628e-01	
   9.2400000e+01	  -7.2306832e-01	  -4.5328597e-01	
   9.2455000e+01	  -7.2722746e-01	  -4.4965751e-01	
   9.2510000e+01	  -7.3165691e-01	  -4.4635625e-01	
   9.2565000e+01	  -7.3637331e-01	  -4.4343348e-01	
   9.2620000e+01	  -7.4136870e-01	  -4.4092115e-01	
   9.2675000e+01	  -7.4662325e-01	  -4.3883816e-01	
   9.2730000e+01	  -7.5211723e-01	  -4.3719700e-01	
   9.2785000e+01	  -7.5783950e-01	  -4.3600898e-01	
   9.2840000e+01	  -7.6379043e-01	  -4.3528670e-01	
   9.2895000e+01	  -7.6997851e-01	  -4.3504252e-01	
   9.2950000e+01	  -7.7641141e-01	  -4.3528302e-01	
   9.3005000e+01	  -7.8308436e-01	  -4.3600119e-01	
   9.3060000e+01	  -7.8996974e-01	  -4.3716919e-01	
   9.3115000e+01	  -7.9701147e-01	  -4.3873410e-01	
   9.3170000e+01	  -8.0412598e-01	  -4.4061761e-01	
   9.3225000e+01	  -8.1120977e-01	  -4.4271992e-01	
   9.3280000e+01	  -8.1815197e-01	  -4.4492748e-01	
   9.3335000e+01	  -8.2484973e-01	  -4.4712379e-01	
   9.3390000e+01	  -8.3122353e-01	  -4.4920162e-01	
   9.3445000e+01	  -8.3722890e-01	  -4.5107429e-01	
   9.3500000e+01	  -8.4286166e-01	  -4.5268425e-01	
   9.3555000e+01	  -8.4815480e-01	  -4.5400662e-01	
   9.3610000e+01	  -8.5316862e-01	  -4.5504671e-01	
   9.3665000e+01	  -8.5797780e-01	  -4.5583270e-01	
   9.3720000e+01	  -8.6265956e-01	  -4.5640599e-01	
   9.3775000e+01	  -8.6728468e-01	  -4.5681184e-01	
   9.3830000e+01	  -8.7191205e-01	  -4.5709209e-01	
   9.3885000e+01	  -8.7658690e-01	  -4.5728093e-01	
   9.3940000e+01	  -8.8134316e-01	  -4.5740357e-01	
   9.3995000e+01	  -8.8620895e-01	  -4.5747647e-01	
   9.4050000e+01	  -8.9121315e-01	  -4.5750825e-01	
   9.4105000e+01	  -8.9639088e-01	  -4.5750114e-01	
   9.4160000e+01	  -9.0178536e-01	  -4.5745239e-01	
   9.4215000e+01	  -9.0744384e-01	  -4.5735414e-01	
   9.4270000e+01	  -9.1340774e-01	  -4.5719104e-01	
   9.4325000e+01	  -9.1970054e-01	  -4.5693651e-01	
   9.4380000e+01	  -9.2631792e-01	  -4.5654992e-01	
   9.4435000e+01	  -9.3322310e-01	  -4.5597641e-01	
   9.4490000e+01	  -9.4034804e-01	  -4.5514967e-01	
   9.4545000e+01	  -9.4759966e-01	  -4.5399681e-01	
   9.4600000e+01	  -9.5486943e-01	  -4.5244458e-01	
   9.4655000e+01	  -9.6204469e-01	  -4.5042658e-01	
   9.4710000e+01	  -9.6901920e-01	  -4.4789044e-01	
   9.4765000e+01	  -9.7569959e-01	  -4.4480259e-01	
   9.4820000e+01	  -9.8200453e-01	  -4.4114837e-01	
   9.4875000e+01	  -9.8785716e-01	  -4.3692684e-01	
   9.4930000e+01	  -9.9317433e-01	  -4.3214233e-01	
   9.4985000e+01	  -9.9785756e-01	  -4.2679570e-01	
   9.5040000e+01	  -1.0017891e+00	  -4.2087855e-01	
   9.5095000e+01	  -1.0048342e+00	  -4.1437227e-01	
   9.5150000e+01	  -1.0068479e+00	  -4.0725171e-01	
   9.5205000e+01	  -1.0076852e+00	  -3.9949178e-01	
   9.5260000e+01	  -1.0072145e+00	  -3.9107575e-01	
   9.5315000e+01	  -1.0053328e+00	  -3.8200391e-01	
   9.5370000e+01	  -1.0019807e+00	  -3.7230139e-01	
   9.5425000e+01	  -9.9715316e-01	  -3.6202283e-01	
   9.5480000e+01	  -9.9090130e-01	  -3.5125210e-01	
   9.5535000e+01	  -9.8332549e-01	  -3.4009612e-01	
   9.5590000e+01	  -9.7456214e-01	  -3.2867424e-01	
   9.5645000e+01	  -9.6476929e-01	  -3.1710661e-01	
   9.5700000e+01	  -9.5411564e-01	  -3.0550477e-01	
   9.5755000e+01	  -9.4277456e-01	  -2.9396568e-01	
   9.5810000e+01	  -9.3092209e-01	  -2.8256972e-01	
   9.5865000e+01	  -9.1873852e-01	  -2.7138283e-01	
   9.5920000e+01	  -9.0641299e-01	  -2.6046191e-01	
   9.5975000e+01	  -8.9414861e-01	  -2.4986112e-01	
   9.6030000e+01	  -8.8216512e-01	  -2.3963701e-01	
   9.6085000e+01	  -8.7069647e-01	  -2.2985039e-01	
   9.6140000e+01	  -8.5998103e-01	  -2.2056347e-01	
   9.6195000e+01	  -8.5024513e-01	  -2.1183277e-01	
   9.6250000e+01	  -8.4168453e-01	  -2.0370029e-01	
   9.6305000e+01	  -8.3444960e-01	  -1.9618599e-01	
   9.6360000e+01	  -8.2863693e-01	  -1.8928264e-01	
   9.6415000e+01	  -8.2428712e-01	  -1.8295384e-01	
   9.6470000e+01	  -8.2138892e-01	  -1.7713610e-01	
   9.6525000e+01	  -8.1988932e-01	  -1.7174571e-01	
   9.6580000e+01	  -8.1970726e-01	  -1.6668931e-01	
   9.6635000e+01	  -8.2074817e-01	  -1.6187657e-01	
   9.6690000e+01	  -8.2291632e-01	  -1.5723243e-01	
   9.6745000e+01	  -8.2612158e-01	  -1.5270570e-01	
   9.6800000e+01	  -8.3027780e-01	  -1.4827175e-01	
   9.6855000e+01	  -8.3529350e-01	  -1.4392954e-01	
   9.6910000e+01	  -8.4105922e-01	  -1.3969460e-01	
   9.6965000e+01	  -8.4743656e-01	  -1.3559058e-01	
   9.7020000e+01	  -8.5425338e-01	  -1.3164162e-01	
   9.7075000e+01	  -8.6130705e-01	  -1.2786702e-01	
   9.7130000e+01	  -8.6837550e-01	  -1.2427899e-01	
   9.7185000e+01	  -8.7523408e-01	  -1.2088327e-01	
   9.7240000e+01	  -8.8167531e-01	  -1.1768303e-01	
   9.7295000e+01	  -8.8752874e-01	  -1.1468499e-01	
   9.7350000e+01	  -8.9267772e-01	  -1.1190576e-01	
   9.7405000e+01	  -8.9706925e-01	  -1.0937602e-01	
   9.7460000e+01	  -9.0071490e-01	  -1.0714074e-01	
   9.7515000e+01	  -9.0368339e-01	  -1.0525498e-01	
   9.7570000e+01	  -9.0608806e-01	  -1.0377613e-01	
   9.7625000e+01	  -9.0807326e-01	  -1.0275517e-01	
   9.7680000e+01	  -9.0980298e-01	  -1.0223005e-01	
   9.7735000e+01	  -9.1145401e-01	  -1.0222277e-01	
   9.7790000e+01	  -9.1321324e-01	  -1.0273974e-01	
   9.7845000e+01	  -9.1527759e-01	  -1.0377463e-01	
   9.7900000e+01	  -9.1785431e-01	  -1.0531317e-01	
   9.7955000e+01	  -9.2115963e-01	  -1.0733888e-01	
   9.8010000e+01	  -9.2541467e-01	  -1.0983805e-01	
   9.8065000e+01	  -9.3083705e-01	  -1.1280172e-01	
   9.8120000e+01	  -9.3762724e-01	  -1.1622272e-01	
   9.8175000e+01	  -9.4595095e-01	  -1.2008796e-01	
   9.8230000e+01	  -9.5592184e-01	  -1.2436883e-01	
   9.8285000e+01	  -9.6758854e-01	  -1.2901368e-01	
   9.8340000e+01	  -9.8092828e-01	  -1.3394507e-01	
   9.8395000e+01	  -9.9584741e-01	  -1.3906231e-01	
   9.8450000e+01	  -1.0121888e+00	  -1.4424911e-01	
   9.8505000e+01	  -1.0297447e+00	  -1.4938553e-01	
   9.8560000e+01	  -1.0482716e+00	  -1.5436105e-01	
   9.8615000e+01	  -1.0675036e+00	  -1.5908493e-01	
   9.8670000e+01	  -1.0871630e+00	  -1.6349095e-01	
   9.8725000e+01	  -1.1069674e+00	  -1.6753620e-01	
   9.8780000e+01	  -1.1266322e+00	  -1.7119519e-01	
   9.8835000e+01	  -1.1458735e+00	  -1.7445230e-01	
   9.8890000e+01	  -1.1644109e+00	  -1.7729614e-01	
   9.8945000e+01	  -1.1819737e+00	  -1.7971708e-01	
   9.9000000e+01	  -1.1983073e+00	  -1.8170701e-01	
   9.9055000e+01	  -1.2131809e+00	  -1.8325998e-01	
   9.9110000e+01	  -1.2263948e+00	  -1.8437279e-01	
   9.9165000e+01	  -1.2377879e+00	  -1.8504468e-01	
   9.9220000e+01	  -1.2472423e+00	  -1.8527580e-01	
   9.9275000e+01	  -1.2546830e+00	  -1.8506461e-01	
   9.9330000e+01	  -1.2600726e+00	  -1.8440420e-01	
   9.9385000e+01	  -1.2634020e+00	  -1.8327802e-01	
   9.9440000e+01	  -1.2646811e+00	  -1.8165600e-01	
   9.9495000e+01	  -1.2639317e+00	  -1.7949312e-01	
   9.9550000e+01	  -1.2611858e+00	  -1.7673140e-01	
   9.9605000e+01	  -1.2564857e+00	  -1.7330523e-01	
   9.9660000e+01	  -1.2498882e+00	  -1.6914903e-01	
   9.9715000e+01	  -1.2414695e+00	  -1.6420572e-01	
   9.9770000e+01	  -1.2313299e+00	  -1.5843375e-01	
   9.9825000e+01	  -1.2195957e+00	  -1.5181106e-01	
   9.9880000e+01	  -1.2064165e+00	  -1.4433493e-01	
   9.9935000e+01	  -1.1919586e+00	  -1.3601793e-01	
   9.9990000e+01	  -1.1763941e+00	  -1.2688153e-01	
   1.0004500e+02	  -1.1598908e+00	  -1.1695113e-01	
   1.0010000e+02	  -1.1426051e+00	  -1.0625485e-01	
   1.0015500e+02	  -1.1246799e+00	  -9.4825729e-02	
   1.0021000e+02	  -1.1062442e+00	  -8.2705740e-02	
   1.0026500e+02	  -1.0874159e+00	  -6.9950209e-02	
   1.0032000e+02	  -1.0683051e+00	  -5.6632256e-02	
   1.0037500e+02	  -1.0490169e+00	  -4.2846245e-02	
   1.0043000e+02	  -1.0296530e+00	  -2.8709084e-02	
   1.0048500e+02	  -1.0103084e+00	  -1.4358175e-02	
   1.0054000e+02	  -9.9106540e-01	   5.5014584e-05	
   1.0059500e+02	  -9.7198476e-01	   1.4375187e-02	
   1.0065000e+02	  -9.5309746e-01	   2.8454461e-02	
   1.0070500e+02	  -9.3440091e-01	   4.2161323e-02	
   1.0076000e+02	  -9.1585951e-01	   5.5385494e-02	
   1.0081500e+02	  -8.9741021e-01	   6.8038808e-02	
   1.0087000e+02	  -8.7897379e-01	   8.0053069e-02	
   1.0092500e+02	  -8.6047073e-01	   9.1375977e-02	
   1.0098000e+02	  -8.4183765e-01	   1.0196640e-01	
   1.0103500e+02	  -8.2303913e-01	   1.1179079e-01	
   1.0109000e+02	  -8.0407169e-01	   1.2082257e-01	
   1.0114500e+02	  -7.8495977e-01	   1.2904517e-01	
   1.0120000e+02	  -7.6574638e-01	   1.3645798e-01	
   1.0125500e+02	  -7.4648239e-01	   1.4308252e-01	
   1.0131000e+02	  -7.2721823e-01	   1.4896555e-01	
   1.0136500e+02	  -7.0800043e-01	   1.5417690e-01	
   1.0142000e+02	  -6.8887333e-01	   1.5880245e-01	
   1.0147500e+02	  -6.6988528e-01	   1.6293369e-01	
   1.0153000e+02	  -6.5109748e-01	   1.6665601e-01	
   1.0158500e+02	  -6.3259278e-01	   1.7003783e-01	
   1.0164000e+02	  -6.1448067e-01	   1.7312294e-01	
   1.0169500e+02	  -5.9689600e-01	   1.7592761e-01	
   1.0175000e+02	  -5.7999048e-01	   1.7844321e-01	
   1.0180500e+02	  -5.6391813e-01	   1.8064362e-01	
   1.0186000e+02	  -5.4881907e-01	   1.8249435e-01	
   1.0191500e+02	  -5.3480581e-01	   1.8396008e-01	
   1.0197000e+02	  -5.2195467e-01	   1.8500871e-01	
   1.0202500e+02	  -5.1030161e-01	   1.8561291e-01	
   1.0208000e+02	  -4.9984225e-01	   1.8575006e-01	
   1.0213500e+02	  -4.9053695e-01	   1.8540081e-01	
   1.0219000e+02	  -4.8232117e-01	   1.8454649e-01	
   1.0224500e+02	  -4.7511820e-01	   1.8316582e-01	
   1.0230000e+02	  -4.6885032e-01	   1.8123211e-01	
   1.0235500e+02	  -4.6344517e-01	   1.7871272e-01	
   1.0241000e+02	  -4.5883469e-01	   1.7557288e-01	
   1.0246500e+02	  -4.5494692e-01	   1.7178427e-01	
   1.0252000e+02	  -4.5169499e-01	   1.6733595e-01	
   1.0257500e+02	  -4.4896896e-01	   1.6224392e-01	
   1.0263000e+02	  -4.4663401e-01	   1.5655692e-01	
   1.0268500e+02	  -4.4453543e-01	   1.5035743e-01	
   1.0274000e+02	  -4.4250906e-01	   1.4375837e-01	
   1.0279500e+02	  -4.4039449e-01	   1.3689630e-01	
   1.0285000e+02	  -4.3804748e-01	   1.2992266e-01	
   1.0290500e+02	  -4.3534917e-01	   1.2299417e-01	
   1.0296000e+02	  -4.3221072e-01	   1.1626360e-01	
   1.0301500e+02	  -4.2857292e-01	   1.0987297e-01	
   1.0307000e+02	  -4.2440047e-01	   1.0395050e-01	
   1.0312500e+02	  -4.1967235e-01	   9.8611320e-02	
   1.0318000e+02	  -4.1437170e-01	   9.3959949e-02	
   1.0323500e+02	  -4.0847808e-01	   9.0092376e-02	
   1.0329000e+02	  -4.0196424e-01	   8.7095896e-02	
   1.0334500e+02	  -3.9479933e-01	   8.5045528e-02	
   1.0340000e+02	  -3.8695872e-01	   8.3997225e-02	
   1.0345500e+02	  -3.7843817e-01	   8.3979509e-02	
   1.0351000e+02	  -3.6926799e-01	   8.4985698e-02	
   1.0356500e+02	  -3.5952292e-01	   8.6968641e-02	
   1.0362000e+02	  -3.4932304e-01	   8.9840221e-02	
   1.0367500e+02	  -3.3882297e-01	   9.3477694e-02	
   1.0373000e+02	  -3.2819133e-01	   9.7736103e-02	
   1.0378500e+02	  -3.1758732e-01	   1.0246253e-01	
   1.0384000e+02	  -3.0714107e-01	   1.0750765e-01	
   1.0389500e+02	  -2.9694173e-01	   1.1273267e-01	
   1.0395000e+02	  -2.8703397e-01	   1.1801143e-01	
   1.0400500e+02	  -2.7742243e-01	   1.2322872e-01	
   1.0406000e+02	  -2.6808174e-01	   1.2827637e-01	
   1.0411500e+02	  -2.5896976e-01	   1.3304906e-01	
   1.0417000e+02	  -2.5004094e-01	   1.3744128e-01	
   1.0422500e+02	  -2.4125701e-01	   1.4134631e-01	
   1.0428000e+02	  -2.3259194e-01	   1.4465858e-01	
   1.0433500e+02	  -2.2403001e-01	   1.4728032e-01	
   1.0439000e+02	  -2.1555927e-01	   1.4913115e-01	
   1.0444500e+02	  -2.0716453e-01	   1.5015802e-01	
   1.0450000e+02	  -1.9882316e-01	   1.5034253e-01	
   1.0455500e+02	  -1.9050455e-01	   1.4970378e-01	
   1.0461000e+02	  -1.8217342e-01	   1.4829612e-01	
   1.0466500e+02	  -1.7379600e-01	   1.4620312e-01	
   1.0472000e+02	  -1.6534824e-01	   1.4352922e-01	
   1.0477500e+02	  -1.5682503e-01	   1.4038961e-01	
   1.0483000e+02	  -1.4824852e-01	   1.3689901e-01	
   1.0488500e+02	  -1.3967282e-01	   1.3316139e-01	
   1.0494000e+02	  -1.3118244e-01	   1.2926326e-01	
   1.0499500e+02	  -1.2288360e-01	   1.2527236e-01	
   1.0505000e+02	  -1.1488994e-01	   1.2124186e-01	
   1.0510500e+02	  -1.0730588e-01	   1.1721714e-01	
   1.0516000e+02	  -1.0021195e-01	   1.1324194e-01	
   1.0521500e+02	  -9.3655262e-02	   1.0936144e-01	
   1.0527000e+02	  -8.7647216e-02	   1.0562226e-01	
   1.0532500e+02	  -8.2168770e-02	   1.0207004e-01	
   1.0538000e+02	  -7.7182159e-02	   9.8744798e-02	
   1.0543500e+02	  -7.2646946e-02	   9.5673939e-02	
   1.0549000e+02	  -6.8536927e-02	   9.2864505e-02	
   1.0554500e+02	  -6.4853610e-02	   9.0297067e-02	
   1.0560000e+02	  -6.1632844e-02	   8.7923697e-02	
   1.0565500e+02	  -5.8942997e-02	   8.5671143e-02	
   1.0571000e+02	  -5.6875729e-02	   8.3449209e-02	
   1.0576500e+02	  -5.5532912e-02	   8.1162417e-02	
   1.0582000e+02	  -5.5014059e-02	   7.8721464e-02	
   1.0587500e+02	  -5.5407371e-02	   7.6051439e-02	
   1.0593000e+02	  -5.6785959e-02	   7.3095748e-02	
   1.0598500e+02	  -5.9209467e-02	   6.9815819e-02	
   1.0604000e+02	  -6.2729791e-02	   6.6187058e-02	
   1.0609500e+02	  -6.7398000e-02	   6.2192556e-02	
   1.0615000e+02	  -7.3269117e-02	   5.7817495e-02	
   1.0620500e+02	  -8.0402875e-02	   5.3046756e-02	
   1.0626000e+02	  -8.8860577e-02	   4.7866005e-02	
   1.0631500e+02	  -9.8698331e-02	   4.2265068e-02	
   1.0637000e+02	  -1.0995634e-01	   3.6242634e-02	
   1.0642500e+02	  -1.2264576e-01	   2.9811333e-02	
   1.0648000e+02	  -1.3673700e-01	   2.3001881e-02	
   1.0653500e+02	  -1.5215260e-01	   1.5865217e-02	
   1.0659000e+02	  -1.6876575e-01	   8.4720034e-03	
   1.0664500e+02	  -1.8640486e-01	   9.0887275e-04	
   1.0670000e+02	  -2.0486373e-01	  -6.7286104e-03	
   1.0675500e+02	  -2.2391557e-01	  -1.4345028e-02	
   1.0681000e+02	  -2.4332794e-01	  -2.1854082e-02	
   1.0686500e+02	  -2.6287524e-01	  -2.9185387e-02	
   1.0692000e+02	  -2.8234614e-01	  -3.6287324e-02	
   1.0697500e+02	  -3.0154402e-01	  -4.3124667e-02	
   1.0703000e+02	  -3.2028076e-01	  -4.9671339e-02	
   1.0708500e+02	  -3.3836832e-01	  -5.5900909e-02	
   1.0714000e+02	  -3.5561327e-01	  -6.1778350e-02	
   1.0719500e+02	  -3.7181750e-01	  -6.7255379e-02	
   1.0725000e+02	  -3.8678468e-01	  -7.2270091e-02	
   1.0730500e+02	  -4.0033060e-01	  -7.6750588e-02	
   1.0736000e+02	  -4.1229549e-01	  -8.0621807e-02	
   1.0741500e+02	  -4.2255659e-01	  -8.3814392e-02	
   1.0747000e+02	  -4.3103929e-01	  -8.6274386e-02	
   1.0752500e+02	  -4.3772408e-01	  -8.7972302e-02	
   1.0758000e+02	  -4.4264624e-01	  -8.8908974e-02	
   1.0763500e+02	  -4.4588628e-01	  -8.9115206e-02	
   1.0769000e+02	  -4.4755195e-01	  -8.8644350e-02	
   1.0774500e+02	  -4.4775630e-01	  -8.7560334e-02	
   1.0780000e+02	  -4.4659772e-01	  -8.5925252e-02	
   1.0785500e+02	  -4.4414747e-01	  -8.3789742e-02	
   1.0791000e+02	  -4.4044684e-01	  -8.1187939e-02	
   1.0796500e+02	  -4.3551366e-01	  -7.8137841e-02	
   1.0802000e+02	  -4.2935578e-01	  -7.4646975e-02	
   1.0807500e+02	  -4.2198791e-01	  -7.0722166e-02	
   1.0813000e+02	  -4.1344913e-01	  -6.6381503e-02	
   1.0818500e+02	  -4.0381896e-01	  -6.1666086e-02	
   1.0824000e+02	  -3.9322919e-01	  -5.6648819e-02	
   1.0829500e+02	  -3.8186742e-01	  -5.1437829e-02	
   1.0835000e+02	  -3.6996968e-01	  -4.6173264e-02	
   1.0840500e+02	  -3.5780286e-01	  -4.1017258e-02	
   1.0846000e+02	  -3.4564033e-01	  -3.6138022e-02	
   1.0851500e+02	  -3.3373649e-01	  -3.1691110e-02	
   1.0857000e+02	  -3.2230530e-01	  -2.7802687e-02	
   1.0862500e+02	  -3.1150654e-01	  -2.4558782e-02	
   1.0868000e+02	  -3.0144084e-01	  -2.2001769e-02	
   1.0873500e+02	  -2.9215314e-01	  -2.0133394e-02	
   1.0879000e+02	  -2.8364307e-01	  -1.8922901e-02	
   1.0884500e+02	  -2.7587965e-01	  -1.8318178e-02	
   1.0890000e+02	  -2.6881739e-01	  -1.8257607e-02	
   1.0895500e+02	  -2.6241178e-01	  -1.8681023e-02	
   1.0901000e+02	  -2.5663272e-01	  -1.9538437e-02	
   1.0906500e+02	  -2.5147286e-01	  -2.0794637e-02	
   1.0912000e+02	  -2.4694723e-01	  -2.2428228e-02	
   1.0917500e+02	  -2.4308434e-01	  -2.4425921e-02	
   1.0923000e+02	  -2.3991303e-01	  -2.6774864e-02	
   1.0928500e+02	  -2.3745009e-01	  -2.9455719e-02	
   1.0934000e+02	  -2.3569109e-01	  -3.2437953e-02	
   1.0939500e+02	  -2.3460584e-01	  -3.5678265e-02	
   1.0945000e+02	  -2.3413995e-01	  -3.9122806e-02	
   1.0950500e+02	  -2.3422270e-01	  -4.2712877e-02	
   1.0956000e+02	  -2.3477986e-01	  -4.6392735e-02	
   1.0961500e+02	  -2.3574891e-01	  -5.0117668e-02	
   1.0967000e+02	  -2.3709275e-01	  -5.3860600e-02	
   1.0972500e+02	  -2.3880791e-01	  -5.7615484e-02	
   1.0978000e+02	  -2.4092383e-01	  -6.1396031e-02	
   1.0983500e+02	  -2.4349261e-01	  -6.5229578e-02	
   1.0989000e+02	  -2.4657253e-01	  -6.9147473e-02	
   1.0994500e+02	  -2.5021026e-01	  -7.3174491e-02	
   1.1000000e+02	  -2.5442599e-01	  -7.7319897e-02	
   1.1005500e+02	  -2.5920415e-01	  -8.1572149e-02	
   1.1011000e+02	  -2.6449064e-01	  -8.5897960e-02	
   1.1016500e+02	  -2.7019693e-01	  -9.0245254e-02	
   1.1022000e+02	  -2.7621024e-01	  -9.4549013e-02	
   1.1027500e+02	  -2.8240753e-01	  -9.8738699e-02	
   1.1033000e+02	  -2.8867044e-01	  -1.0274527e-01	
   1.1038500e+02	  -2.9489724e-01	  -1.0650595e-01	
   1.1044000e+02	  -3.0100908e-01	  -1.0996610e-01	
   1.1049500e+02	  -3.0694875e-01	  -1.1307780e-01	
   1.1055000e+02	  -3.1267244e-01	  -1.1579569e-01	
   1.1060500e+02	  -3.1813754e-01	  -1.1807114e-01	
   1.1066000e+02	  -3.2329114e-01	  -1.1984785e-01	
   1.1071500e+02	  -3.2806283e-01	  -1.2106087e-01	
   1.1077000e+02	  -3.3236326e-01	  -1.2163915e-01	
   1.1082500e+02	  -3.3608801e-01	  -1.2151051e-01	
   1.1088000e+02	  -3.3912689e-01	  -1.2060804e-01	
   1.1093500e+02	  -3.4137734e-01	  -1.1887756e-01	
   1.1099000e+02	  -3.4276022e-01	  -1.1628610e-01	
   1.1104500e+02	  -3.4323550e-01	  -1.1283099e-01	
   1.1110000e+02	  -3.4281463e-01	  -1.0854725e-01	
   1.1115500e+02	  -3.4156509e-01	  -1.0350955e-01	
   1.1121000e+02	  -3.3960319e-01	  -9.7825798e-02	
   1.1126500e+02	  -3.3707560e-01	  -9.1624056e-02	
   1.1132000e+02	  -3.3413552e-01	  -8.5037059e-02	
   1.1137500e+02	  -3.3092078e-01	  -7.8189112e-02	
   1.1143000e+02	  -3.2753861e-01	  -7.1187208e-02	
   1.1148500e+02	  -3.2405797e-01	  -6.4116399e-02	
   1.1154000e+02	  -3.2050949e-01	  -5.7039071e-02	
   1.1159500e+02	  -3.1689286e-01	  -4.9997829e-02	
   1.1165000e+02	  -3.1318976e-01	  -4.3021323e-02	
   1.1170500e+02	  -3.0937943e-01	  -3.6132004e-02	
   1.1176000e+02	  -3.0545367e-01	  -2.9354473e-02	
   1.1181500e+02	  -3.0142799e-01	  -2.2722156e-02	
   1.1187000e+02	  -2.9734487e-01	  -1.6279559e-02	
   1.1192500e+02	  -2.9326713e-01	  -1.0078626e-02	
   1.1198000e+02	  -2.8926350e-01	  -4.1703042e-03	
   1.1203500e+02	  -2.8539169e-01	   1.4056344e-03	
   1.1209000e+02	  -2.8168470e-01	   6.6288605e-03	
   1.1214500e+02	  -2.7814407e-01	   1.1502010e-02	
   1.1220000e+02	  -2.7474135e-01	   1.6048566e-02	
   1.1225500e+02	  -2.7142667e-01	   2.0306576e-02	
   1.1231000e+02	  -2.6814193e-01	   2.4320534e-02	
   1.1236500e+02	  -2.6483668e-01	   2.8132949e-02	
   1.1242000e+02	  -2.6148385e-01	   3.1776326e-02	
   1.1247500e+02	  -2.5809226e-01	   3.5266351e-02	
   1.1253000e+02	  -2.5471307e-01	   3.8597361e-02	
   1.1258500e+02	  -2.5143863e-01	   4.1741621e-02	
   1.1264000e+02	  -2.4839261e-01	   4.4654039e-02	
   1.1269500e+02	  -2.4571211e-01	   4.7282455e-02	
   1.1275000e+02	  -2.4352562e-01	   4.9581042e-02	
   1.1280500e+02	  -2.4193261e-01	   5.1522780e-02	
   1.1286000e+02	  -2.4098932e-01	   5.3107933e-02	
   1.1291500e+02	  -2.4070243e-01	   5.4367389e-02	
   1.1297000e+02	  -2.4103062e-01	   5.5361000e-02	
   1.1302500e+02	  -2.4189284e-01	   5.6171570e-02	
   1.1308000e+02	  -2.4318177e-01	   5.6895445e-02	
   1.1313500e+02	  -2.4477947e-01	   5.7631115e-02	
   1.1319000e+02	  -2.4657204e-01	   5.8467451e-02	
   1.1324500e+02	  -2.4846124e-01	   5.9473368e-02	
   1.1330000e+02	  -2.5037106e-01	   6.0691171e-02	
   1.1335500e+02	  -2.5224773e-01	   6.2135456e-02	
   1.1341000e+02	  -2.5405297e-01	   6.3797616e-02	
   1.1346500e+02	  -2.5575300e-01	   6.5653960e-02	
   1.1352000e+02	  -2.5730714e-01	   6.7674864e-02	
   1.1357500e+02	  -2.5866000e-01	   6.9832960e-02	
   1.1363000e+02	  -2.5973893e-01	   7.2109019e-02	
   1.1368500e+02	  -2.6045724e-01	   7.4494684e-02	
   1.1374000e+02	  -2.6072181e-01	   7.6991765e-02	
   1.1379500e+02	  -2.6044293e-01	   7.9608300e-02	
   1.1385000e+02	  -2.5954395e-01	   8.2352275e-02	
   1.1390500e+02	  -2.5796812e-01	   8.5225006e-02	
   1.1396000e+02	  -2.5568065e-01	   8.8216823e-02	
   1.1401500e+02	  -2.5266505e-01	   9.1306938e-02	
   1.1407000e+02	  -2.4891513e-01	   9.4467513e-02	
   1.1412500e+02	  -2.4442614e-01	   9.7670239e-02	
   1.1418000e+02	  -2.3918835e-01	   1.0089296e-01	
   1.1423500e+02	  -2.3318463e-01	   1.0412441e-01	
   1.1429000e+02	  -2.2639147e-01	   1.0736620e-01	
   1.1434500e+02	  -2.1878278e-01	   1.1063187e-01	
   1.1440000e+02	  -2.1033628e-01	   1.1394362e-01	
   1.1445500e+02	  -2.0104144e-01	   1.1732703e-01	
   1.1451000e+02	  -1.9090710e-01	   1.2080534e-01	
   1.1456500e+02	  -1.7996609e-01	   1.2439461e-01	
   1.1462000e+02	  -1.6827473e-01	   1.2810211e-01	
   1.1467500e+02	  -1.5590561e-01	   1.3192919e-01	
   1.1473000e+02	  -1.4293492e-01	   1.3587826e-01	
   1.1478500e+02	  -1.2942706e-01	   1.3996139e-01	
   1.1484000e+02	  -1.1542036e-01	   1.4420722e-01	
   1.1489500e+02	  -1.0091726e-01	   1.4866399e-01	
   1.1495000e+02	  -8.5881341e-02	   1.5339756e-01	
   1.1500500e+02	  -7.0242499e-02	   1.5848488e-01	
   1.1506000e+02	  -5.3909673e-02	   1.6400391e-01	
   1.1511500e+02	  -3.6789727e-02	   1.7002144e-01	
   1.1517000e+02	  -1.8809568e-02	   1.7658017e-01	
   1.1522500e+02	   6.3147808e-05	   1.8368730e-01	
   1.1528000e+02	   1.9806131e-02	   1.9130795e-01	
   1.1533500e+02	   4.0339422e-02	   1.9936624e-01	
   1.1539000e+02	   6.1533626e-02	   2.0775471e-01	
   1.1544500e+02	   8.3226069e-02	   2.1634932e-01	
   1.1550000e+02	   1.0523970e-01	   2.2502543e-01	
   1.1555500e+02	   1.2739973e-01	   2.3367025e-01	
   1.1561000e+02	   1.4954455e-01	   2.4218972e-01	
   1.1566500e+02	   1.7152969e-01	   2.5050999e-01	
   1.1572000e+02	   1.9322566e-01	   2.5857489e-01	
   1.1577500e+02	   2.1451067e-01	   2.6634075e-01	
   1.1583000e+02	   2.3525982e-01	   2.7376932e-01	
   1.1588500e+02	   2.5533360e-01	   2.8081991e-01	
   1.1594000e+02	   2.7456939e-01	   2.8744275e-01	
   1.1599500e+02	   2.9277989e-01	   2.9357531e-01	
   1.1605000e+02	   3.0976116e-01	   2.9914379e-01	
   1.1610500e+02	   3.2531006e-01	   3.0407044e-01	
   1.1616000e+02	   3.3924646e-01	   3.0828453e-01	
   1.1621500e+02	   3.5143338e-01	   3.1173305e-01	
   1.1627000e+02	   3.6179062e-01	   3.1438885e-01	
   1.1632500e+02	   3.7030077e-01	   3.1625520e-01	
   1.1638000e+02	   3.7700815e-01	   3.1736650e-01	
   1.1643500e+02	   3.8201063e-01	   3.1778430e-01	
   1.1649000e+02	   3.8544468e-01	   3.1758900e-01	
   1.1654500e+02	   3.8746593e-01	   3.1686886e-01	
   1.1660000e+02	   3.8822903e-01	   3.1570873e-01	
   1.1665500e+02	   3.8787127e-01	   3.1418103e-01	
   1.1671000e+02	   3.8650398e-01	   3.1234085e-01	
   1.1676500e+02	   3.8421424e-01	   3.1022722e-01	
   1.1682000e+02	   3.8107578e-01	   3.0786989e-01	
   1.1687500e+02	   3.7716412e-01	   3.0529849e-01	
   1.1693000e+02	   3.7257005e-01	   3.0255037e-01	
   1.1698500e+02	   3.6740783e-01	   2.9967517e-01	
   1.1704000e+02	   3.6181636e-01	   2.9673559e-01	
   1.1709500e+02	   3.5595271e-01	   2.9380403e-01	
   1.1715000e+02	   3.4997996e-01	   2.9095567e-01	
   1.1720500e+02	   3.4405336e-01	   2.8825966e-01	
   1.1726000e+02	   3.3830860e-01	   2.8577083e-01	
   1.1731500e+02	   3.3285494e-01	   2.8352386e-01	
   1.1737000e+02	   3.2777412e-01	   2.8153118e-01	
   1.1742500e+02	   3.2312565e-01	   2.7978466e-01	
   1.1748000e+02	   3.1895729e-01	   2.7826046e-01	
   1.1753500e+02	   3.1531699e-01	   2.7692538e-01	
   1.1759000e+02	   3.1226161e-01	   2.7574267e-01	
   1.1764500e+02	   3.0986075e-01	   2.7467579e-01	
   1.1770000e+02	   3.0819559e-01	   2.7368991e-01	
   1.1775500e+02	   3.0735327e-01	   2.7275157e-01	
   1.1781000e+02	   3.0741705e-01	   2.7182749e-01	
   1.1786500e+02	   3.0845520e-01	   2.7088309e-01	
   1.1792000e+02	   3.1051226e-01	   2.6988215e-01	
   1.1797500e+02	   3.1360568e-01	   2.6878818e-01	
   1.1803000e+02	   3.1772884e-01	   2.6756826e-01	
   1.1808500e+02	   3.2286006e-01	   2.6619904e-01	
   1.1814000e+02	   3.2897440e-01	   2.6467336e-01	
   1.1819500e+02	   3.3605357e-01	   2.6300560e-01	
   1.1825000e+02	   3.4409084e-01	   2.6123381e-01	
   1.1830500e+02	   3.5309029e-01	   2.5941834e-01	
   1.1836000e+02	   3.6306102e-01	   2.5763723e-01	
   1.1841500e+02	   3.7400767e-01	   2.5597895e-01	
   1.1847000e+02	   3.8591846e-01	   2.5453330e-01	
   1.1852500e+02	   3.9875259e-01	   2.5338151e-01	
   1.1858000e+02	   4.1242842e-01	   2.5258651e-01	
   1.1863500e+02	   4.2681603e-01	   2.5218530e-01	
   1.1869000e+02	   4.4173831e-01	   2.5218620e-01	
   1.1874500e+02	   4.5698321e-01	   2.5257289e-01	
   1.1880000e+02	   4.7232542e-01	   2.5331418e-01	
   1.1885500e+02	   4.8755138e-01	   2.5437592e-01	
   1.1891000e+02	   5.0248151e-01	   2.5573150e-01	
   1.1896500e+02	   5.1698573e-01	   2.5736826e-01	
   1.1902000e+02	   5.3099010e-01	   2.5928873e-01	
   1.1907500e+02	   5.4447526e-01	   2.6150686e-01	
   1.1913000e+02	   5.5746816e-01	   2.6404113e-01	
   1.1918500e+02	   5.7002864e-01	   2.6690626e-01	
   1.1924000e+02	   5.8223269e-01	   2.7010416e-01	
   1.1929500e+02	   5.9415500e-01	   2.7361545e-01	
   1.1935000e+02	   6.0585381e-01	   2.7739310e-01	
   1.1940500e+02	   6.1736017e-01	   2.8135993e-01	
   1.1946000e+02	   6.2867338e-01	   2.8541085e-01	
   1.1951500e+02	   6.3976341e-01	   2.8942056e-01	
   1.1957000e+02	   6.5057987e-01	   2.9325584e-01	
   1.1962500e+02	   6.6106423e-01	   2.9678953e-01	
   1.1968000e+02	   6.7116113e-01	   2.9991273e-01	
   1.1973500e+02	   6.8082554e-01	   3.0254287e-01	
   1.1979000e+02	   6.9002409e-01	   3.0462670e-01	
   1.1984500e+02	   6.9873050e-01	   3.0613804e-01	
   1.1990000e+02	   7.0691646e-01	   3.0707120e-01	
   1.1995500e+02	   7.1454095e-01	   3.0743194e-01	
   1.2001000e+02	   7.2154081e-01	   3.0722829e-01	
   1.2006500e+02	   7.2782377e-01	   3.0646275e-01	
   1.2012000e+02	   7.3326580e-01	   3.0512719e-01	
   1.2017500e+02	   7.3771534e-01	   3.0320213e-01	
   1.2023000e+02	   7.4100606e-01	   3.0066168e-01	
   1.2028500e+02	   7.4297530e-01	   2.9748252e-01	
   1.2034000e+02	   7.4348269e-01	   2.9365299e-01	
   1.2039500e+02	   7.4242423e-01	   2.8917941e-01	
   1.2045000e+02	   7.3974012e-01	   2.8408851e-01	
   1.2050500e+02	   7.3541604e-01	   2.7842612e-01	
   1.2056000e+02	   7.2947937e-01	   2.7225277e-01	
   1.2061500e+02	   7.2199219e-01	   2.6563670e-01	
   1.2067000e+02	   7.1304235e-01	   2.5864520e-01	
   1.2072500e+02	   7.0273374e-01	   2.5133580e-01	
   1.2078000e+02	   6.9117732e-01	   2.4374968e-01	
   1.2083500e+02	   6.7848641e-01	   2.3590961e-01	
   1.2089000e+02	   6.6477855e-01	   2.2782386e-01	
   1.2094500e+02	   6.5018384e-01	   2.1949511e-01	
   1.2100000e+02	   6.3485597e-01	   2.1093200e-01	
   1.2105500e+02	   6.1898114e-01	   2.0216017e-01	
   1.2111000e+02	   6.0278117e-01	   1.9323014e-01	
   1.2116500e+02	   5.8650884e-01	   1.8422021e-01	
   1.2122000e+02	   5.7043626e-01	   1.7523386e-01	
   1.2127500e+02	   5.5483886e-01	   1.6639301e-01	
   1.2133000e+02	   5.3997861e-01	   1.5782894e-01	
   1.2138500e+02	   5.2608865e-01	   1.4967240e-01	
   1.2144000e+02	   5.1336162e-01	   1.4204434e-01	
   1.2149500e+02	   5.0194362e-01	   1.3504946e-01	
   1.2155000e+02	   4.9193530e-01	   1.2877345e-01	
   1.2160500e+02	   4.8339908e-01	   1.2328351e-01	
   1.2166000e+02	   4.7636987e-01	   1.1863075e-01	
   1.2171500e+02	   4.7086575e-01	   1.1485326e-01	
   1.2177000e+02	   4.6689551e-01	   1.1197831e-01	
   1.2182500e+02	   4.6446077e-01	   1.1002231e-01	
   1.2188000e+02	   4.6355309e-01	   1.0898815e-01	
   1.2193500e+02	   4.6414727e-01	   1.0886076e-01	
   1.2199000e+02	   4.6619273e-01	   1.0960160e-01	
   1.2204500e+02	   4.6960541e-01	   1.1114341e-01	
   1.2210000e+02	   4.7426344e-01	   1.1338798e-01	
   1.2215500e+02	   4.8001001e-01	   1.1620928e-01	
   1.2221000e+02	   4.8666411e-01	   1.1946256e-01	
   1.2226500e+02	   4.9403576e-01	   1.2299694e-01	
   1.2232000e+02	   5.0194051e-01	   1.2666794e-01	
   1.2237500e+02	   5.1020907e-01	   1.3034688e-01	
   1.2243000e+02	   5.1869124e-01	   1.3392589e-01	
   1.2248500e+02	   5.2725496e-01	   1.3731857e-01	
   1.2254000e+02	   5.3578166e-01	   1.4045757e-01	
   1.2259500e+02	   5.4415936e-01	   1.4329004e-01	
   1.2265000e+02	   5.5227561e-01	   1.4577175e-01	
   1.2270500e+02	   5.6001260e-01	   1.4786110e-01	
   1.2276000e+02	   5.6724600e-01	   1.4951507e-01	
   1.2281500e+02	   5.7384886e-01	   1.5068920e-01	
   1.2287000e+02	   5.7970098e-01	   1.5134234e-01	
   1.2292500e+02	   5.8470214e-01	   1.5144486e-01	
   1.2298000e+02	   5.8878623e-01	   1.5098813e-01	
   1.2303500e+02	   5.9193244e-01	   1.4999193e-01	
   1.2309000e+02	   5.9417040e-01	   1.4850774e-01	
   1.2314500e+02	   5.9557815e-01	   1.4661716e-01	
   1.2320000e+02	   5.9627350e-01	   1.4442622e-01	
   1.2325500e+02	   5.9640018e-01	   1.4205652e-01	
   1.2331000e+02	   5.9610915e-01	   1.3963352e-01	
   1.2336500e+02	   5.9553719e-01	   1.3727300e-01	
   1.2342000e+02	   5.9478699e-01	   1.3506770e-01	
   1.2347500e+02	   5.9391339e-01	   1.3307692e-01	
   1.2353000e+02	   5.9291862e-01	   1.3132199e-01	
   1.2358500e+02	   5.9175694e-01	   1.2978877e-01	
   1.2364000e+02	   5.9034747e-01	   1.2843627e-01	
   1.2369500e+02	   5.8859126e-01	   1.2720867e-01	
   1.2375000e+02	   5.8638776e-01	   1.2604729e-01	
   1.2380500e+02	   5.8364664e-01	   1.2489971e-01	
   1.2386000e+02	   5.8029370e-01	   1.2372471e-01	
   1.2391500e+02	   5.7627115e-01	   1.2249303e-01	
   1.2397000e+02	   5.7153345e-01	   1.2118480e-01	
   1.2402500e+02	   5.6604084e-01	   1.1978383e-01	
   1.2408000e+02	   5.5975301e-01	   1.1827045e-01	
   1.2413500e+02	   5.5262511e-01	   1.1661474e-01	
   1.2419000e+02	   5.4460798e-01	   1.1477267e-01	
   1.2424500e+02	   5.3565493e-01	   1.1268731e-01	
   1.2430000e+02	   5.2573612e-01	   1.1029584e-01	
   1.2435500e+02	   5.1485647e-01	   1.0754025e-01	
   1.2441000e+02	   5.0306998e-01	   1.0437810e-01	
   1.2446500e+02	   4.9048523e-01	   1.0079019e-01	
   1.2452000e+02	   4.7726195e-01	   9.6784124e-02	
   1.2457500e+02	   4.6360100e-01	   9.2393377e-02	
   1.2463000e+02	   4.4972937e-01	   8.7672159e-02	
   1.2468500e+02	   4.3588252e-01	   8.2687695e-02	
   1.2474000e+02	   4.2228772e-01	   7.7512869e-02	
   1.2479500e+02	   4.0915184e-01	   7.2221201e-02	
   1.2485000e+02	   3.9665539e-01	   6.6884564e-02	
   1.2490500e+02	   3.8495285e-01	   6.1573827e-02	
   1.2496000e+02	   3.7417784e-01	   5.6362146e-02	
   1.2501500e+02	   3.6444909e-01	   5.1328789e-02	
   1.2507000e+02	   3.5587339e-01	   4.6560720e-02	
   1.2512500e+02	   3.4854476e-01	   4.2151226e-02	
   1.2518000e+02	   3.4254068e-01	   3.8196416e-02	
   1.2523500e+02	   3.3791533e-01	   3.4789614e-02	
   1.2529000e+02	   3.3468956e-01	   3.2013173e-02	
   1.2534500e+02	   3.3283994e-01	   2.9928840e-02	
   1.2540000e+02	   3.3229128e-01	   2.8569269e-02	
   1.2545500e+02	   3.3291683e-01	   2.7933106e-02	
   1.2551000e+02	   3.3454758e-01	   2.7985113e-02	
   1.2556500e+02	   3.3698925e-01	   2.8661644e-02	
   1.2562000e+02	   3.4004280e-01	   2.9880038e-02	
   1.2567500e+02	   3.4352361e-01	   3.1549065e-02	
   1.2573000e+02	   3.4727493e-01	   3.3577784e-02	
   1.2578500e+02	   3.5117397e-01	   3.5881571e-02	
   1.2584000e+02	   3.5513110e-01	   3.8385024e-02	
   1.2589500e+02	   3.5908392e-01	   4.1021640e-02	
   1.2595000e+02	   3.6298700e-01	   4.3730666e-02	
   1.2600500e+02	   3.6679995e-01	   4.6452945e-02	
   1.2606000e+02	   3.7047799e-01	   4.9128251e-02	
   1.2611500e+02	   3.7396863e-01	   5.1695776e-02	
   1.2617000e+02	   3.7721524e-01	   5.4098143e-02	
   1.2622500e+02	   3.8016597e-01	   5.6288466e-02	
   1.2628000e+02	   3.8278564e-01	   5.8238960e-02	
   1.2633500e+02	   3.8506691e-01	   5.9948548e-02	
   1.2639000e+02	   3.8703725e-01	   6.1446814e-02	
   1.2644500e+02	   3.8875935e-01	   6.2792960e-02	
   1.2650000e+02	   3.9032404e-01	   6.4070026e-02	
   1.2655500e+02	   3.9183624e-01	   6.5375157e-02	
   1.2661000e+02	   3.9339609e-01	   6.6806775e-02	
   1.2666500e+02	   3.9507857e-01	   6.8450326e-02	
   1.2672000e+02	   3.9691527e-01	   7.0365123e-02	
   1.2677500e+02	   3.9888116e-01	   7.2574685e-02	
   1.2683000e+02	   4.0088968e-01	   7.5062534e-02	
