
0   2   1   4	
   0.0000000e+00	   5.7386746e-01	   1.1677239e+00	  -2.6181541e-02	
   5.5000000e-02	   5.4798063e-01	   1.1321015e+00	  -4.5751696e-02	
   1.1000000e-01	   5.2336083e-01	   1.0993180e+00	  -6.4425093e-02	
   1.6500000e-01	   5.0064415e-01	   1.0700861e+00	  -8.1593382e-02	
   2.2000000e-01	   4.8039391e-01	   1.0450086e+00	  -9.6707560e-02	
   2.7500000e-01	   4.6307319e-01	   1.0245504e+00	  -1.0930505e-01	
   3.3000000e-01	   4.4902265e-01	   1.0090196e+00	  -1.1903233e-01	
   3.8500000e-01	   4.3844711e-01	   9.9855838e-01	  -1.2565940e-01	
   4.4000000e-01	   4.3141413e-01	   9.9314772e-01	  -1.2908277e-01	
   4.9500000e-01	   4.2786483e-01	   9.9262254e-01	  -1.2931700e-01	
   5.5000000e-01	   4.2763464e-01	   9.9669524e-01	  -1.2647775e-01	
   6.0500000e-01	   4.3047897e-01	   1.0049831e+00	  -1.2076062e-01	
   6.6000000e-01	   4.3609863e-01	   1.0170348e+00	  -1.1241910e-01	
   7.1500000e-01	   4.4416095e-01	   1.0323517e+00	  -1.0174410e-01	
   7.7000000e-01	   4.5431380e-01	   1.0504006e+00	  -8.9046344e-02	
   8.2500000e-01	   4.6619248e-01	   1.0706214e+00	  -7.4642970e-02	
   8.8000000e-01	   4.7942037e-01	   1.0924268e+00	  -5.8849094e-02	
   9.3500000e-01	   4.9360579e-01	   1.1151991e+00	  -4.1974739e-02	
   9.9000000e-01	   5.0833780e-01	   1.1382825e+00	  -2.4325983e-02	
   1.0450000e+00	   5.2318364e-01	   1.1609782e+00	  -6.2076212e-03	
   1.1000000e+00	   5.3768940e-01	   1.1825461e+00	   1.2075960e-02	
   1.1550000e+00	   5.5138591e-01	   1.2022165e+00	   3.0224497e-02	
   1.2100000e+00	   5.6380101e-01	   1.2192110e+00	   4.7951201e-02	
   1.2650000e+00	   5.7447663e-01	   1.2327688e+00	   6.4995559e-02	
   1.3200000e+00	   5.8298768e-01	   1.2421770e+00	   8.1135149e-02	
   1.3750000e+00	   5.8895928e-01	   1.2468003e+00	   9.6193626e-02	
   1.4300000e+00	   5.9208101e-01	   1.2461099e+00	   1.1004524e-01	
   1.4850000e+00	   5.9211697e-01	   1.2397101e+00	   1.2261696e-01	
   1.5400000e+00	   5.8891146e-01	   1.2273614e+00	   1.3388829e-01	
   1.5950000e+00	   5.8239123e-01	   1.2089962e+00	   1.4388832e-01	
   1.6500000e+00	   5.7256708e-01	   1.1847306e+00	   1.5269040e-01	
   1.7050000e+00	   5.5953716e-01	   1.1548734e+00	   1.6040604e-01	
   1.7600000e+00	   5.4349379e-01	   1.1199349e+00	   1.6718075e-01	
   1.8150000e+00	   5.2473410e-01	   1.0806368e+00	   1.7319422e-01	
   1.8700000e+00	   5.0367292e-01	   1.0379211e+00	   1.7866354e-01	
   1.9250000e+00	   4.8085218e-01	   9.9295256e-01	   1.8384505e-01	
   1.9800000e+00	   4.5694051e-01	   9.4710810e-01	   1.8903124e-01	
   2.0350000e+00	   4.3271946e-01	   9.0194752e-01	   1.9454178e-01	
   2.0900000e+00	   4.0905610e-01	   8.5916592e-01	   2.0070946e-01	
   2.1450000e+00	   3.8686290e-01	   8.2052650e-01	   2.0786107e-01	
   2.2000000e+00	   3.6704563e-01	   7.8777214e-01	   2.1629306e-01	
   2.2550000e+00	   3.5044204e-01	   7.6251493e-01	   2.2624401e-01	
   2.3100000e+00	   3.3775435e-01	   7.4610603e-01	   2.3786792e-01	
   2.3650000e+00	   3.2948120e-01	   7.3949606e-01	   2.5121195e-01	
   2.4200000e+00	   3.2585938e-01	   7.4310798e-01	   2.6620248e-01	
   2.4750000e+00	   3.2682984e-01	   7.5675350e-01	   2.8264436e-01	
   2.5300000e+00	   3.3203995e-01	   7.7961884e-01	   3.0023760e-01	
   2.5850000e+00	   3.4088441e-01	   8.1032952e-01	   3.1860959e-01	
   2.6400000e+00	   3.5257657e-01	   8.4708299e-01	   3.3735477e-01	
   2.6950000e+00	   3.6623348e-01	   8.8782026e-01	   3.5607170e-01	
   2.7500000e+00	   3.8095673e-01	   9.3040055e-01	   3.7439194e-01	
   2.8050000e+00	   3.9589788e-01	   9.7275346e-01	   3.9199905e-01	
   2.8600000e+00	   4.1030537e-01	   1.0129992e+00	   4.0863793e-01	
   2.9150000e+00	   4.2355452e-01	   1.0495372e+00	   4.2411624e-01	
   2.9700000e+00	   4.3516372e-01	   1.0811086e+00	   4.3830091e-01	
   3.0250000e+00	   4.4479983e-01	   1.1068349e+00	   4.5111186e-01	
   3.0800000e+00	   4.5227542e-01	   1.1262373e+00	   4.6251328e-01	
   3.1350000e+00	   4.5754047e-01	   1.1392383e+00	   4.7250303e-01	
   3.1900000e+00	   4.6067090e-01	   1.1461510e+00	   4.8110305e-01	
   3.2450000e+00	   4.6185699e-01	   1.1476592e+00	   4.8835450e-01	
   3.3000000e+00	   4.6139443e-01	   1.1447888e+00	   4.9432016e-01	
   3.3550000e+00	   4.5967891e-01	   1.1388693e+00	   4.9909339e-01	
   3.4100000e+00	   4.5720094e-01	   1.1314835e+00	   5.0281023e-01	
   3.4650000e+00	   4.5453400e-01	   1.1243996e+00	   5.0565804e-01	
   3.5200000e+00	   4.5230904e-01	   1.1194805e+00	   5.0787523e-01	
   3.5750000e+00	   4.5117239e-01	   1.1185661e+00	   5.0974057e-01	
   3.6300000e+00	   4.5173018e-01	   1.1233336e+00	   5.1155406e-01	
   3.6850000e+00	   4.5448812e-01	   1.1351541e+00	   5.1361154e-01	
   3.7400000e+00	   4.5979906e-01	   1.1549722e+00	   5.1617654e-01	
   3.7950000e+00	   4.6782898e-01	   1.1832339e+00	   5.1945432e-01	
   3.8500000e+00	   4.7854741e-01	   1.2198751e+00	   5.2357282e-01	
   3.9050000e+00	   4.9174186e-01	   1.2643686e+00	   5.2857290e-01	
   3.9600000e+00	   5.0704901e-01	   1.3158097e+00	   5.3440688e-01	
   4.0150000e+00	   5.2399337e-01	   1.3730180e+00	   5.4094380e-01	
   4.0700000e+00	   5.4202793e-01	   1.4346361e+00	   5.4798047e-01	
   4.1250000e+00	   5.6057553e-01	   1.4992218e+00	   5.5525988e-01	
   4.1800000e+00	   5.7907090e-01	   1.5653305e+00	   5.6249815e-01	
   4.2350000e+00	   5.9700041e-01	   1.6315876e+00	   5.6941789e-01	
   4.2900000e+00	   6.1393506e-01	   1.6967461e+00	   5.7578032e-01	
   4.3450000e+00	   6.2955208e-01	   1.7597267e+00	   5.8140873e-01	
   4.4000000e+00	   6.4364352e-01	   1.8196397e+00	   5.8620000e-01	
   4.4550000e+00	   6.5611284e-01	   1.8757906e+00	   5.9012534e-01	
   4.5100000e+00	   6.6696183e-01	   1.9276702e+00	   5.9322292e-01	
   4.5650000e+00	   6.7626986e-01	   1.9749327e+00	   5.9558500e-01	
   4.6200000e+00	   6.8416761e-01	   2.0173652e+00	   5.9734055e-01	
   4.6750000e+00	   6.9080792e-01	   2.0548514e+00	   5.9863388e-01	
   4.7300000e+00	   6.9633709e-01	   2.0873347e+00	   5.9960109e-01	
   4.7850000e+00	   7.0086993e-01	   2.1147836e+00	   6.0034866e-01	
   4.8400000e+00	   7.0447230e-01	   2.1371644e+00	   6.0093912e-01	
   4.8950000e+00	   7.0715408e-01	   2.1544247e+00	   6.0138702e-01	
   4.9500000e+00	   7.0887311e-01	   2.1664922e+00	   6.0166508e-01	
   5.0050000e+00	   7.0954692e-01	   2.1732840e+00	   6.0171696e-01	
   5.0600000e+00	   7.0906784e-01	   2.1747239e+00	   6.0147153e-01	
   5.1150000e+00	   7.0731697e-01	   2.1707617e+00	   6.0085348e-01	
   5.1700000e+00	   7.0417478e-01	   2.1613900e+00	   5.9978853e-01	
   5.2250000e+00	   6.9952764e-01	   2.1466560e+00	   5.9820463e-01	
   5.2800000e+00	   6.9327090e-01	   2.1266681e+00	   5.9603192e-01	
   5.3350000e+00	   6.8531005e-01	   2.1015982e+00	   5.9320241e-01	
   5.3900000e+00	   6.7556171e-01	   2.0716831e+00	   5.8964937e-01	
   5.4450000e+00	   6.6395712e-01	   2.0372253e+00	   5.8530683e-01	
   5.5000000e+00	   6.5045023e-01	   1.9985956e+00	   5.8011115e-01	
   5.5550000e+00	   6.3503126e-01	   1.9562375e+00	   5.7400696e-01	
   5.6100000e+00	   6.1774465e-01	   1.9106769e+00	   5.6695851e-01	
   5.6650000e+00	   5.9870836e-01	   1.8625335e+00	   5.5896471e-01	
   5.7200000e+00	   5.7813009e-01	   1.8125333e+00	   5.5007357e-01	
   5.7750000e+00	   5.5631732e-01	   1.7615131e+00	   5.4039173e-01	
   5.8300000e+00	   5.3367879e-01	   1.7104159e+00	   5.3008649e-01	
   5.8850000e+00	   5.1071592e-01	   1.6602705e+00	   5.1938090e-01	
   5.9400000e+00	   4.8800331e-01	   1.6121580e+00	   5.0854318e-01	
   5.9950000e+00	   4.6615913e-01	   1.5671669e+00	   4.9787081e-01	
   6.0500000e+00	   4.4580738e-01	   1.5263373e+00	   4.8766971e-01	
   6.1050000e+00	   4.2753453e-01	   1.4905977e+00	   4.7823040e-01	
   6.1600000e+00	   4.1184302e-01	   1.4606966e+00	   4.6980456e-01	
   6.2150000e+00	   3.9910455e-01	   1.4371282e+00	   4.6258439e-01	
   6.2700000e+00	   3.8951832e-01	   1.4200607e+00	   4.5668727e-01	
   6.3250000e+00	   3.8308327e-01	   1.4092796e+00	   4.5214901e-01	
   6.3800000e+00	   3.7959381e-01	   1.4041676e+00	   4.4892895e-01	
   6.4350000e+00	   3.7866350e-01	   1.4037398e+00	   4.4692634e-01	
   6.4900000e+00	   3.7977224e-01	   1.4067312e+00	   4.4600308e-01	
   6.5450000e+00	   3.8232508e-01	   1.4117164e+00	   4.4600708e-01	
   6.6000000e+00	   3.8570886e-01	   1.4172289e+00	   4.4679223e-01	
   6.6550000e+00	   3.8933724e-01	   1.4218618e+00	   4.4823275e-01	
   6.7100000e+00	   3.9268154e-01	   1.4243438e+00	   4.5023029e-01	
   6.7650000e+00	   3.9528901e-01	   1.4235952e+00	   4.5271199e-01	
   6.8200000e+00	   3.9679147e-01	   1.4187669e+00	   4.5561996e-01	
   6.8750000e+00	   3.9690756e-01	   1.4092665e+00	   4.5889556e-01	
   6.9300000e+00	   3.9544126e-01	   1.3947734e+00	   4.6246417e-01	
   6.9850000e+00	   3.9227971e-01	   1.3752476e+00	   4.6622520e-01	
   7.0400000e+00	   3.8739306e-01	   1.3509313e+00	   4.7004985e-01	
   7.0950000e+00	   3.8083760e-01	   1.3223428e+00	   4.7378665e-01	
   7.1500000e+00	   3.7276039e-01	   1.2902582e+00	   4.7727390e-01	
   7.2050000e+00	   3.6339983e-01	   1.2556777e+00	   4.8035611e-01	
   7.2600000e+00	   3.5307569e-01	   1.2197669e+00	   4.8290051e-01	
   7.3150000e+00	   3.4216399e-01	   1.1837693e+00	   4.8480840e-01	
   7.3700000e+00	   3.3105721e-01	   1.1488933e+00	   4.8601830e-01	
   7.4250000e+00	   3.2011724e-01	   1.1161933e+00	   4.8650084e-01	
   7.4800000e+00	   3.0963303e-01	   1.0864717e+00	   4.8624904e-01	
   7.5350000e+00	   2.9979394e-01	   1.0602267e+00	   4.8526780e-01	
   7.5900000e+00	   2.9068345e-01	   1.0376535e+00	   4.8356513e-01	
   7.6450000e+00	   2.8229211e-01	   1.0186952e+00	   4.8114592e-01	
   7.7000000e+00	   2.7454248e-01	   1.0031204e+00	   4.7800713e-01	
   7.7550000e+00	   2.6731705e-01	   9.9060368e-01	   4.7413364e-01	
   7.8100000e+00	   2.6048341e-01	   9.8079337e-01	   4.6949619e-01	
   7.8650000e+00	   2.5391638e-01	   9.7336188e-01	   4.6405481e-01	
   7.9200000e+00	   2.4751713e-01	   9.6804041e-01	   4.5776935e-01	
   7.9750000e+00	   2.4122558e-01	   9.6463375e-01	   4.5061445e-01	
   8.0300000e+00	   2.3501994e-01	   9.6300915e-01	   4.4259387e-01	
   8.0850000e+00	   2.2889877e-01	   9.6305233e-01	   4.3374873e-01	
   8.1400000e+00	   2.2284520e-01	   9.6458978e-01	   4.2415656e-01	
   8.1950000e+00	   2.1677949e-01	   9.6728847e-01	   4.1392212e-01	
   8.2500000e+00	   2.1051182e-01	   9.7055767e-01	   4.0316423e-01	
   8.3050000e+00	   2.0370691e-01	   9.7347949e-01	   3.9200198e-01	
   8.3600000e+00	   1.9586836e-01	   9.7478676e-01	   3.8054160e-01	
   8.4150000e+00	   1.8634683e-01	   9.7289636e-01	   3.6886418e-01	
   8.4700000e+00	   1.7437334e-01	   9.6599566e-01	   3.5701488e-01	
   8.5250000e+00	   1.5911233e-01	   9.5216707e-01	   3.4499411e-01	
   8.5800000e+00	   1.3972553e-01	   9.2952905e-01	   3.3275226e-01	
   8.6350000e+00	   1.1543928e-01	   8.9637561e-01	   3.2019178e-01	
   8.6900000e+00	   8.5611467e-02	   8.5130416e-01	   3.0718093e-01	
   8.7450000e+00	   4.9793519e-02	   7.9332511e-01	   2.9357776e-01	
   8.8000000e+00	   7.7809780e-03	   7.2194727e-01	   2.7925815e-01	
   8.8550000e+00	  -4.0352793e-02	   6.3723395e-01	   2.6414085e-01	
   8.9100000e+00	  -9.4243373e-02	   5.3982496e-01	   2.4820440e-01	
   8.9650000e+00	  -1.5324445e-01	   4.3092125e-01	   2.3149385e-01	
   9.0200000e+00	  -2.1645969e-01	   3.1222993e-01	   2.1411756e-01	
   9.0750000e+00	  -2.8279583e-01	   1.8586886e-01	   1.9623485e-01	
   9.1300000e+00	  -3.5103265e-01	   5.4234443e-02	   1.7803612e-01	
   9.1850000e+00	  -4.1990105e-01	  -8.0150973e-02	   1.5971867e-01	
   9.2400000e+00	  -4.8815721e-01	  -2.1478602e-01	   1.4146380e-01	
   9.2950000e+00	  -5.5464225e-01	  -3.4730944e-01	   1.2342162e-01	
   9.3500000e+00	  -6.1832210e-01	  -4.7558346e-01	   1.0570768e-01	
   9.4050000e+00	  -6.7830797e-01	  -5.9774534e-01	   8.8411204e-02	
   9.4600000e+00	  -7.3386135e-01	  -7.1223425e-01	   7.1611437e-02	
   9.5150000e+00	  -7.8438940e-01	  -8.1780044e-01	   5.5395948e-02	
   9.5700000e+00	  -8.2943580e-01	  -9.1350133e-01	   3.9875113e-02	
   9.6250000e+00	  -8.6867099e-01	  -9.9868861e-01	   2.5188789e-02	
   9.6800000e+00	  -9.0188445e-01	  -1.0729898e+00	   1.1504354e-02	
   9.7350000e+00	  -9.2898074e-01	  -1.1362881e+00	  -9.9247890e-04	
   9.7900000e+00	  -9.4997933e-01	  -1.1887020e+00	  -1.2111548e-02	
   9.8450000e+00	  -9.6501615e-01	  -1.2305673e+00	  -2.1673784e-02	
   9.9000000e+00	  -9.7434387e-01	  -1.2624170e+00	  -2.9526315e-02	
   9.9550000e+00	  -9.7832827e-01	  -1.2849595e+00	  -3.5555892e-02	
   1.0010000e+01	  -9.7743784e-01	  -1.2990502e+00	  -3.9698200e-02	
   1.0065000e+01	  -9.7222497e-01	  -1.3056572e+00	  -4.1939519e-02	
   1.0120000e+01	  -9.6329860e-01	  -1.3058212e+00	  -4.2309265e-02	
   1.0175000e+01	  -9.5129175e-01	  -1.3006113e+00	  -4.0865818e-02	
   1.0230000e+01	  -9.3682896e-01	  -1.2910839e+00	  -3.7679816e-02	
   1.0285000e+01	  -9.2049789e-01	  -1.2782473e+00	  -3.2818122e-02	
   1.0340000e+01	  -9.0282828e-01	  -1.2630374e+00	  -2.6331439e-02	
   1.0395000e+01	  -8.8428003e-01	  -1.2463043e+00	  -1.8249601e-02	
   1.0450000e+01	  -8.6524175e-01	  -1.2288103e+00	  -8.5874881e-03	
   1.0505000e+01	  -8.4603822e-01	  -1.2112380e+00	   2.6391693e-03	
   1.0560000e+01	  -8.2694395e-01	  -1.1942032e+00	   1.5391978e-02	
   1.0615000e+01	  -8.0819950e-01	  -1.1782698e+00	   2.9586559e-02	
   1.0670000e+01	  -7.9002817e-01	  -1.1639654e+00	   4.5072091e-02	
   1.0725000e+01	  -7.7264980e-01	  -1.1517925e+00	   6.1618264e-02	
   1.0780000e+01	  -7.5628788e-01	  -1.1422329e+00	   7.8914219e-02	
   1.0835000e+01	  -7.4116741e-01	  -1.1357389e+00	   9.6582712e-02	
   1.0890000e+01	  -7.2750394e-01	  -1.1327149e+00	   1.1420863e-01	
   1.0945000e+01	  -7.1548771e-01	  -1.1334923e+00	   1.3137578e-01	
   1.1000000e+01	  -7.0526770e-01	  -1.1383054e+00	   1.4770358e-01	
   1.1055000e+01	  -6.9693917e-01	  -1.1472711e+00	   1.6287722e-01	
   1.1110000e+01	  -6.9053670e-01	  -1.1603768e+00	   1.7666726e-01	
   1.1165000e+01	  -6.8603334e-01	  -1.1774759e+00	   1.8893731e-01	
   1.1220000e+01	  -6.8334600e-01	  -1.1982922e+00	   1.9964005e-01	
   1.1275000e+01	  -6.8234600e-01	  -1.2224347e+00	   2.0880326e-01	
   1.1330000e+01	  -6.8287399e-01	  -1.2494197e+00	   2.1650986e-01	
   1.1385000e+01	  -6.8475715e-01	  -1.2786979e+00	   2.2287645e-01	
   1.1440000e+01	  -6.8782658e-01	  -1.3096828e+00	   2.2803321e-01	
   1.1495000e+01	  -6.9193172e-01	  -1.3417742e+00	   2.3210657e-01	
   1.1550000e+01	  -6.9694903e-01	  -1.3743760e+00	   2.3520639e-01	
   1.1605000e+01	  -7.0278237e-01	  -1.4069023e+00	   2.3741956e-01	
   1.1660000e+01	  -7.0935449e-01	  -1.4387734e+00	   2.3881098e-01	
   1.1715000e+01	  -7.1659267e-01	  -1.4694070e+00	   2.3943004e-01	
   1.1770000e+01	  -7.2441310e-01	  -1.4982132e+00	   2.3931946e-01	
   1.1825000e+01	  -7.3270815e-01	  -1.5245953e+00	   2.3852353e-01	
   1.1880000e+01	  -7.4133812e-01	  -1.5479615e+00	   2.3709443e-01	
   1.1935000e+01	  -7.5012835e-01	  -1.5677423e+00	   2.3509679e-01	
   1.1990000e+01	  -7.5887120e-01	  -1.5834149e+00	   2.3261068e-01	
   1.2045000e+01	  -7.6733215e-01	  -1.5945279e+00	   2.2973319e-01	
   1.2100000e+01	  -7.7525941e-01	  -1.6007244e+00	   2.2657894e-01	
   1.2155000e+01	  -7.8239658e-01	  -1.6017615e+00	   2.2327892e-01	
   1.2210000e+01	  -7.8849589e-01	  -1.5975213e+00	   2.1997671e-01	
   1.2265000e+01	  -7.9332874e-01	  -1.5880131e+00	   2.1682258e-01	
   1.2320000e+01	  -7.9669114e-01	  -1.5733654e+00	   2.1396795e-01	
   1.2375000e+01	  -7.9840409e-01	  -1.5538119e+00	   2.1156330e-01	
   1.2430000e+01	  -7.9831144e-01	  -1.5296727e+00	   2.0975956e-01	
   1.2485000e+01	  -7.9627791e-01	  -1.5013334e+00	   2.0871004e-01	
   1.2540000e+01	  -7.9218925e-01	  -1.4692254e+00	   2.0856891e-01	
   1.2595000e+01	  -7.8595525e-01	  -1.4338091e+00	   2.0948543e-01	
   1.2650000e+01	  -7.7751545e-01	  -1.3955600e+00	   2.1159392e-01	
   1.2705000e+01	  -7.6684734e-01	  -1.3549596e+00	   2.1499927e-01	
   1.2760000e+01	  -7.5397706e-01	  -1.3124907e+00	   2.1975838e-01	
   1.2815000e+01	  -7.3899103e-01	  -1.2686364e+00	   2.2586137e-01	
   1.2870000e+01	  -7.2204540e-01	  -1.2238790e+00	   2.3321893e-01	
   1.2925000e+01	  -7.0336987e-01	  -1.1786966e+00	   2.4165973e-01	
   1.2980000e+01	  -6.8326249e-01	  -1.1335571e+00	   2.5093818e-01	
   1.3035000e+01	  -6.6207411e-01	  -1.0889119e+00	   2.6075143e-01	
   1.3090000e+01	  -6.4018463e-01	  -1.0451877e+00	   2.7076370e-01	
   1.3145000e+01	  -6.1797703e-01	  -1.0027796e+00	   2.8063414e-01	
   1.3200000e+01	  -5.9581486e-01	  -9.6204589e-01	   2.9004243e-01	
   1.3255000e+01	  -5.7402726e-01	  -9.2330738e-01	   2.9870837e-01	
   1.3310000e+01	  -5.5290273e-01	  -8.8685013e-01	   3.0640356e-01	
   1.3365000e+01	  -5.3269111e-01	  -8.5293095e-01	   3.1295409e-01	
   1.3420000e+01	  -5.1361200e-01	  -8.2178376e-01	   3.1823473e-01	
   1.3475000e+01	  -4.9586642e-01	  -7.9362545e-01	   3.2215730e-01	
   1.3530000e+01	  -4.7964816e-01	  -7.6866077e-01	   3.2465646e-01	
   1.3585000e+01	  -4.6515142e-01	  -7.4708524e-01	   3.2567630e-01	
   1.3640000e+01	  -4.5257137e-01	  -7.2908422e-01	   3.2516119e-01	
   1.3695000e+01	  -4.4209513e-01	  -7.1482532e-01	   3.2305431e-01	
   1.3750000e+01	  -4.3388384e-01	  -7.0444362e-01	   3.1930468e-01	
   1.3805000e+01	  -4.2805090e-01	  -6.9802276e-01	   3.1388100e-01	
   1.3860000e+01	  -4.2464320e-01	  -6.9557678e-01	   3.0678823e-01	
   1.3915000e+01	  -4.2363039e-01	  -6.9703590e-01	   2.9808193e-01	
   1.3970000e+01	  -4.2490383e-01	  -7.0223935e-01	   2.8787597e-01	
   1.4025000e+01	  -4.2828489e-01	  -7.1093801e-01	   2.7634108e-01	
   1.4080000e+01	  -4.3354173e-01	  -7.2280789e-01	   2.6369444e-01	
   1.4135000e+01	  -4.4041176e-01	  -7.3747212e-01	   2.5018283e-01	
   1.4190000e+01	  -4.4862654e-01	  -7.5452877e-01	   2.3606219e-01	
   1.4245000e+01	  -4.5793579e-01	  -7.7358185e-01	   2.2157685e-01	
   1.4300000e+01	  -4.6812779e-01	  -7.9427140e-01	   2.0694107e-01	
   1.4355000e+01	  -4.7904401e-01	  -8.1629772e-01	   1.9232488e-01	
   1.4410000e+01	  -4.9058628e-01	  -8.3943582e-01	   1.7784568e-01	
   1.4465000e+01	  -5.0271536e-01	  -8.6353857e-01	   1.6356689e-01	
   1.4520000e+01	  -5.1544071e-01	  -8.8852884e-01	   1.4950502e-01	
   1.4575000e+01	  -5.2880310e-01	  -9.1438263e-01	   1.3564408e-01	
   1.4630000e+01	  -5.4285379e-01	  -9.4110699e-01	   1.2195293e-01	
   1.4685000e+01	  -5.5763481e-01	  -9.6871644e-01	   1.0839991e-01	
   1.4740000e+01	  -5.7316389e-01	  -9.9721076e-01	   9.4962617e-02	
   1.4795000e+01	  -5.8942656e-01	  -1.0265575e+00	   8.1633757e-02	
   1.4850000e+01	  -6.0637629e-01	  -1.0566833e+00	   6.8422919e-02	
   1.4905000e+01	  -6.2394243e-01	  -1.0874758e+00	   5.5352864e-02	
   1.4960000e+01	  -6.4204370e-01	  -1.1187939e+00	   4.2449541e-02	
   1.5015000e+01	  -6.6060424e-01	  -1.1504830e+00	   2.9727806e-02	
   1.5070000e+01	  -6.7956909e-01	  -1.1823905e+00	   1.7176325e-02	
   1.5125000e+01	  -6.9891651e-01	  -1.2143807e+00	   4.7447556e-03	
   1.5180000e+01	  -7.1866450e-01	  -1.2463479e+00	  -7.6645991e-03	
   1.5235000e+01	  -7.3886881e-01	  -1.2782237e+00	  -2.0199118e-02	
   1.5290000e+01	  -7.5961204e-01	  -1.3099751e+00	  -3.3051328e-02	
   1.5345000e+01	  -7.8098662e-01	  -1.3415951e+00	  -4.6447843e-02	
   1.5400000e+01	  -8.0307700e-01	  -1.3730909e+00	  -6.0633504e-02	
   1.5455000e+01	  -8.2594546e-01	  -1.4044743e+00	  -7.5853533e-02	
   1.5510000e+01	  -8.4962383e-01	  -1.4357561e+00	  -9.2336343e-02	
   1.5565000e+01	  -8.7411055e-01	  -1.4669403e+00	  -1.1027839e-01	
   1.5620000e+01	  -8.9937212e-01	  -1.4980174e+00	  -1.2983229e-01	
   1.5675000e+01	  -9.2534825e-01	  -1.5289610e+00	  -1.5110071e-01	
   1.5730000e+01	  -9.5196052e-01	  -1.5597273e+00	  -1.7413815e-01	
   1.5785000e+01	  -9.7912349e-01	  -1.5902602e+00	  -1.9895956e-01	
   1.5840000e+01	  -1.0067568e+00	  -1.6204986e+00	  -2.2555246e-01	
   1.5895000e+01	  -1.0347961e+00	  -1.6503865e+00	  -2.5388871e-01	
   1.5950000e+01	  -1.0631997e+00	  -1.6798830e+00	  -2.8393311e-01	
   1.6005000e+01	  -1.0919463e+00	  -1.7089664e+00	  -3.1564588e-01	
   1.6060000e+01	  -1.1210246e+00	  -1.7376293e+00	  -3.4897847e-01	
   1.6115000e+01	  -1.1504184e+00	  -1.7658681e+00	  -3.8386581e-01	
   1.6170000e+01	  -1.1800919e+00	  -1.7936699e+00	  -4.2021871e-01	
   1.6225000e+01	  -1.2099782e+00	  -1.8210044e+00	  -4.5791783e-01	
   1.6280000e+01	  -1.2399737e+00	  -1.8478206e+00	  -4.9680913e-01	
   1.6335000e+01	  -1.2699390e+00	  -1.8740516e+00	  -5.3670178e-01	
   1.6390000e+01	  -1.2997058e+00	  -1.8996250e+00	  -5.7737046e-01	
   1.6445000e+01	  -1.3290899e+00	  -1.9244765e+00	  -6.1856296e-01	
   1.6500000e+01	  -1.3579058e+00	  -1.9485646e+00	  -6.6001301e-01	
   1.6555000e+01	  -1.3859832e+00	  -1.9718855e+00	  -7.0145717e-01	
   1.6610000e+01	  -1.4131814e+00	  -1.9944834e+00	  -7.4265163e-01	
   1.6665000e+01	  -1.4393984e+00	  -2.0164561e+00	  -7.8338358e-01	
   1.6720000e+01	  -1.4645723e+00	  -2.0379529e+00	  -8.2347520e-01	
   1.6775000e+01	  -1.4886765e+00	  -2.0591644e+00	  -8.6278106e-01	
   1.6830000e+01	  -1.5117113e+00	  -2.0803076e+00	  -9.0118048e-01	
   1.6885000e+01	  -1.5336948e+00	  -2.1016065e+00	  -9.3856784e-01	
   1.6940000e+01	  -1.5546553e+00	  -2.1232751e+00	  -9.7484523e-01	
   1.6995000e+01	  -1.5746266e+00	  -2.1455036e+00	  -1.0099210e+00	
   1.7050000e+01	  -1.5936464e+00	  -2.1684494e+00	  -1.0437135e+00	
   1.7105000e+01	  -1.6117572e+00	  -2.1922322e+00	  -1.0761566e+00	
   1.7160000e+01	  -1.6290088e+00	  -2.2169300e+00	  -1.1072065e+00	
   1.7215000e+01	  -1.6454612e+00	  -2.2425786e+00	  -1.1368494e+00	
   1.7270000e+01	  -1.6611853e+00	  -2.2691717e+00	  -1.1651073e+00	
   1.7325000e+01	  -1.6762624e+00	  -2.2966632e+00	  -1.1920400e+00	
   1.7380000e+01	  -1.6907787e+00	  -2.3249698e+00	  -1.2177418e+00	
   1.7435000e+01	  -1.7048164e+00	  -2.3539714e+00	  -1.2423320e+00	
   1.7490000e+01	  -1.7184406e+00	  -2.3835051e+00	  -1.2659392e+00	
   1.7545000e+01	  -1.7316854e+00	  -2.4133574e+00	  -1.2886827e+00	
   1.7600000e+01	  -1.7445442e+00	  -2.4432583e+00	  -1.3106542e+00	
   1.7655000e+01	  -1.7569656e+00	  -2.4728810e+00	  -1.3319055e+00	
   1.7710000e+01	  -1.7688540e+00	  -2.5018486e+00	  -1.3524422e+00	
   1.7765000e+01	  -1.7800752e+00	  -2.5297458e+00	  -1.3722238e+00	
   1.7820000e+01	  -1.7904655e+00	  -2.5561359e+00	  -1.3911713e+00	
   1.7875000e+01	  -1.7998443e+00	  -2.5805801e+00	  -1.4091792e+00	
   1.7930000e+01	  -1.8080290e+00	  -2.6026593e+00	  -1.4261301e+00	
   1.7985000e+01	  -1.8148478e+00	  -2.6219941e+00	  -1.4419094e+00	
   1.8040000e+01	  -1.8201493e+00	  -2.6382618e+00	  -1.4564156e+00	
   1.8095000e+01	  -1.8238036e+00	  -2.6512044e+00	  -1.4695648e+00	
   1.8150000e+01	  -1.8256960e+00	  -2.6606268e+00	  -1.4812875e+00	
   1.8205000e+01	  -1.8257153e+00	  -2.6663854e+00	  -1.4915203e+00	
   1.8260000e+01	  -1.8237430e+00	  -2.6683755e+00	  -1.5001973e+00	
   1.8315000e+01	  -1.8196489e+00	  -2.6665220e+00	  -1.5072458e+00	
   1.8370000e+01	  -1.8132927e+00	  -2.6607772e+00	  -1.5125858e+00	
   1.8425000e+01	  -1.8045343e+00	  -2.6511218e+00	  -1.5161358e+00	
   1.8480000e+01	  -1.7932482e+00	  -2.6375707e+00	  -1.5178223e+00	
   1.8535000e+01	  -1.7793410e+00	  -2.6201779e+00	  -1.5175913e+00	
   1.8590000e+01	  -1.7627686e+00	  -2.5990450e+00	  -1.5154189e+00	
   1.8645000e+01	  -1.7435475e+00	  -2.5743270e+00	  -1.5113196e+00	
   1.8700000e+01	  -1.7217607e+00	  -2.5462365e+00	  -1.5053519e+00	
   1.8755000e+01	  -1.6975544e+00	  -2.5150432e+00	  -1.4976184e+00	
   1.8810000e+01	  -1.6711258e+00	  -2.4810668e+00	  -1.4882600e+00	
   1.8865000e+01	  -1.6427051e+00	  -2.4446637e+00	  -1.4774422e+00	
   1.8920000e+01	  -1.6125341e+00	  -2.4062088e+00	  -1.4653382e+00	
   1.8975000e+01	  -1.5808495e+00	  -2.3660776e+00	  -1.4521128e+00	
   1.9030000e+01	  -1.5478709e+00	  -2.3246312e+00	  -1.4379115e+00	
   1.9085000e+01	  -1.5137966e+00	  -2.2822084e+00	  -1.4228577e+00	
   1.9140000e+01	  -1.4788068e+00	  -2.2391219e+00	  -1.4070550e+00	
   1.9195000e+01	  -1.4430707e+00	  -2.1956586e+00	  -1.3905936e+00	
   1.9250000e+01	  -1.4067578e+00	  -2.1520824e+00	  -1.3735570e+00	
   1.9305000e+01	  -1.3700496e+00	  -2.1086403e+00	  -1.3560277e+00	
   1.9360000e+01	  -1.3331490e+00	  -2.0655701e+00	  -1.3380913e+00	
   1.9415000e+01	  -1.2962840e+00	  -2.0231034e+00	  -1.3198367e+00	
   1.9470000e+01	  -1.2597037e+00	  -1.9814606e+00	  -1.3013529e+00	
   1.9525000e+01	  -1.2236650e+00	  -1.9408374e+00	  -1.2827211e+00	
   1.9580000e+01	  -1.1884134e+00	  -1.9013892e+00	  -1.2640064e+00	
   1.9635000e+01	  -1.1541657e+00	  -1.8632186e+00	  -1.2452500e+00	
   1.9690000e+01	  -1.1210955e+00	  -1.8263699e+00	  -1.2264659e+00	
   1.9745000e+01	  -1.0893261e+00	  -1.7908316e+00	  -1.2076398e+00	
   1.9800000e+01	  -1.0589293e+00	  -1.7565426e+00	  -1.1887341e+00	
   1.9855000e+01	  -1.0299309e+00	  -1.7234039e+00	  -1.1696976e+00	
   1.9910000e+01	  -1.0023217e+00	  -1.6912921e+00	  -1.1504795e+00	
   1.9965000e+01	  -9.7607451e-01	  -1.6600773e+00	  -1.1310462e+00	
   2.0020000e+01	  -9.5116076e-01	  -1.6296380e+00	  -1.1113955e+00	
   2.0075000e+01	  -9.2756537e-01	  -1.5998733e+00	  -1.0915656e+00	
   2.0130000e+01	  -9.0529528e-01	  -1.5707089e+00	  -1.0716364e+00	
   2.0185000e+01	  -8.8437920e-01	  -1.5420991e+00	  -1.0517220e+00	
   2.0240000e+01	  -8.6485729e-01	  -1.5140224e+00	  -1.0319547e+00	
   2.0295000e+01	  -8.4676429e-01	  -1.4864710e+00	  -1.0124652e+00	
   2.0350000e+01	  -8.3011078e-01	  -1.4594373e+00	  -9.9336256e-01	
   2.0405000e+01	  -8.1486786e-01	  -1.4329024e+00	  -9.7471925e-01	
   2.0460000e+01	  -8.0095799e-01	  -1.4068279e+00	  -9.5656189e-01	
   2.0515000e+01	  -7.8825344e-01	  -1.3811528e+00	  -9.3886832e-01	
   2.0570000e+01	  -7.7658257e-01	  -1.3557978e+00	  -9.2157203e-01	
   2.0625000e+01	  -7.6574314e-01	  -1.3306748e+00	  -9.0457261e-01	
   2.0680000e+01	  -7.5552005e-01	  -1.3057018e+00	  -8.8775026e-01	
   2.0735000e+01	  -7.4570423e-01	  -1.2808182e+00	  -8.7098207e-01	
   2.0790000e+01	  -7.3611038e-01	  -1.2560000e+00	  -8.5415772e-01	
   2.0845000e+01	  -7.2659111e-01	  -1.2312701e+00	  -8.3719116e-01	
   2.0900000e+01	  -7.1704471e-01	  -1.2067013e+00	  -8.2002532e-01	
   2.0955000e+01	  -7.0741414e-01	  -1.1824094e+00	  -8.0262901e-01	
   2.1010000e+01	  -6.9767781e-01	  -1.1585391e+00	  -7.8498803e-01	
   2.1065000e+01	  -6.8783545e-01	  -1.1352466e+00	  -7.6709446e-01	
   2.1120000e+01	  -6.7789328e-01	  -1.1126835e+00	  -7.4893823e-01	
   2.1175000e+01	  -6.6785194e-01	  -1.0909842e+00	  -7.3050374e-01	
   2.1230000e+01	  -6.5769965e-01	  -1.0702592e+00	  -7.1177238e-01	
   2.1285000e+01	  -6.4741218e-01	  -1.0505944e+00	  -6.9272972e-01	
   2.1340000e+01	  -6.3696011e-01	  -1.0320575e+00	  -6.7337519e-01	
   2.1395000e+01	  -6.2632253e-01	  -1.0147096e+00	  -6.5373223e-01	
   2.1450000e+01	  -6.1550443e-01	  -9.9861799e-01	  -6.3385681e-01	
   2.1505000e+01	  -6.0455318e-01	  -9.8386877e-01	  -6.1384134e-01	
   2.1560000e+01	  -5.9357007e-01	  -9.7057461e-01	  -5.9381167e-01	
   2.1615000e+01	  -5.8271402e-01	  -9.5887890e-01	  -5.7391777e-01	
   2.1670000e+01	  -5.7219639e-01	  -9.4895353e-01	  -5.5431983e-01	
   2.1725000e+01	  -5.6226652e-01	  -9.4098798e-01	  -5.3517194e-01	
   2.1780000e+01	  -5.5319078e-01	  -9.3517024e-01	  -5.1660624e-01	
   2.1835000e+01	  -5.4523012e-01	  -9.3166441e-01	  -4.9872090e-01	
   2.1890000e+01	  -5.3862075e-01	  -9.3059116e-01	  -4.8157395e-01	
   2.1945000e+01	  -5.3356056e-01	  -9.3201449e-01	  -4.6518211e-01	
   2.2000000e+01	  -5.3020228e-01	  -9.3593636e-01	  -4.4952461e-01	
   2.2055000e+01	  -5.2865283e-01	  -9.4229858e-01	  -4.3455279e-01	
   2.2110000e+01	  -5.2897747e-01	  -9.5099011e-01	  -4.2020466e-01	
   2.2165000e+01	  -5.3120742e-01	  -9.6185812e-01	  -4.0642221e-01	
   2.2220000e+01	  -5.3534975e-01	  -9.7472133e-01	  -3.9316837e-01	
   2.2275000e+01	  -5.4139782e-01	  -9.8938345e-01	  -3.8044126e-01	
   2.2330000e+01	  -5.4933917e-01	  -1.0056433e+00	  -3.6828202e-01	
   2.2385000e+01	  -5.5915772e-01	  -1.0232992e+00	  -3.5677349e-01	
   2.2440000e+01	  -5.7082948e-01	  -1.0421481e+00	  -3.4602928e-01	
   2.2495000e+01	  -5.8431272e-01	  -1.0619795e+00	  -3.3617652e-01	
   2.2550000e+01	  -5.9953524e-01	  -1.0825666e+00	  -3.2733639e-01	
   2.2605000e+01	  -6.1638214e-01	  -1.1036605e+00	  -3.1960576e-01	
   2.2660000e+01	  -6.3468700e-01	  -1.1249886e+00	  -3.1304193e-01	
   2.2715000e+01	  -6.5422866e-01	  -1.1462581e+00	  -3.0765277e-01	
   2.2770000e+01	  -6.7473426e-01	  -1.1671642e+00	  -3.0339461e-01	
   2.2825000e+01	  -6.9588978e-01	  -1.1874030e+00	  -3.0017982e-01	
   2.2880000e+01	  -7.1735761e-01	  -1.2066895e+00	  -2.9789293e-01	
   2.2935000e+01	  -7.3879885e-01	  -1.2247768e+00	  -2.9641029e-01	
   2.2990000e+01	  -7.5989518e-01	  -1.2414725e+00	  -2.9561738e-01	
   2.3045000e+01	  -7.8036597e-01	  -1.2566483e+00	  -2.9542023e-01	
   2.3100000e+01	  -7.9997806e-01	  -1.2702408e+00	  -2.9574983e-01	
   2.3155000e+01	  -8.1854733e-01	  -1.2822437e+00	  -2.9655887e-01	
   2.3210000e+01	  -8.3593301e-01	  -1.2926914e+00	  -2.9781162e-01	
   2.3265000e+01	  -8.5202817e-01	  -1.3016420e+00	  -2.9947023e-01	
   2.3320000e+01	  -8.6675045e-01	  -1.3091626e+00	  -3.0148183e-01	
   2.3375000e+01	  -8.8003518e-01	  -1.3153197e+00	  -3.0376912e-01	
   2.3430000e+01	  -8.9183072e-01	  -1.3201724e+00	  -3.0622588e-01	
   2.3485000e+01	  -9.0209601e-01	  -1.3237693e+00	  -3.0871865e-01	
   2.3540000e+01	  -9.1080102e-01	  -1.3261488e+00	  -3.1109500e-01	
   2.3595000e+01	  -9.1793017e-01	  -1.3273428e+00	  -3.1319704e-01	
   2.3650000e+01	  -9.2348737e-01	  -1.3273822e+00	  -3.1487686e-01	
   2.3705000e+01	  -9.2750050e-01	  -1.3262998e+00	  -3.1600970e-01	
   2.3760000e+01	  -9.3002293e-01	  -1.3241301e+00	  -3.1650103e-01	
   2.3815000e+01	  -9.3113007e-01	  -1.3209031e+00	  -3.1628530e-01	
   2.3870000e+01	  -9.3091060e-01	  -1.3166352e+00	  -3.1531754e-01	
   2.3925000e+01	  -9.2945430e-01	  -1.3113213e+00	  -3.1356115e-01	
   2.3980000e+01	  -9.2684020e-01	  -1.3049321e+00	  -3.1097613e-01	
   2.4035000e+01	  -9.2312804e-01	  -1.2974169e+00	  -3.0751103e-01	
   2.4090000e+01	  -9.1835459e-01	  -1.2887106e+00	  -3.0310122e-01	
   2.4145000e+01	  -9.1253532e-01	  -1.2787444e+00	  -2.9767409e-01	
   2.4200000e+01	  -9.0567182e-01	  -1.2674605e+00	  -2.9115913e-01	
   2.4255000e+01	  -8.9776380e-01	  -1.2548279e+00	  -2.8349993e-01	
   2.4310000e+01	  -8.8882337e-01	  -1.2408581e+00	  -2.7466711e-01	
   2.4365000e+01	  -8.7888868e-01	  -1.2256179e+00	  -2.6467091e-01	
   2.4420000e+01	  -8.6803384e-01	  -1.2092360e+00	  -2.5357044e-01	
   2.4475000e+01	  -8.5637173e-01	  -1.1919011e+00	  -2.4147483e-01	
   2.4530000e+01	  -8.4404726e-01	  -1.1738488e+00	  -2.2853382e-01	
   2.4585000e+01	  -8.3122200e-01	  -1.1553393e+00	  -2.1491992e-01	
   2.4640000e+01	  -8.1805492e-01	  -1.1366324e+00	  -2.0080794e-01	
   2.4695000e+01	  -8.0468463e-01	  -1.1179647e+00	  -1.8635771e-01	
   2.4750000e+01	  -7.9121693e-01	  -1.0995349e+00	  -1.7170308e-01	
   2.4805000e+01	  -7.7771920e-01	  -1.0814977e+00	  -1.5694728e-01	
   2.4860000e+01	  -7.6422223e-01	  -1.0639668e+00	  -1.4216334e-01	
   2.4915000e+01	  -7.5072822e-01	  -1.0470228e+00	  -1.2739808e-01	
   2.4970000e+01	  -7.3722338e-01	  -1.0307263e+00	  -1.1268021e-01	
   2.5025000e+01	  -7.2369284e-01	  -1.0151308e+00	  -9.8032524e-02	
   2.5080000e+01	  -7.1013559e-01	  -1.0002956e+00	  -8.3485661e-02	
   2.5135000e+01	  -6.9657604e-01	  -9.8629358e-01	  -6.9089269e-02	
   2.5190000e+01	  -6.8306845e-01	  -9.7321484e-01	  -5.4916774e-02	
   2.5245000e+01	  -6.6969191e-01	  -9.6116149e-01	  -4.1060840e-02	
   2.5300000e+01	  -6.5653651e-01	  -9.5023444e-01	  -2.7618564e-02	
   2.5355000e+01	  -6.4368452e-01	  -9.4051378e-01	  -1.4670333e-02	
   2.5410000e+01	  -6.3119217e-01	  -9.3203795e-01	  -2.2602584e-03	
   2.5465000e+01	  -6.1907698e-01	  -9.2478692e-01	   9.6149298e-03	
   2.5520000e+01	  -6.0731317e-01	  -9.1867383e-01	   2.1005908e-02	
   2.5575000e+01	  -5.9583529e-01	  -9.1354800e-01	   3.2000805e-02	
   2.5630000e+01	  -5.8454909e-01	  -9.0920984e-01	   4.2708339e-02	
   2.5685000e+01	  -5.7334795e-01	  -9.0543441e-01	   5.3238326e-02	
   2.5740000e+01	  -5.6213215e-01	  -9.0199814e-01	   6.3684078e-02	
   2.5795000e+01	  -5.5082822e-01	  -8.9870332e-01	   7.4109388e-02	
   2.5850000e+01	  -5.3940516e-01	  -8.9539622e-01	   8.4540653e-02	
   2.5905000e+01	  -5.2788455e-01	  -8.9197569e-01	   9.4964246e-02	
   2.5960000e+01	  -5.1634106e-01	  -8.8839129e-01	   1.0533041e-01	
   2.6015000e+01	  -5.0489200e-01	  -8.8463177e-01	   1.1556487e-01	
   2.6070000e+01	  -4.9367842e-01	  -8.8070719e-01	   1.2558664e-01	
   2.6125000e+01	  -4.8284346e-01	  -8.7663000e-01	   1.3532733e-01	
   2.6180000e+01	  -4.7251300e-01	  -8.7239986e-01	   1.4474594e-01	
   2.6235000e+01	  -4.6278170e-01	  -8.6799526e-01	   1.5383597e-01	
   2.6290000e+01	  -4.5370569e-01	  -8.6337208e-01	   1.6262472e-01	
   2.6345000e+01	  -4.4530253e-01	  -8.5846721e-01	   1.7116668e-01	
   2.6400000e+01	  -4.3755810e-01	  -8.5320547e-01	   1.7953208e-01	
   2.6455000e+01	  -4.3043937e-01	  -8.4750971e-01	   1.8779237e-01	
   2.6510000e+01	  -4.2391034e-01	  -8.4131338e-01	   1.9600552e-01	
   2.6565000e+01	  -4.1794766e-01	  -8.3457199e-01	   2.0420440e-01	
   2.6620000e+01	  -4.1255228e-01	  -8.2726957e-01	   2.1239023e-01	
   2.6675000e+01	  -4.0775424e-01	  -8.1941922e-01	   2.2053207e-01	
   2.6730000e+01	  -4.0360891e-01	  -8.1105945e-01	   2.2857217e-01	
   2.6785000e+01	  -4.0018505e-01	  -8.0224719e-01	   2.3643606e-01	
   2.6840000e+01	  -3.9754844e-01	  -7.9304869e-01	   2.4404516e-01	
   2.6895000e+01	  -3.9574603e-01	  -7.8353069e-01	   2.5132912e-01	
   2.6950000e+01	  -3.9479451e-01	  -7.7375533e-01	   2.5823491e-01	
   2.7005000e+01	  -3.9467492e-01	  -7.6378032e-01	   2.6473008e-01	
   2.7060000e+01	  -3.9533335e-01	  -7.5366440e-01	   2.7079927e-01	
   2.7115000e+01	  -3.9668699e-01	  -7.4347673e-01	   2.7643551e-01	
   2.7170000e+01	  -3.9863437e-01	  -7.3330761e-01	   2.8162901e-01	
   2.7225000e+01	  -4.0106784e-01	  -7.2327595e-01	   2.8635679e-01	
   2.7280000e+01	  -4.0388629e-01	  -7.1353130e-01	   2.9057592e-01	
   2.7335000e+01	  -4.0700554e-01	  -7.0425171e-01	   2.9422105e-01	
   2.7390000e+01	  -4.1036323e-01	  -6.9563882e-01	   2.9720696e-01	
   2.7445000e+01	  -4.1391613e-01	  -6.8790827e-01	   2.9943700e-01	
   2.7500000e+01	  -4.1763037e-01	  -6.8127368e-01	   3.0081678e-01	
   2.7555000e+01	  -4.2146790e-01	  -6.7592648e-01	   3.0127043e-01	
   2.7610000e+01	  -4.2537331e-01	  -6.7201631e-01	   3.0075521e-01	
   2.7665000e+01	  -4.2926476e-01	  -6.6963610e-01	   2.9927124e-01	
   2.7720000e+01	  -4.3303153e-01	  -6.6881397e-01	   2.9686480e-01	
   2.7775000e+01	  -4.3653926e-01	  -6.6951280e-01	   2.9362533e-01	
   2.7830000e+01	  -4.3964160e-01	  -6.7163623e-01	   2.8967693e-01	
   2.7885000e+01	  -4.4219595e-01	  -6.7503911e-01	   2.8516530e-01	
   2.7940000e+01	  -4.4408052e-01	  -6.7954142e-01	   2.8024192e-01	
   2.7995000e+01	  -4.4521035e-01	  -6.8494482e-01	   2.7504815e-01	
   2.8050000e+01	  -4.4554975e-01	  -6.9104970e-01	   2.6970228e-01	
   2.8105000e+01	  -4.4511907e-01	  -6.9766987e-01	   2.6429151e-01	
   2.8160000e+01	  -4.4399446e-01	  -7.0464301e-01	   2.5886935e-01	
   2.8215000e+01	  -4.4230062e-01	  -7.1183626e-01	   2.5345897e-01	
   2.8270000e+01	  -4.4019730e-01	  -7.1914696e-01	   2.4806383e-01	
   2.8325000e+01	  -4.3786193e-01	  -7.2649927e-01	   2.4268432e-01	
   2.8380000e+01	  -4.3547126e-01	  -7.3383871e-01	   2.3733481e-01	
   2.8435000e+01	  -4.3318586e-01	  -7.4112654e-01	   2.3205422e-01	
   2.8490000e+01	  -4.3113919e-01	  -7.4833554e-01	   2.2690801e-01	
   2.8545000e+01	  -4.2943248e-01	  -7.5544741e-01	   2.2198270e-01	
   2.8600000e+01	  -4.2813529e-01	  -7.6245196e-01	   2.1737505e-01	
   2.8655000e+01	  -4.2729124e-01	  -7.6934764e-01	   2.1317693e-01	
   2.8710000e+01	  -4.2692676e-01	  -7.7614226e-01	   2.0945872e-01	
   2.8765000e+01	  -4.2705972e-01	  -7.8285292e-01	   2.0625496e-01	
   2.8820000e+01	  -4.2770495e-01	  -7.8950354e-01	   2.0355635e-01	
   2.8875000e+01	  -4.2887449e-01	  -7.9611940e-01	   2.0131086e-01	
   2.8930000e+01	  -4.3057222e-01	  -8.0271818e-01	   1.9943549e-01	
   2.8985000e+01	  -4.3278428e-01	  -8.0929900e-01	   1.9783579e-01	
   2.9040000e+01	  -4.3546872e-01	  -8.1583185e-01	   1.9642717e-01	
   2.9095000e+01	  -4.3854717e-01	  -8.2224931e-01	   1.9515181e-01	
   2.9150000e+01	  -4.4190019e-01	  -8.2844171e-01	   1.9398914e-01	
   2.9205000e+01	  -4.4536713e-01	  -8.3425756e-01	   1.9295987e-01	
   2.9260000e+01	  -4.4875247e-01	  -8.3951050e-01	   1.9212317e-01	
   2.9315000e+01	  -4.5183793e-01	  -8.4399162e-01	   1.9156800e-01	
   2.9370000e+01	  -4.5439706e-01	  -8.4748342e-01	   1.9140067e-01	
   2.9425000e+01	  -4.5620838e-01	  -8.4977235e-01	   1.9173187e-01	
   2.9480000e+01	  -4.5706497e-01	  -8.5065834e-01	   1.9266603e-01	
   2.9535000e+01	  -4.5677921e-01	  -8.4996055e-01	   1.9429528e-01	
   2.9590000e+01	  -4.5518177e-01	  -8.4751768e-01	   1.9669930e-01	
   2.9645000e+01	  -4.5211599e-01	  -8.4318276e-01	   1.9994994e-01	
   2.9700000e+01	  -4.4743153e-01	  -8.3681627e-01	   2.0411742e-01	
   2.9755000e+01	  -4.4098097e-01	  -8.2828311e-01	   2.0927475e-01	
   2.9810000e+01	  -4.3262116e-01	  -8.1745643e-01	   2.1549859e-01	
   2.9865000e+01	  -4.2221867e-01	  -8.0422829e-01	   2.2286533e-01	
   2.9920000e+01	  -4.0965915e-01	  -7.8852522e-01	   2.3144151e-01	
   2.9975000e+01	  -3.9485960e-01	  -7.7032547e-01	   2.4126863e-01	
   3.0030000e+01	  -3.7778222e-01	  -7.4967406e-01	   2.5234588e-01	
   3.0085000e+01	  -3.5844723e-01	  -7.2669237e-01	   2.6461633e-01	
   3.0140000e+01	  -3.3694136e-01	  -7.0158040e-01	   2.7796132e-01	
   3.0195000e+01	  -3.1341875e-01	  -6.7460991e-01	   2.9220525e-01	
   3.0250000e+01	  -2.8809252e-01	  -6.4610794e-01	   3.0713039e-01	
   3.0305000e+01	  -2.6121837e-01	  -6.1643290e-01	   3.2249905e-01	
   3.0360000e+01	  -2.3307473e-01	  -5.8594805e-01	   3.3807857e-01	
   3.0415000e+01	  -2.0394392e-01	  -5.5499665e-01	   3.5366333e-01	
   3.0470000e+01	  -1.7409676e-01	  -5.2388234e-01	   3.6908911e-01	
   3.0525000e+01	  -1.4378260e-01	  -4.9285735e-01	   3.8423771e-01	
   3.0580000e+01	  -1.1322600e-01	  -4.6212062e-01	   3.9903326e-01	
   3.0635000e+01	  -8.2630188e-02	  -4.3182488e-01	   4.1343303e-01	
   3.0690000e+01	  -5.2185835e-02	  -4.0208953e-01	   4.2741548e-01	
   3.0745000e+01	  -2.2082459e-02	  -3.7301581e-01	   4.4096695e-01	
   3.0800000e+01	   7.4807011e-03	  -3.4470127e-01	   4.5406862e-01	
   3.0855000e+01	   3.6287737e-02	  -3.1725045e-01	   4.6668716e-01	
   3.0910000e+01	   6.4106314e-02	  -2.9077870e-01	   4.7877177e-01	
   3.0965000e+01	   9.0696571e-02	  -2.6540702e-01	   4.9025873e-01	
   3.1020000e+01	   1.1582732e-01	  -2.4124975e-01	   5.0108141e-01	
   3.1075000e+01	   1.3929595e-01	  -2.1839977e-01	   5.1118249e-01	
   3.1130000e+01	   1.6094779e-01	  -1.9691632e-01	   5.2052460e-01	
   3.1185000e+01	   1.8069055e-01	  -1.7681801e-01	   5.2909587e-01	
   3.1240000e+01	   1.9850085e-01	  -1.5808206e-01	   5.3690907e-01	
   3.1295000e+01	   2.1442216e-01	  -1.4064921e-01	   5.4399554e-01	
   3.1350000e+01	   2.2855562e-01	  -1.2443389e-01	   5.5039651e-01	
   3.1405000e+01	   2.4104532e-01	  -1.0933873e-01	   5.5615263e-01	
   3.1460000e+01	   2.5205998e-01	  -9.5271956e-02	   5.6129190e-01	
   3.1515000e+01	   2.6177265e-01	  -8.2165212e-02	   5.6581758e-01	
   3.1570000e+01	   2.7034177e-01	  -6.9989426e-02	   5.6969793e-01	
   3.1625000e+01	   2.7789582e-01	  -5.8766553e-02	   5.7286043e-01	
   3.1680000e+01	   2.8452477e-01	  -4.8573274e-02	   5.7519280e-01	
   3.1735000e+01	   2.9028080e-01	  -3.9532633e-02	   5.7655357e-01	
   3.1790000e+01	   2.9518857e-01	  -3.1794193e-02	   5.7679134e-01	
   3.1845000e+01	   2.9926115e-01	  -2.5508831e-02	   5.7576790e-01	
   3.1900000e+01	   3.0251612e-01	  -2.0804803e-02	   5.7337842e-01	
   3.1955000e+01	   3.0498747e-01	  -1.7768750e-02	   5.6956500e-01	
   3.2010000e+01	   3.0673126e-01	  -1.6433708e-02	   5.6432342e-01	
   3.2065000e+01	   3.0782452e-01	  -1.6775722e-02	   5.5770392e-01	
   3.2120000e+01	   3.0835864e-01	  -1.8718633e-02	   5.4980721e-01	
   3.2175000e+01	   3.0842969e-01	  -2.2144442e-02	   5.4077584e-01	
   3.2230000e+01	   3.0812745e-01	  -2.6906857e-02	   5.3078121e-01	
   3.2285000e+01	   3.0752421e-01	  -3.2846955e-02	   5.2000725e-01	
   3.2340000e+01	   3.0666485e-01	  -3.9809355e-02	   5.0863379e-01	
   3.2395000e+01	   3.0556111e-01	  -4.7654949e-02	   4.9682209e-01	
   3.2450000e+01	   3.0419324e-01	  -5.6265530e-02	   4.8470424e-01	
   3.2505000e+01	   3.0252050e-01	  -6.5538348e-02	   4.7237823e-01	
   3.2560000e+01	   3.0049902e-01	  -7.5372724e-02	   4.5991010e-01	
   3.2615000e+01	   2.9810271e-01	  -8.5653693e-02	   4.4734070e-01	
   3.2670000e+01	   2.9534164e-01	  -9.6238025e-02	   4.3469256e-01	
   3.2725000e+01	   2.9227261e-01	  -1.0694649e-01	   4.2197374e-01	
   3.2780000e+01	   2.8899978e-01	  -1.1756423e-01	   4.0917879e-01	
   3.2835000e+01	   2.8566661e-01	  -1.2784987e-01	   3.9628843e-01	
   3.2890000e+01	   2.8244154e-01	  -1.3755275e-01	   3.8326914e-01	
   3.2945000e+01	   2.7949962e-01	  -1.4643473e-01	   3.7007241e-01	
   3.3000000e+01	   2.7700220e-01	  -1.5429068e-01	   3.5663428e-01	
   3.3055000e+01	   2.7507827e-01	  -1.6096317e-01	   3.4287568e-01	
   3.3110000e+01	   2.7381033e-01	  -1.6635050e-01	   3.2870450e-01	
   3.3165000e+01	   2.7322695e-01	  -1.7040852e-01	   3.1402217e-01	
   3.3220000e+01	   2.7330356e-01	  -1.7314568e-01	   2.9873744e-01	
   3.3275000e+01	   2.7397174e-01	  -1.7461135e-01	   2.8278676e-01	
   3.3330000e+01	   2.7513389e-01	  -1.7488080e-01	   2.6615512e-01	
   3.3385000e+01	   2.7667763e-01	  -1.7404086e-01	   2.4889065e-01	
   3.3440000e+01	   2.7848580e-01	  -1.7217843e-01	   2.3111033e-01	
   3.3495000e+01	   2.8044088e-01	  -1.6937325e-01	   2.1299787e-01	
   3.3550000e+01	   2.8242441e-01	  -1.6569643e-01	   1.9479450e-01	
   3.3605000e+01	   2.8431238e-01	  -1.6121534e-01	   1.7678253e-01	
   3.3660000e+01	   2.8596824e-01	  -1.5600370e-01	   1.5926310e-01	
   3.3715000e+01	   2.8723522e-01	  -1.5015400e-01	   1.4253081e-01	
   3.3770000e+01	   2.8792937e-01	  -1.4378926e-01	   1.2684800e-01	
   3.3825000e+01	   2.8783496e-01	  -1.3707151e-01	   1.1242232e-01	
   3.3880000e+01	   2.8670433e-01	  -1.3020390e-01	   9.9392754e-02	
   3.3935000e+01	   2.8426477e-01	  -1.2342406e-01	   8.7828161e-02	
   3.3990000e+01	   2.8023264e-01	  -1.1698914e-01	   7.7738203e-02	
   3.4045000e+01	   2.7433150e-01	  -1.1115647e-01	   6.9090974e-02	
   3.4100000e+01	   2.6630974e-01	  -1.0616471e-01	   6.1829996e-02	
   3.4155000e+01	   2.5595433e-01	  -1.0221804e-01	   5.5885773e-02	
   3.4210000e+01	   2.4309871e-01	  -9.9475910e-02	   5.1180051e-02	
   3.4265000e+01	   2.2762395e-01	  -9.8050301e-02	   4.7623183e-02	
   3.4320000e+01	   2.0945487e-01	  -9.8010646e-02	   4.5107309e-02	
   3.4375000e+01	   1.8855422e-01	  -9.9394058e-02	   4.3498826e-02	
   3.4430000e+01	   1.6491819e-01	  -1.0221692e-01	   4.2632723e-02	
   3.4485000e+01	   1.3857508e-01	  -1.0648412e-01	   4.2311663e-02	
   3.4540000e+01	   1.0958854e-01	  -1.1219341e-01	   4.2313067e-02	
   3.4595000e+01	   7.8066561e-02	  -1.1933473e-01	   4.2404972e-02	
   3.4650000e+01	   4.4174668e-02	  -1.2788622e-01	   4.2367138e-02	
   3.4705000e+01	   8.1500725e-03	  -1.3780918e-01	   4.2012057e-02	
   3.4760000e+01	  -2.9687607e-02	  -1.4904352e-01	   4.1201759e-02	
   3.4815000e+01	  -6.8932484e-02	  -1.6150460e-01	   3.9858034e-02	
   3.4870000e+01	  -1.0909766e-01	  -1.7508197e-01	   3.7964729e-02	
   3.4925000e+01	  -1.4962982e-01	  -1.8964106e-01	   3.5562146e-02	
   3.4980000e+01	  -1.8993161e-01	  -2.0502886e-01	   3.2734794e-02	
   3.5035000e+01	  -2.2938913e-01	  -2.2108304e-01	   2.9594200e-02	
   3.5090000e+01	  -2.6740161e-01	  -2.3764190e-01	   2.6259190e-02	
   3.5145000e+01	  -3.0340925e-01	  -2.5455077e-01	   2.2837287e-02	
   3.5200000e+01	  -3.3691403e-01	  -2.7166166e-01	   1.9411310e-02	
   3.5255000e+01	  -3.6749063e-01	  -2.8882581e-01	   1.6033727e-02	
   3.5310000e+01	  -3.9478904e-01	  -3.0588307e-01	   1.2728592e-02	
   3.5365000e+01	  -4.1853294e-01	  -3.2265317e-01	   9.4984712e-03	
   3.5420000e+01	  -4.3851659e-01	  -3.3893195e-01	   6.3322975e-03	
   3.5475000e+01	  -4.5460142e-01	  -3.5449306e-01	   3.2104543e-03	
   3.5530000e+01	  -4.6671245e-01	  -3.6909451e-01	   1.0628358e-04	
   3.5585000e+01	  -4.7483496e-01	  -3.8248839e-01	  -3.0137455e-03	
   3.5640000e+01	  -4.7901107e-01	  -3.9443157e-01	  -6.1886869e-03	
   3.5695000e+01	  -4.7933466e-01	  -4.0469558e-01	  -9.4597694e-03	
   3.5750000e+01	  -4.7594333e-01	  -4.1307411e-01	  -1.2865173e-02	
   3.5805000e+01	  -4.6900628e-01	  -4.1938704e-01	  -1.6432416e-02	
   3.5860000e+01	  -4.5870898e-01	  -4.2348034e-01	  -2.0167512e-02	
   3.5915000e+01	  -4.4523750e-01	  -4.2522321e-01	  -2.4042338e-02	
   3.5970000e+01	  -4.2876676e-01	  -4.2450428e-01	  -2.7985027e-02	
   3.6025000e+01	  -4.0945567e-01	  -4.2122846e-01	  -3.1878282e-02	
   3.6080000e+01	  -3.8744916e-01	  -4.1531475e-01	  -3.5567028e-02	
   3.6135000e+01	  -3.6288573e-01	  -4.0669568e-01	  -3.8873590e-02	
   3.6190000e+01	  -3.3590844e-01	  -3.9531952e-01	  -4.1616997e-02	
   3.6245000e+01	  -3.0667703e-01	  -3.8115569e-01	  -4.3632102e-02	
   3.6300000e+01	  -2.7537783e-01	  -3.6420124e-01	  -4.4784593e-02	
   3.6355000e+01	  -2.4222850e-01	  -3.4448507e-01	  -4.4979675e-02	
   3.6410000e+01	  -2.0747596e-01	  -3.2206683e-01	  -4.4164000e-02	
   3.6465000e+01	  -1.7138848e-01	  -2.9703072e-01	  -4.2321673e-02	
   3.6520000e+01	  -1.3424469e-01	  -2.6947805e-01	  -3.9466089e-02	
   3.6575000e+01	  -9.6323512e-02	  -2.3952373e-01	  -3.5629983e-02	
   3.6630000e+01	  -5.7898018e-02	  -2.0729907e-01	  -3.0856251e-02	
   3.6685000e+01	  -1.9233048e-02	  -1.7295829e-01	  -2.5191084e-02	
   3.6740000e+01	   1.9414613e-02	  -1.3668533e-01	  -1.8679563e-02	
   3.6795000e+01	   5.7794225e-02	  -9.8700777e-02	  -1.1363944e-02	
   3.6850000e+01	   9.5657838e-02	  -5.9269031e-02	  -3.2854754e-03	
   3.6905000e+01	   1.3275766e-01	  -1.8703437e-02	   5.5110867e-03	
   3.6960000e+01	   1.6884686e-01	   2.2634694e-02	   1.4974099e-02	
   3.7015000e+01	   2.0368576e-01	   6.4344939e-02	   2.5047242e-02	
   3.7070000e+01	   2.3705342e-01	   1.0600267e-01	   3.5678522e-02	
   3.7125000e+01	   2.6876215e-01	   1.4717677e-01	   4.6832732e-02	
   3.7180000e+01	   2.9867130e-01	   1.8744785e-01	   5.8501971e-02	
   3.7235000e+01	   3.2669617e-01	   2.2642508e-01	   7.0709607e-02	
   3.7290000e+01	   3.5280925e-01	   2.6375827e-01	   8.3505322e-02	
   3.7345000e+01	   3.7703351e-01	   2.9914305e-01	   9.6952145e-02	
   3.7400000e+01	   3.9942934e-01	   3.3231930e-01	   1.1110907e-01	
   3.7455000e+01	   4.2007761e-01	   3.6306478e-01	   1.2601284e-01	
   3.7510000e+01	   4.3906192e-01	   3.9118630e-01	   1.4166140e-01	
   3.7565000e+01	   4.5645339e-01	   4.1651187e-01	   1.5800171e-01	
   3.7620000e+01	   4.7230201e-01	   4.3888791e-01	   1.7492540e-01	
   3.7675000e+01	   4.8663624e-01	   4.5818377e-01	   1.9227384e-01	
   3.7730000e+01	   4.9947007e-01	   4.7430217e-01	   2.0985167e-01	
   3.7785000e+01	   5.1081436e-01	   4.8719216e-01	   2.2744532e-01	
   3.7840000e+01	   5.2068900e-01	   4.9686126e-01	   2.4484264e-01	
   3.7895000e+01	   5.2913223e-01	   5.0338493e-01	   2.6184918e-01	
   3.7950000e+01	   5.3620441e-01	   5.0691087e-01	   2.7829780e-01	
   3.8005000e+01	   5.4198545e-01	   5.0765516e-01	   2.9405127e-01	
   3.8060000e+01	   5.4656709e-01	   5.0588901e-01	   3.0899988e-01	
   3.8115000e+01	   5.5004232e-01	   5.0191842e-01	   3.2305615e-01	
   3.8170000e+01	   5.5249442e-01	   4.9606255e-01	   3.3614808e-01	
   3.8225000e+01	   5.5398835e-01	   4.8863683e-01	   3.4821308e-01	
   3.8280000e+01	   5.5456694e-01	   4.7994417e-01	   3.5919531e-01	
   3.8335000e+01	   5.5425282e-01	   4.7027451e-01	   3.6904782e-01	
   3.8390000e+01	   5.5305637e-01	   4.5991067e-01	   3.7773937e-01	
   3.8445000e+01	   5.5098765e-01	   4.4913640e-01	   3.8526368e-01	
   3.8500000e+01	   5.4806931e-01	   4.3824284e-01	   3.9164801e-01	
   3.8555000e+01	   5.4434767e-01	   4.2753017e-01	   3.9695784e-01	
   3.8610000e+01	   5.3989972e-01	   4.1730288e-01	   4.0129620e-01	
   3.8665000e+01	   5.3483471e-01	   4.0785943e-01	   4.0479750e-01	
   3.8720000e+01	   5.2928977e-01	   3.9947885e-01	   4.0761744e-01	
   3.8775000e+01	   5.2341954e-01	   3.9240600e-01	   4.0992002e-01	
   3.8830000e+01	   5.1738032e-01	   3.8683634e-01	   4.1186258e-01	
   3.8885000e+01	   5.1131100e-01	   3.8290145e-01	   4.1358011e-01	
   3.8940000e+01	   5.0531452e-01	   3.8065859e-01	   4.1517186e-01	
   3.8995000e+01	   4.9944375e-01	   3.8008589e-01	   4.1669329e-01	
   3.9050000e+01	   4.9369502e-01	   3.8108401e-01	   4.1815562e-01	
   3.9105000e+01	   4.8801118e-01	   3.8348467e-01	   4.1953321e-01	
   3.9160000e+01	   4.8229431e-01	   3.8706678e-01	   4.2077734e-01	
   3.9215000e+01	   4.7642474e-01	   3.9157762e-01	   4.2183268e-01	
   3.9270000e+01	   4.7028184e-01	   3.9675456e-01	   4.2265215e-01	
   3.9325000e+01	   4.6376185e-01	   4.0234267e-01	   4.2320693e-01	
   3.9380000e+01	   4.5678956e-01	   4.0810541e-01	   4.2349035e-01	
   3.9435000e+01	   4.4932193e-01	   4.1382775e-01	   4.2351561e-01	
   3.9490000e+01	   4.4134407e-01	   4.1931352e-01	   4.2330804e-01	
   3.9545000e+01	   4.3285991e-01	   4.2437938e-01	   4.2289350e-01	
   3.9600000e+01	   4.2388050e-01	   4.2884770e-01	   4.2228576e-01	
   3.9655000e+01	   4.1441171e-01	   4.3253884e-01	   4.2147541e-01	
   3.9710000e+01	   4.0444273e-01	   4.3526345e-01	   4.2042296e-01	
   3.9765000e+01	   3.9393764e-01	   4.3681718e-01	   4.1905661e-01	
   3.9820000e+01	   3.8283329e-01	   4.3698124e-01	   4.1727464e-01	
   3.9875000e+01	   3.7104569e-01	   4.3553115e-01	   4.1495257e-01	
   3.9930000e+01	   3.5848424e-01	   4.3225357e-01	   4.1195584e-01	
   3.9985000e+01	   3.4507096e-01	   4.2696904e-01	   4.0815738e-01	
   4.0040000e+01	   3.3076088e-01	   4.1955572e-01	   4.0345661e-01	
   4.0095000e+01	   3.1555920e-01	   4.0996813e-01	   3.9779478e-01	
   4.0150000e+01	   2.9953131e-01	   3.9824576e-01	   3.9116309e-01	
   4.0205000e+01	   2.8280340e-01	   3.8451087e-01	   3.8360352e-01	
   4.0260000e+01	   2.6555476e-01	   3.6895763e-01	   3.7520314e-01	
   4.0315000e+01	   2.4800307e-01	   3.5183579e-01	   3.6608282e-01	
   4.0370000e+01	   2.3038437e-01	   3.3343178e-01	   3.5638224e-01	
   4.0425000e+01	   2.1293055e-01	   3.1404924e-01	   3.4624528e-01	
   4.0480000e+01	   1.9584872e-01	   2.9399153e-01	   3.3580898e-01	
   4.0535000e+01	   1.7930629e-01	   2.7354874e-01	   3.2519766e-01	
   4.0590000e+01	   1.6342475e-01	   2.5299176e-01	   3.1452276e-01	
   4.0645000e+01	   1.4828307e-01	   2.3257478e-01	   3.0388822e-01	
   4.0700000e+01	   1.3392875e-01	   2.1254349e-01	   2.9339821e-01	
   4.0755000e+01	   1.2039191e-01	   1.9314288e-01	   2.8316234e-01	
   4.0810000e+01	   1.0769807e-01	   1.7462000e-01	   2.7329558e-01	
   4.0865000e+01	   9.5877416e-02	   1.5722050e-01	   2.6391313e-01	
   4.0920000e+01	   8.4969139e-02	   1.4118047e-01	   2.5512151e-01	
   4.0975000e+01	   7.5020609e-02	   1.2671590e-01	   2.4700730e-01	
   4.1030000e+01	   6.6081987e-02	   1.1401189e-01	   2.3962609e-01	
   4.1085000e+01	   5.8198670e-02	   1.0321392e-01	   2.3299475e-01	
   4.1140000e+01	   5.1404946e-02	   9.4423458e-02	   2.2708889e-01	
   4.1195000e+01	   4.5721726e-02	   8.7699272e-02	   2.2184544e-01	
   4.1250000e+01	   4.1159465e-02	   8.3063677e-02	   2.1716936e-01	
   4.1305000e+01	   3.7725265e-02	   8.0511319e-02	   2.1294381e-01	
   4.1360000e+01	   3.5431348e-02	   8.0017650e-02	   2.0904202e-01	
   4.1415000e+01	   3.4301253e-02	   8.1544545e-02	   2.0533776e-01	
   4.1470000e+01	   3.4371150e-02	   8.5042022e-02	   2.0171171e-01	
   4.1525000e+01	   3.5686051e-02	   9.0447149e-02	   1.9805376e-01	
   4.1580000e+01	   3.8292540e-02	   9.7681898e-02	   1.9426348e-01	
   4.1635000e+01	   4.2229459e-02	   1.0665017e-01	   1.9024964e-01	
   4.1690000e+01	   4.7517561e-02	   1.1723326e-01	   1.8592877e-01	
   4.1745000e+01	   5.4150015e-02	   1.2928530e-01	   1.8122407e-01	
   4.1800000e+01	   6.2086647e-02	   1.4263271e-01	   1.7606636e-01	
   4.1855000e+01	   7.1254131e-02	   1.5707995e-01	   1.7039805e-01	
   4.1910000e+01	   8.1552707e-02	   1.7242111e-01	   1.6418025e-01	
   4.1965000e+01	   9.2868271e-02	   1.8845539e-01	   1.5740284e-01	
   4.2020000e+01	   1.0508653e-01	   2.0500391e-01	   1.5009546e-01	
   4.2075000e+01	   1.1810480e-01	   2.2192304e-01	   1.4233526e-01	
   4.2130000e+01	   1.3183841e-01	   2.3910969e-01	   1.3424779e-01	
   4.2185000e+01	   1.4622176e-01	   2.5649804e-01	   1.2600100e-01	
   4.2240000e+01	   1.6120524e-01	   2.7405016e-01	   1.1779372e-01	
   4.2295000e+01	   1.7674883e-01	   2.9174309e-01	   1.0983827e-01	
   4.2350000e+01	   1.9281222e-01	   3.0955427e-01	   1.0233768e-01	
   4.2405000e+01	   2.0934292e-01	   3.2744817e-01	   9.5461929e-02	
   4.2460000e+01	   2.2626515e-01	   3.4536670e-01	   8.9330243e-02	
   4.2515000e+01	   2.4347329e-01	   3.6322595e-01	   8.4003974e-02	
   4.2570000e+01	   2.6083285e-01	   3.8091987e-01	   7.9490600e-02	
   4.2625000e+01	   2.7818991e-01	   3.9833049e-01	   7.5756738e-02	
   4.2680000e+01	   2.9538576e-01	   4.1534186e-01	   7.2745849e-02	
   4.2735000e+01	   3.1227230e-01	   4.3185277e-01	   7.0395465e-02	
   4.2790000e+01	   3.2872391e-01	   4.4778320e-01	   6.8649749e-02	
   4.2845000e+01	   3.4464398e-01	   4.6307296e-01	   6.7465046e-02	
   4.2900000e+01	   3.5996531e-01	   4.7767460e-01	   6.6807936e-02	
   4.2955000e+01	   3.7464456e-01	   4.9154383e-01	   6.6647031e-02	
   4.3010000e+01	   3.8865232e-01	   5.0463060e-01	   6.6941338e-02	
   4.3065000e+01	   4.0196216e-01	   5.1687405e-01	   6.7629263e-02	
   4.3120000e+01	   4.1454186e-01	   5.2820263e-01	   6.8622307e-02	
   4.3175000e+01	   4.2634885e-01	   5.3853929e-01	   6.9805761e-02	
   4.3230000e+01	   4.3733049e-01	   5.4781044e-01	   7.1046827e-02	
   4.3285000e+01	   4.4742988e-01	   5.5595614e-01	   7.2209179e-02	
   4.3340000e+01	   4.5659640e-01	   5.6293939e-01	   7.3170453e-02	
   4.3395000e+01	   4.6479775e-01	   5.6875250e-01	   7.3836659e-02	
   4.3450000e+01	   4.7202953e-01	   5.7342001e-01	   7.4148595e-02	
   4.3505000e+01	   4.7832031e-01	   5.7699786e-01	   7.4079820e-02	
   4.3560000e+01	   4.8373140e-01	   5.7956836e-01	   7.3628994e-02	
   4.3615000e+01	   4.8835135e-01	   5.8123033e-01	   7.2809253e-02	
   4.3670000e+01	   4.9228606e-01	   5.8208539e-01	   7.1636316e-02	
   4.3725000e+01	   4.9564587e-01	   5.8222310e-01	   7.0117418e-02	
   4.3780000e+01	   4.9853300e-01	   5.8170785e-01	   6.8243443e-02	
   4.3835000e+01	   5.0103191e-01	   5.8057088e-01	   6.5986210e-02	
   4.3890000e+01	   5.0320514e-01	   5.7881099e-01	   6.3302208e-02	
   4.3945000e+01	   5.0509633e-01	   5.7640643e-01	   6.0142690e-02	
   4.4000000e+01	   5.0673996e-01	   5.7333433e-01	   5.6467402e-02	
   4.4055000e+01	   5.0817395e-01	   5.6958907e-01	   5.2256786e-02	
   4.4110000e+01	   5.0944971e-01	   5.6519226e-01	   4.7518221e-02	
   4.4165000e+01	   5.1063677e-01	   5.6019298e-01	   4.2285886e-02	
   4.4220000e+01	   5.1182257e-01	   5.5466135e-01	   3.6617150e-02	
   4.4275000e+01	   5.1310810e-01	   5.4867811e-01	   3.0587892e-02	
   4.4330000e+01	   5.1459913e-01	   5.4232204e-01	   2.4286795e-02	
   4.4385000e+01	   5.1639402e-01	   5.3565737e-01	   1.7808069e-02	
   4.4440000e+01	   5.1856993e-01	   5.2872355e-01	   1.1243371e-02	
   4.4495000e+01	   5.2116989e-01	   5.2152720e-01	   4.6741349e-03	
   4.4550000e+01	   5.2419262e-01	   5.1403614e-01	  -1.8350072e-03	
   4.4605000e+01	   5.2758828e-01	   5.0617805e-01	  -8.2405788e-03	
   4.4660000e+01	   5.3126257e-01	   4.9784791e-01	  -1.4520608e-02	
   4.4715000e+01	   5.3508862e-01	   4.8892459e-01	  -2.0670677e-02	
   4.4770000e+01	   5.3892265e-01	   4.7929094e-01	  -2.6697388e-02	
   4.4825000e+01	   5.4261878e-01	   4.6885046e-01	  -3.2611287e-02	
   4.4880000e+01	   5.4603978e-01	   4.5753714e-01	  -3.8421133e-02	
   4.4935000e+01	   5.4906239e-01	   4.4531861e-01	  -4.4131140e-02	
   4.4990000e+01	   5.5157714e-01	   4.3219412e-01	  -4.9741259e-02	
   4.5045000e+01	   5.5348398e-01	   4.1818870e-01	  -5.5248961e-02	
   4.5100000e+01	   5.5468598e-01	   4.0334458e-01	  -6.0651571e-02	
   4.5155000e+01	   5.5508363e-01	   3.8771128e-01	  -6.5949302e-02	
   4.5210000e+01	   5.5457198e-01	   3.7133735e-01	  -7.1148708e-02	
   4.5265000e+01	   5.5304277e-01	   3.5426598e-01	  -7.6265008e-02	
   4.5320000e+01	   5.5039270e-01	   3.3653657e-01	  -8.1321682e-02	
   4.5375000e+01	   5.4653670e-01	   3.1819164e-01	  -8.6347284e-02	
   4.5430000e+01	   5.4142259e-01	   2.9928602e-01	  -9.1370990e-02	
   4.5485000e+01	   5.3504328e-01	   2.7989527e-01	  -9.6418418e-02	
   4.5540000e+01	   5.2744427e-01	   2.6012167e-01	  -1.0150869e-01	
   4.5595000e+01	   5.1872607e-01	   2.4009671e-01	  -1.0665389e-01	
   4.5650000e+01	   5.0904165e-01	   2.1997945e-01	  -1.1186174e-01	
   4.5705000e+01	   4.9858953e-01	   1.9995139e-01	  -1.1714061e-01	
   4.5760000e+01	   4.8760309e-01	   1.8020997e-01	  -1.2250474e-01	
   4.5815000e+01	   4.7633788e-01	   1.6096213e-01	  -1.2797760e-01	
   4.5870000e+01	   4.6505927e-01	   1.4241871e-01	  -1.3359143e-01	
   4.5925000e+01	   4.5403334e-01	   1.2479038e-01	  -1.3938139e-01	
   4.5980000e+01	   4.4352284e-01	   1.0828644e-01	  -1.4537474e-01	
   4.6035000e+01	   4.3378762e-01	   9.3116110e-02	  -1.5157901e-01	
   4.6090000e+01	   4.2508607e-01	   7.9489706e-02	  -1.5797417e-01	
   4.6145000e+01	   4.1767425e-01	   6.7616241e-02	  -1.6451068e-01	
   4.6200000e+01	   4.1180112e-01	   5.7696063e-02	  -1.7111205e-01	
   4.6255000e+01	   4.0770023e-01	   4.9909125e-02	  -1.7768048e-01	
   4.6310000e+01	   4.0557738e-01	   4.4400677e-02	  -1.8410487e-01	
   4.6365000e+01	   4.0559504e-01	   4.1266689e-02	  -1.9026973e-01	
   4.6420000e+01	   4.0785546e-01	   4.0541548e-02	  -1.9606341e-01	
   4.6475000e+01	   4.1238582e-01	   4.2189626e-02	  -2.0138392e-01	
   4.6530000e+01	   4.1912803e-01	   4.6101035e-02	  -2.0614188e-01	
   4.6585000e+01	   4.2793559e-01	   5.2092371e-02	  -2.1026047e-01	
   4.6640000e+01	   4.3857965e-01	   5.9914211e-02	  -2.1367152e-01	
   4.6695000e+01	   4.5076454e-01	   6.9265988e-02	  -2.1630848e-01	
   4.6750000e+01	   4.6414960e-01	   7.9816438e-02	  -2.1809991e-01	
   4.6805000e+01	   4.7837316e-01	   9.1226170e-02	  -2.1896726e-01	
   4.6860000e+01	   4.9307489e-01	   1.0316819e-01	  -2.1882759e-01	
   4.6915000e+01	   5.0791300e-01	   1.1534195e-01	  -2.1759989e-01	
   4.6970000e+01	   5.2257422e-01	   1.2747828e-01	  -2.1521458e-01	
   4.7025000e+01	   5.3677624e-01	   1.3933677e-01	  -2.1162576e-01	
   4.7080000e+01	   5.5026412e-01	   1.5069949e-01	  -2.0682445e-01	
   4.7135000e+01	   5.6280313e-01	   1.6136509e-01	  -2.0085018e-01	
   4.7190000e+01	   5.7417115e-01	   1.7114525e-01	  -1.9379860e-01	
   4.7245000e+01	   5.8415386e-01	   1.7986472e-01	  -1.8582328e-01	
   4.7300000e+01	   5.9254625e-01	   1.8736541e-01	  -1.7713044e-01	
   4.7355000e+01	   5.9916178e-01	   1.9351396e-01	  -1.6796722e-01	
   4.7410000e+01	   6.0384662e-01	   1.9821072e-01	  -1.5860564e-01	
   4.7465000e+01	   6.0649383e-01	   2.0139724e-01	  -1.4932501e-01	
   4.7520000e+01	   6.0705336e-01	   2.0306033e-01	  -1.4039464e-01	
   4.7575000e+01	   6.0553571e-01	   2.0323100e-01	  -1.3205860e-01	
   4.7630000e+01	   6.0200876e-01	   2.0197736e-01	  -1.2452564e-01	
   4.7685000e+01	   5.9658812e-01	   1.9939236e-01	  -1.1796634e-01	
   4.7740000e+01	   5.8942316e-01	   1.9557857e-01	  -1.1251647e-01	
   4.7795000e+01	   5.8068114e-01	   1.9063249e-01	  -1.0828414e-01	
   4.7850000e+01	   5.7053030e-01	   1.8462928e-01	  -1.0535763e-01	
   4.7905000e+01	   5.5912214e-01	   1.7760903e-01	  -1.0381302e-01	
   4.7960000e+01	   5.4657404e-01	   1.6956730e-01	  -1.0372194e-01	
   4.8015000e+01	   5.3295544e-01	   1.6045254e-01	  -1.0515927e-01	
   4.8070000e+01	   5.1828190e-01	   1.5017079e-01	  -1.0820821e-01	
   4.8125000e+01	   5.0252017e-01	   1.3859656e-01	  -1.1295855e-01	
   4.8180000e+01	   4.8560424e-01	   1.2558950e-01	  -1.1949575e-01	
   4.8235000e+01	   4.6745781e-01	   1.1101477e-01	  -1.2788338e-01	
   4.8290000e+01	   4.4801607e-01	   9.4763571e-02	  -1.3814520e-01	
   4.8345000e+01	   4.2724193e-01	   7.6770018e-02	  -1.5025206e-01	
   4.8400000e+01	   4.0513542e-01	   5.7022946e-02	  -1.6411510e-01	
   4.8455000e+01	   3.8173707e-01	   3.5571212e-02	  -1.7958511e-01	
   4.8510000e+01	   3.5712545e-01	   1.2520568e-02	  -1.9645919e-01	
   4.8565000e+01	   3.3140925e-01	  -1.1977640e-02	  -2.1449578e-01	
   4.8620000e+01	   3.0471543e-01	  -3.7742604e-02	  -2.3343587e-01	
   4.8675000e+01	   2.7717572e-01	  -6.4581388e-02	  -2.5302510e-01	
   4.8730000e+01	   2.4891423e-01	  -9.2305065e-02	  -2.7303218e-01	
   4.8785000e+01	   2.2003884e-01	  -1.2074080e-01	  -2.9326057e-01	
   4.8840000e+01	   1.9063965e-01	  -1.4973592e-01	  -3.1355265e-01	
   4.8895000e+01	   1.6079578e-01	  -1.7915209e-01	  -3.3378641e-01	
   4.8950000e+01	   1.3058850e-01	  -2.0885220e-01	  -3.5386736e-01	
   4.9005000e+01	   1.0011559e-01	  -2.3868558e-01	  -3.7371907e-01	
   4.9060000e+01	   6.9502508e-02	  -2.6847555e-01	  -3.9327536e-01	
   4.9115000e+01	   3.8908935e-02	  -2.9801193e-01	  -4.1247567e-01	
   4.9170000e+01	   8.5300599e-03	  -3.2704980e-01	  -4.3126479e-01	
   4.9225000e+01	  -2.1407941e-02	  -3.5531496e-01	  -4.4959629e-01	
   4.9280000e+01	  -5.0658468e-02	  -3.8251537e-01	  -4.6743679e-01	
   4.9335000e+01	  -7.8969974e-02	  -4.0835802e-01	  -4.8476873e-01	
   4.9390000e+01	  -1.0610384e-01	  -4.3257076e-01	  -5.0159220e-01	
   4.9445000e+01	  -1.3185148e-01	  -4.5492676e-01	  -5.1792675e-01	
   4.9500000e+01	  -1.5604761e-01	  -4.7526548e-01	  -5.3381173e-01	
   4.9555000e+01	  -1.7857721e-01	  -4.9350426e-01	  -5.4930265e-01	
   4.9610000e+01	  -1.9937451e-01	  -5.0963869e-01	  -5.6446236e-01	
   4.9665000e+01	  -2.1841443e-01	  -5.2373337e-01	  -5.7934882e-01	
   4.9720000e+01	  -2.3569927e-01	  -5.3590552e-01	  -5.9400250e-01	
   4.9775000e+01	  -2.5124429e-01	  -5.4630525e-01	  -6.0843660e-01	
   4.9830000e+01	  -2.6506531e-01	  -5.5509620e-01	  -6.2263072e-01	
   4.9885000e+01	  -2.7716929e-01	  -5.6243932e-01	  -6.3652828e-01	
   4.9940000e+01	  -2.8754853e-01	  -5.6848043e-01	  -6.5003834e-01	
   4.9995000e+01	  -2.9617891e-01	  -5.7334164e-01	  -6.6304280e-01	
   5.0050000e+01	  -3.0302234e-01	  -5.7711688e-01	  -6.7540818e-01	
   5.0105000e+01	  -3.0803203e-01	  -5.7987090e-01	  -6.8699968e-01	
   5.0160000e+01	  -3.1115883e-01	  -5.8164027e-01	  -6.9769418e-01	
   5.0215000e+01	  -3.1235604e-01	  -5.8243393e-01	  -7.0738814e-01	
   5.0270000e+01	  -3.1158035e-01	  -5.8223262e-01	  -7.1599814e-01	
   5.0325000e+01	  -3.0878814e-01	  -5.8098759e-01	  -7.2345522e-01	
   5.0380000e+01	  -3.0392919e-01	  -5.7862047e-01	  -7.2969680e-01	
   5.0435000e+01	  -2.9694176e-01	  -5.7502466e-01	  -7.3465896e-01	
   5.0490000e+01	  -2.8775155e-01	  -5.7006888e-01	  -7.3827150e-01	
   5.0545000e+01	  -2.7627530e-01	  -5.6360391e-01	  -7.4045703e-01	
   5.0600000e+01	  -2.6242872e-01	  -5.5547382e-01	  -7.4113505e-01	
   5.0655000e+01	  -2.4613835e-01	  -5.4553174e-01	  -7.4022960e-01	
   5.0710000e+01	  -2.2735645e-01	  -5.3365843e-01	  -7.3767827e-01	
   5.0765000e+01	  -2.0607724e-01	  -5.1978016e-01	  -7.3344078e-01	
   5.0820000e+01	  -1.8235143e-01	  -5.0388173e-01	  -7.2750558e-01	
   5.0875000e+01	  -1.5629470e-01	  -4.8601145e-01	  -7.1989300e-01	
   5.0930000e+01	  -1.2808688e-01	  -4.6627717e-01	  -7.1065466e-01	
   5.0985000e+01	  -9.7961656e-02	  -4.4483456e-01	  -6.9986989e-01	
   5.1040000e+01	  -6.6189869e-02	  -4.2187000e-01	  -6.8763956e-01	
   5.1095000e+01	  -3.3060722e-02	  -3.9758138e-01	  -6.7407749e-01	
   5.1150000e+01	   1.1348789e-03	  -3.7216079e-01	  -6.5930101e-01	
   5.1205000e+01	   3.6115772e-02	  -3.4578260e-01	  -6.4342340e-01	
   5.1260000e+01	   7.1615528e-02	  -3.1859933e-01	  -6.2654993e-01	
   5.1315000e+01	   1.0738133e-01	  -2.9074471e-01	  -6.0877840e-01	
   5.1370000e+01	   1.4316820e-01	  -2.6234120e-01	  -5.9020411e-01	
   5.1425000e+01	   1.7873103e-01	  -2.3350888e-01	  -5.7092836e-01	
   5.1480000e+01	   2.1381755e-01	  -2.0437204e-01	  -5.5106701e-01	
   5.1535000e+01	   2.4816604e-01	  -1.7506089e-01	  -5.3075466e-01	
   5.1590000e+01	   2.8150993e-01	  -1.4570790e-01	  -5.1014182e-01	
   5.1645000e+01	   3.1358956e-01	  -1.1643928e-01	  -4.8938579e-01	
   5.1700000e+01	   3.4416890e-01	  -8.7363860e-02	  -4.6863797e-01	
   5.1755000e+01	   3.7305325e-01	  -5.8562622e-02	  -4.4803000e-01	
   5.1810000e+01	   4.0010257e-01	  -3.0082579e-02	  -4.2766079e-01	
   5.1865000e+01	   4.2523715e-01	  -1.9374319e-03	  -4.0758775e-01	
   5.1920000e+01	   4.4843446e-01	   2.5885085e-02	  -3.8782479e-01	
   5.1975000e+01	   4.6971899e-01	   5.3411252e-02	  -3.6834726e-01	
   5.2030000e+01	   4.8914730e-01	   8.0667669e-02	  -3.4910316e-01	
   5.2085000e+01	   5.0679097e-01	   1.0766877e-01	  -3.3002942e-01	
   5.2140000e+01	   5.2272078e-01	   1.3440761e-01	  -3.1107064e-01	
   5.2195000e+01	   5.3699513e-01	   1.6084977e-01	  -2.9219569e-01	
   5.2250000e+01	   5.4965417e-01	   1.8692951e-01	  -2.7340791e-01	
   5.2305000e+01	   5.6072035e-01	   2.1254886e-01	  -2.5474698e-01	
   5.2360000e+01	   5.7020546e-01	   2.3758182e-01	  -2.3628186e-01	
   5.2415000e+01	   5.7812273e-01	   2.6188416e-01	  -2.1809704e-01	
   5.2470000e+01	   5.8450066e-01	   2.8530519e-01	  -2.0027704e-01	
   5.2525000e+01	   5.8939440e-01	   3.0769781e-01	  -1.8289473e-01	
   5.2580000e+01	   5.9289152e-01	   3.2892542e-01	  -1.6600627e-01	
   5.2635000e+01	   5.9511128e-01	   3.4886670e-01	  -1.4965154e-01	
   5.2690000e+01	   5.9619764e-01	   3.6741867e-01	  -1.3385738e-01	
   5.2745000e+01	   5.9630691e-01	   3.8449677e-01	  -1.1864224e-01	
   5.2800000e+01	   5.9559149e-01	   4.0003169e-01	  -1.0402157e-01	
   5.2855000e+01	   5.9418278e-01	   4.1396501e-01	  -9.0013755e-02	
   5.2910000e+01	   5.9217665e-01	   4.2624611e-01	  -7.6644744e-02	
   5.2965000e+01	   5.8962468e-01	   4.3683116e-01	  -6.3949148e-02	
   5.3020000e+01	   5.8653380e-01	   4.4568534e-01	  -5.1965621e-02	
   5.3075000e+01	   5.8287464e-01	   4.5278959e-01	  -4.0727088e-02	
   5.3130000e+01	   5.7859607e-01	   4.5814976e-01	  -3.0250496e-02	
   5.3185000e+01	   5.7364057e-01	   4.6180392e-01	  -2.0531618e-02	
   5.3240000e+01	   5.6795641e-01	   4.6382546e-01	  -1.1546408e-02	
   5.3295000e+01	   5.6150531e-01	   4.6432318e-01	  -3.2566117e-03	
   5.3350000e+01	   5.5426605e-01	   4.6343873e-01	   4.3826027e-03	
   5.3405000e+01	   5.4623366e-01	   4.6134033e-01	   1.1414164e-02	
   5.3460000e+01	   5.3741439e-01	   4.5821152e-01	   1.7871602e-02	
   5.3515000e+01	   5.2781755e-01	   4.5423630e-01	   2.3774551e-02	
   5.3570000e+01	   5.1744670e-01	   4.4958409e-01	   2.9127656e-02	
   5.3625000e+01	   5.0629319e-01	   4.4439781e-01	   3.3922552e-02	
   5.3680000e+01	   4.9433517e-01	   4.3878797e-01	   3.8143478e-02	
   5.3735000e+01	   4.8154422e-01	   4.3283464e-01	   4.1777124e-02	
   5.3790000e+01	   4.6789922e-01	   4.2659610e-01	   4.4825151e-02	
   5.3845000e+01	   4.5340356e-01	   4.2012042e-01	   4.7315637e-02	
   5.3900000e+01	   4.3810041e-01	   4.1345646e-01	   4.9310244e-02	
   5.3955000e+01	   4.2208269e-01	   4.0666274e-01	   5.0905961e-02	
   5.4010000e+01	   4.0549713e-01	   3.9981351e-01	   5.2231190e-02	
   5.4065000e+01	   3.8854276e-01	   3.9300209e-01	   5.3436530e-02	
   5.4120000e+01	   3.7146494e-01	   3.8634137e-01	   5.4682466e-02	
   5.4175000e+01	   3.5454633e-01	   3.7996159e-01	   5.6127211e-02	
   5.4230000e+01	   3.3809619e-01	   3.7400564e-01	   5.7916931e-02	
   5.4285000e+01	   3.2243976e-01	   3.6862327e-01	   6.0179449e-02	
   5.4340000e+01	   3.0790860e-01	   3.6396634e-01	   6.3022809e-02	
   5.4395000e+01	   2.9483316e-01	   3.6018764e-01	   6.6539940e-02	
   5.4450000e+01	   2.8353818e-01	   3.5744349e-01	   7.0818276e-02	
   5.4505000e+01	   2.7433936e-01	   3.5589741e-01	   7.5949868e-02	
   5.4560000e+01	   2.6753857e-01	   3.5572034e-01	   8.2037064e-02	
   5.4615000e+01	   2.6341616e-01	   3.5708582e-01	   8.9191794e-02	
   5.4670000e+01	   2.6222032e-01	   3.6016074e-01	   9.7529228e-02	
   5.4725000e+01	   2.6415398e-01	   3.6509338e-01	   1.0715690e-01	
   5.4780000e+01	   2.6936021e-01	   3.7199964e-01	   1.1816048e-01	
   5.4835000e+01	   2.7790813e-01	   3.8094966e-01	   1.3058931e-01	
   5.4890000e+01	   2.8978313e-01	   3.9195744e-01	   1.4444589e-01	
   5.4945000e+01	   3.0488398e-01	   4.0497636e-01	   1.5968236e-01	
   5.5000000e+01	   3.2302948e-01	   4.1990295e-01	   1.7620425e-01	
   5.5055000e+01	   3.4397476e-01	   4.3658901e-01	   1.9388058e-01	
   5.5110000e+01	   3.6743323e-01	   4.5485851e-01	   2.1255795e-01	
   5.5165000e+01	   3.9309796e-01	   4.7452315e-01	   2.3207430e-01	
   5.5220000e+01	   4.2065760e-01	   4.9539240e-01	   2.5226901e-01	
   5.5275000e+01	   4.4980555e-01	   5.1727731e-01	   2.7298833e-01	
   5.5330000e+01	   4.8024244e-01	   5.3998867e-01	   2.9408704e-01	
   5.5385000e+01	   5.1167244e-01	   5.6333099e-01	   3.1542742e-01	
   5.5440000e+01	   5.4379492e-01	   5.8709482e-01	   3.3687756e-01	
   5.5495000e+01	   5.7629471e-01	   6.1105067e-01	   3.5831102e-01	
   5.5550000e+01	   6.0883524e-01	   6.3494787e-01	   3.7960827e-01	
   5.5605000e+01	   6.4105860e-01	   6.5852064e-01	   4.0065894e-01	
   5.5660000e+01	   6.7259462e-01	   6.8150119e-01	   4.2136453e-01	
   5.5715000e+01	   7.0307813e-01	   7.0363808e-01	   4.4164123e-01	
   5.5770000e+01	   7.3217066e-01	   7.2471628e-01	   4.6142267e-01	
   5.5825000e+01	   7.5958093e-01	   7.4457366e-01	   4.8066211e-01	
   5.5880000e+01	   7.8507948e-01	   7.6310987e-01	   4.9933391e-01	
   5.5935000e+01	   8.0850522e-01	   7.8028676e-01	   5.1743371e-01	
   5.5990000e+01	   8.2976371e-01	   7.9612148e-01	   5.3497689e-01	
   5.6045000e+01	   8.4881806e-01	   8.1067370e-01	   5.5199469e-01	
   5.6100000e+01	   8.6567363e-01	   8.2402831e-01	   5.6852820e-01	
   5.6155000e+01	   8.8035914e-01	   8.3627709e-01	   5.8462148e-01	
   5.6210000e+01	   8.9290814e-01	   8.4750290e-01	   6.0031438e-01	
   5.6265000e+01	   9.0334527e-01	   8.5776822e-01	   6.1563544e-01	
   5.6320000e+01	   9.1168015e-01	   8.6711002e-01	   6.3059676e-01	
   5.6375000e+01	   9.1791084e-01	   8.7554260e-01	   6.4519427e-01	
   5.6430000e+01	   9.2203513e-01	   8.8306871e-01	   6.5941530e-01	
   5.6485000e+01	   9.2406499e-01	   8.8969422e-01	   6.7325063e-01	
   5.6540000e+01	   9.2403869e-01	   8.9543981e-01	   6.8670531e-01	
   5.6595000e+01	   9.2202749e-01	   9.0034571e-01	   6.9980394e-01	
   5.6650000e+01	   9.1813686e-01	   9.0447014e-01	   7.1258793e-01	
   5.6705000e+01	   9.1250265e-01	   9.0788382e-01	   7.2510540e-01	
   5.6760000e+01	   9.0528308e-01	   9.1066198e-01	   7.3739652e-01	
   5.6815000e+01	   8.9664661e-01	   9.1287415e-01	   7.4947865e-01	
   5.6870000e+01	   8.8675681e-01	   9.1457352e-01	   7.6133572e-01	
   5.6925000e+01	   8.7575657e-01	   9.1578796e-01	   7.7291432e-01	
   5.6980000e+01	   8.6375546e-01	   9.1651459e-01	   7.8412688e-01	
   5.7035000e+01	   8.5082490e-01	   9.1671969e-01	   7.9486136e-01	
   5.7090000e+01	   8.3700387e-01	   9.1634546e-01	   8.0499684e-01	
   5.7145000e+01	   8.2231353e-01	   9.1532220e-01	   8.1442254e-01	
   5.7200000e+01	   8.0677498e-01	   9.1358264e-01	   8.2305525e-01	
   5.7255000e+01	   7.9042439e-01	   9.1107422e-01	   8.3085024e-01	
   5.7310000e+01	   7.7332240e-01	   9.0776748e-01	   8.3780375e-01	
   5.7365000e+01	   7.5555700e-01	   9.0365927e-01	   8.4394769e-01	
   5.7420000e+01	   7.3724023e-01	   8.9877080e-01	   8.4933857e-01	
   5.7475000e+01	   7.1850050e-01	   8.9314147e-01	   8.5404337e-01	
   5.7530000e+01	   6.9947307e-01	   8.8682135e-01	   8.5812620e-01	
   5.7585000e+01	   6.8029073e-01	   8.7986490e-01	   8.6163864e-01	
   5.7640000e+01	   6.6107647e-01	   8.7232813e-01	   8.6461517e-01	
   5.7695000e+01	   6.4194009e-01	   8.6427098e-01	   8.6707478e-01	
   5.7750000e+01	   6.2298061e-01	   8.5576476e-01	   8.6902948e-01	
   5.7805000e+01	   6.0429433e-01	   8.4690222e-01	   8.7049848e-01	
   5.7860000e+01	   5.8598518e-01	   8.3780485e-01	   8.7152411e-01	
   5.7915000e+01	   5.6817379e-01	   8.2862416e-01	   8.7218471e-01	
   5.7970000e+01	   5.5100292e-01	   8.1953727e-01	   8.7260129e-01	
   5.8025000e+01	   5.3463828e-01	   8.1073908e-01	   8.7293666e-01	
   5.8080000e+01	   5.1926408e-01	   8.0243126e-01	   8.7338701e-01	
   5.8135000e+01	   5.0507325e-01	   7.9480881e-01	   8.7416700e-01	
   5.8190000e+01	   4.9225404e-01	   7.8804607e-01	   8.7549080e-01	
   5.8245000e+01	   4.8097604e-01	   7.8228509e-01	   8.7755311e-01	
   5.8300000e+01	   4.7137911e-01	   7.7762858e-01	   8.8051496e-01	
   5.8355000e+01	   4.6356783e-01	   7.7413950e-01	   8.8449763e-01	
   5.8410000e+01	   4.5761272e-01	   7.7184771e-01	   8.8958573e-01	
   5.8465000e+01	   4.5355697e-01	   7.7076143e-01	   8.9583644e-01	
   5.8520000e+01	   4.5142569e-01	   7.7088024e-01	   9.0328930e-01	
   5.8575000e+01	   4.5123508e-01	   7.7220680e-01	   9.1197218e-01	
   5.8630000e+01	   4.5299952e-01	   7.7475491e-01	   9.2190126e-01	
   5.8685000e+01	   4.5673445e-01	   7.7855241e-01	   9.3307523e-01	
   5.8740000e+01	   4.6245386e-01	   7.8363854e-01	   9.4546497e-01	
   5.8795000e+01	   4.7016275e-01	   7.9005775e-01	   9.5900180e-01	
   5.8850000e+01	   4.7984697e-01	   7.9785252e-01	   9.7356806e-01	
   5.8905000e+01	   4.9146346e-01	   8.0705698e-01	   9.8899352e-01	
   5.8960000e+01	   5.0493404e-01	   8.1769243e-01	   1.0050602e+00	
   5.9015000e+01	   5.2014485e-01	   8.2976551e-01	   1.0215164e+00	
   5.9070000e+01	   5.3695179e-01	   8.4326995e-01	   1.0380966e+00	
   5.9125000e+01	   5.5518883e-01	   8.5818972e-01	   1.0545425e+00	
   5.9180000e+01	   5.7467484e-01	   8.7450037e-01	   1.0706182e+00	
   5.9235000e+01	   5.9521647e-01	   8.9216657e-01	   1.0861188e+00	
   5.9290000e+01	   6.1660733e-01	   9.1113733e-01	   1.1008713e+00	
   5.9345000e+01	   6.3862500e-01	   9.3134071e-01	   1.1147316e+00	
   5.9400000e+01	   6.6102704e-01	   9.5267733e-01	   1.1275775e+00	
   5.9455000e+01	   6.8354687e-01	   9.7501244e-01	   1.1393012e+00	
   5.9510000e+01	   7.0589166e-01	   9.9816861e-01	   1.1498024e+00	
   5.9565000e+01	   7.2774392e-01	   1.0219216e+00	   1.1589838e+00	
   5.9620000e+01	   7.4876831e-01	   1.0460012e+00	   1.1667510e+00	
   5.9675000e+01	   7.6862465e-01	   1.0700993e+00	   1.1730164e+00	
   5.9730000e+01	   7.8698743e-01	   1.0938853e+00	   1.1777098e+00	
   5.9785000e+01	   8.0356855e-01	   1.1170259e+00	   1.1807912e+00	
   5.9840000e+01	   8.1813815e-01	   1.1392062e+00	   1.1822599e+00	
   5.9895000e+01	   8.3053875e-01	   1.1601465e+00	   1.1821571e+00	
   5.9950000e+01	   8.4069094e-01	   1.1796157e+00	   1.1805618e+00	
   6.0005000e+01	   8.4859041e-01	   1.1974389e+00	   1.1775825e+00	
   6.0060000e+01	   8.5429768e-01	   1.2134992e+00	   1.1733465e+00	
   6.0115000e+01	   8.5792264e-01	   1.2277335e+00	   1.1679864e+00	
   6.0170000e+01	   8.5960677e-01	   1.2401242e+00	   1.1616280e+00	
   6.0225000e+01	   8.5950596e-01	   1.2506914e+00	   1.1543808e+00	
   6.0280000e+01	   8.5777690e-01	   1.2594860e+00	   1.1463350e+00	
   6.0335000e+01	   8.5457018e-01	   1.2665851e+00	   1.1375677e+00	
   6.0390000e+01	   8.5003168e-01	   1.2720896e+00	   1.1281563e+00	
   6.0445000e+01	   8.4431062e-01	   1.2761218e+00	   1.1181962e+00	
   6.0500000e+01	   8.3756946e-01	   1.2788223e+00	   1.1078155e+00	
   6.0555000e+01	   8.2999149e-01	   1.2803455e+00	   1.0971813e+00	
   6.0610000e+01	   8.2178418e-01	   1.2808540e+00	   1.0864976e+00	
   6.0665000e+01	   8.1317785e-01	   1.2805124e+00	   1.0759951e+00	
   6.0720000e+01	   8.0441849e-01	   1.2794782e+00	   1.0659152e+00	
   6.0775000e+01	   7.9575451e-01	   1.2778903e+00	   1.0564912e+00	
   6.0830000e+01	   7.8741898e-01	   1.2758556e+00	   1.0479277e+00	
   6.0885000e+01	   7.7961095e-01	   1.2734362e+00	   1.0403810e+00	
   6.0940000e+01	   7.7248003e-01	   1.2706396e+00	   1.0339422e+00	
   6.0995000e+01	   7.6611726e-01	   1.2674154e+00	   1.0286256e+00	
   6.1050000e+01	   7.6055511e-01	   1.2636626e+00	   1.0243664e+00	
   6.1105000e+01	   7.5577711e-01	   1.2592470e+00	   1.0210288e+00	
   6.1160000e+01	   7.5173410e-01	   1.2540249e+00	   1.0184221e+00	
   6.1215000e+01	   7.4836223e-01	   1.2478653e+00	   1.0163212e+00	
   6.1270000e+01	   7.4559839e-01	   1.2406667e+00	   1.0144860e+00	
   6.1325000e+01	   7.4339071e-01	   1.2323674e+00	   1.0126798e+00	
   6.1380000e+01	   7.4170225e-01	   1.2229460e+00	   1.0106830e+00	
   6.1435000e+01	   7.4050823e-01	   1.2124151e+00	   1.0083026e+00	
   6.1490000e+01	   7.3978884e-01	   1.2008090e+00	   1.0053737e+00	
   6.1545000e+01	   7.3952071e-01	   1.1881719e+00	   1.0017577e+00	
   6.1600000e+01	   7.3966932e-01	   1.1745503e+00	   9.9733667e-01	
   6.1655000e+01	   7.4018441e-01	   1.1599897e+00	   9.9201041e-01	
   6.1710000e+01	   7.4100034e-01	   1.1445378e+00	   9.8569637e-01	
   6.1765000e+01	   7.4204267e-01	   1.1282535e+00	   9.7833565e-01	
   6.1820000e+01	   7.4323885e-01	   1.1112164e+00	   9.6990117e-01	
   6.1875000e+01	   7.4452900e-01	   1.0935348e+00	   9.6040350e-01	
   6.1930000e+01	   7.4587313e-01	   1.0753500e+00	   9.4989222e-01	
   6.1985000e+01	   7.4725339e-01	   1.0568375e+00	   9.3845348e-01	
   6.2040000e+01	   7.4867110e-01	   1.0382076e+00	   9.2620408e-01	
   6.2095000e+01	   7.5013902e-01	   1.0197039e+00	   9.1328173e-01	
   6.2150000e+01	   7.5167053e-01	   1.0015992e+00	   8.9983291e-01	
   6.2205000e+01	   7.5326949e-01	   9.8418677e-01	   8.8600124e-01	
   6.2260000e+01	   7.5492505e-01	   9.6776882e-01	   8.7191866e-01	
   6.2315000e+01	   7.5661405e-01	   9.5264475e-01	   8.5770134e-01	
   6.2370000e+01	   7.5831182e-01	   9.3910241e-01	   8.4345232e-01	
   6.2425000e+01	   7.6000809e-01	   9.2741383e-01	   8.2926953e-01	
   6.2480000e+01	   7.6172304e-01	   9.1783256e-01	   8.1525462e-01	
   6.2535000e+01	   7.6351784e-01	   9.1058913e-01	   8.0151717e-01	
   6.2590000e+01	   7.6549733e-01	   9.0588313e-01	   7.8817216e-01	
   6.2645000e+01	   7.6780511e-01	   9.0387271e-01	   7.7533082e-01	
   6.2700000e+01	   7.7061241e-01	   9.0466178e-01	   7.6308745e-01	
   6.2755000e+01	   7.7410216e-01	   9.0828522e-01	   7.5150542e-01	
   6.2810000e+01	   7.7844970e-01	   9.1469438e-01	   7.4060543e-01	
   6.2865000e+01	   7.8380260e-01	   9.2374630e-01	   7.3035763e-01	
   6.2920000e+01	   7.9026296e-01	   9.3520052e-01	   7.2067863e-01	
   6.2975000e+01	   7.9787493e-01	   9.4872631e-01	   7.1143484e-01	
   6.3030000e+01	   8.0661959e-01	   9.6392107e-01	   7.0245279e-01	
   6.3085000e+01	   8.1641725e-01	   9.8033755e-01	   6.9353566e-01	
   6.3140000e+01	   8.2713506e-01	   9.9751473e-01	   6.8448387e-01	
   6.3195000e+01	   8.3859649e-01	   1.0150060e+00	   6.7511508e-01	
   6.3250000e+01	   8.5059058e-01	   1.0323995e+00	   6.6527889e-01	
   6.3305000e+01	   8.6287928e-01	   1.0493290e+00	   6.5486390e-01	
   6.3360000e+01	   8.7520192e-01	   1.0654755e+00	   6.4379728e-01	
   6.3415000e+01	   8.8727600e-01	   1.0805631e+00	   6.3203916e-01	
   6.3470000e+01	   8.9879539e-01	   1.0943525e+00	   6.1957471e-01	
   6.3525000e+01	   9.0942872e-01	   1.1066343e+00	   6.0640756e-01	
   6.3580000e+01	   9.1882153e-01	   1.1172240e+00	   5.9255629e-01	
   6.3635000e+01	   9.2660412e-01	   1.1259622e+00	   5.7805447e-01	
   6.3690000e+01	   9.3240635e-01	   1.1327203e+00	   5.6295413e-01	
   6.3745000e+01	   9.3587850e-01	   1.1374123e+00	   5.4733189e-01	
   6.3800000e+01	   9.3671488e-01	   1.1400055e+00	   5.3129461e-01	
   6.3855000e+01	   9.3467613e-01	   1.1405261e+00	   5.1498085e-01	
   6.3910000e+01	   9.2960644e-01	   1.1390552e+00	   4.9855597e-01	
   6.3965000e+01	   9.2144367e-01	   1.1357179e+00	   4.8220114e-01	
   6.4020000e+01	   9.1022030e-01	   1.1306679e+00	   4.6609743e-01	
   6.4075000e+01	   8.9605490e-01	   1.1240666e+00	   4.5040694e-01	
   6.4130000e+01	   8.7913607e-01	   1.1160602e+00	   4.3525460e-01	
   6.4185000e+01	   8.5970235e-01	   1.1067577e+00	   4.2071456e-01	
   6.4240000e+01	   8.3802158e-01	   1.0962151e+00	   4.0680357e-01	
   6.4295000e+01	   8.1437262e-01	   1.0844286e+00	   3.9348146e-01	
   6.4350000e+01	   7.8903205e-01	   1.0713378e+00	   3.8065929e-01	
   6.4405000e+01	   7.6226795e-01	   1.0568399e+00	   3.6821523e-01	
   6.4460000e+01	   7.3434029e-01	   1.0408120e+00	   3.5601492e-01	
   6.4515000e+01	   7.0550472e-01	   1.0231357e+00	   3.4393124e-01	
   6.4570000e+01	   6.7601569e-01	   1.0037210e+00	   3.3185888e-01	
   6.4625000e+01	   6.4612587e-01	   9.8252425e-01	   3.1972208e-01	
   6.4680000e+01	   6.1608102e-01	   9.5955914e-01	   3.0747566e-01	
   6.4735000e+01	   5.8611102e-01	   9.3489633e-01	   2.9509996e-01	
   6.4790000e+01	   5.5641819e-01	   9.0865454e-01	   2.8259116e-01	
   6.4845000e+01	   5.2716508e-01	   8.8098604e-01	   2.6994932e-01	
   6.4900000e+01	   4.9846387e-01	   8.5206137e-01	   2.5716723e-01	
   6.4955000e+01	   4.7036845e-01	   8.2205594e-01	   2.4422177e-01	
   6.5010000e+01	   4.4287089e-01	   7.9113954e-01	   2.3106892e-01	
   6.5065000e+01	   4.1590402e-01	   7.5946973e-01	   2.1764364e-01	
   6.5120000e+01	   3.8935228e-01	   7.2719084e-01	   2.0386597e-01	
   6.5175000e+01	   3.6306951e-01	   6.9443793e-01	   1.8965144e-01	
   6.5230000e+01	   3.3690012e-01	   6.6134247e-01	   1.7492289e-01	
   6.5285000e+01	   3.1069877e-01	   6.2803647e-01	   1.5962010e-01	
   6.5340000e+01	   2.8434498e-01	   5.9465358e-01	   1.4370502e-01	
   6.5395000e+01	   2.5775061e-01	   5.6132660e-01	   1.2716044e-01	
   6.5450000e+01	   2.3086075e-01	   5.2818271e-01	   1.0998203e-01	
   6.5505000e+01	   2.0365025e-01	   4.9533873e-01	   9.2167507e-02	
   6.5560000e+01	   1.7611843e-01	   4.6289816e-01	   7.3708615e-02	
   6.5615000e+01	   1.4828344e-01	   4.3095006e-01	   5.4589199e-02	
   6.5670000e+01	   1.2017783e-01	   3.9956929e-01	   3.4788747e-02	
   6.5725000e+01	   9.1847445e-02	   3.6881984e-01	   1.4289473e-02	
   6.5780000e+01	   6.3355535e-02	   3.3876248e-01	  -6.9141977e-03	
   6.5835000e+01	   3.4790509e-02	   3.0946432e-01	  -2.8805176e-02	
   6.5890000e+01	   6.2733456e-03	   2.8100578e-01	  -5.1335202e-02	
   6.5945000e+01	  -2.2039031e-02	   2.5348344e-01	  -7.4421497e-02	
   6.6000000e+01	  -4.9955961e-02	   2.2701012e-01	  -9.7949897e-02	
   6.6055000e+01	  -7.7261282e-02	   2.0171232e-01	  -1.2178370e-01	
   6.6110000e+01	  -1.0372701e-01	   1.7772396e-01	  -1.4577626e-01	
   6.6165000e+01	  -1.2913065e-01	   1.5517730e-01	  -1.6978465e-01	
   6.6220000e+01	  -1.5327371e-01	   1.3419281e-01	  -1.9368157e-01	
   6.6275000e+01	  -1.7599954e-01	   1.1486906e-01	  -2.1736413e-01	
   6.6330000e+01	  -1.9720791e-01	   9.7272678e-02	  -2.4075867e-01	
   6.6385000e+01	  -2.1686255e-01	   8.1430840e-02	  -2.6382094e-01	
   6.6440000e+01	  -2.3498810e-01	   6.7331396e-02	  -2.8653084e-01	
   6.6495000e+01	  -2.5165584e-01	   5.4933638e-02	  -3.0888243e-01	
   6.6550000e+01	  -2.6696249e-01	   4.4187458e-02	  -3.3087107e-01	
   6.6605000e+01	  -2.8100810e-01	   3.5055051e-02	  -3.5248148e-01	
   6.6660000e+01	  -2.9387835e-01	   2.7528456e-02	  -3.7368118e-01	
   6.6715000e+01	  -3.0563439e-01	   2.1637224e-02	  -3.9442231e-01	
   6.6770000e+01	  -3.1631169e-01	   1.7443152e-02	  -4.1465182e-01	
   6.6825000e+01	  -3.2592699e-01	   1.5022967e-02	  -4.3432572e-01	
   6.6880000e+01	  -3.3449097e-01	   1.4443049e-02	  -4.5342103e-01	
   6.6935000e+01	  -3.4202340e-01	   1.5731360e-02	  -4.7194198e-01	
   6.6990000e+01	  -3.4856751e-01	   1.8852639e-02	  -4.8992110e-01	
   6.7045000e+01	  -3.5420043e-01	   2.3693542e-02	  -5.0741569e-01	
   6.7100000e+01	  -3.5903671e-01	   3.0061503e-02	  -5.2449869e-01	
   6.7155000e+01	  -3.6322358e-01	   3.7695961e-02	  -5.4124438e-01	
   6.7210000e+01	  -3.6692947e-01	   4.6287898e-02	  -5.5771258e-01	
   6.7265000e+01	  -3.7032928e-01	   5.5503266e-02	  -5.7393633e-01	
   6.7320000e+01	  -3.7359047e-01	   6.5005411e-02	  -5.8991632e-01	
   6.7375000e+01	  -3.7686334e-01	   7.4471742e-02	  -6.0562321e-01	
   6.7430000e+01	  -3.8027713e-01	   8.3601960e-02	  -6.2100670e-01	
   6.7485000e+01	  -3.8394190e-01	   9.2118447e-02	  -6.3600847e-01	
   6.7540000e+01	  -3.8795451e-01	   9.9761931e-02	  -6.5057572e-01	
   6.7595000e+01	  -3.9240664e-01	   1.0628545e-01	  -6.6467340e-01	
   6.7650000e+01	  -3.9739263e-01	   1.1144847e-01	  -6.7829418e-01	
   6.7705000e+01	  -4.0301553e-01	   1.1501250e-01	  -6.9146479e-01	
   6.7760000e+01	  -4.0938959e-01	   1.1674001e-01	  -7.0424702e-01	
   6.7815000e+01	  -4.1663777e-01	   1.1639776e-01	  -7.1673263e-01	
   6.7870000e+01	  -4.2488315e-01	   1.1376571e-01	  -7.2903217e-01	
   6.7925000e+01	  -4.3423506e-01	   1.0865133e-01	  -7.4125822e-01	
   6.7980000e+01	  -4.4477273e-01	   1.0090606e-01	  -7.5350553e-01	
   6.8035000e+01	  -4.5653058e-01	   9.0438642e-02	  -7.6583401e-01	
   6.8090000e+01	  -4.6948997e-01	   7.7222464e-02	  -7.7826021e-01	
   6.8145000e+01	  -4.8357947e-01	   6.1297118e-02	  -7.9075860e-01	
   6.8200000e+01	  -4.9868298e-01	   4.2765212e-02	  -8.0327053e-01	
   6.8255000e+01	  -5.1465342e-01	   2.1783940e-02	  -8.1571759e-01	
   6.8310000e+01	  -5.3132926e-01	  -1.4481871e-03	  -8.2801754e-01	
   6.8365000e+01	  -5.4855077e-01	  -2.6706067e-02	  -8.4010029e-01	
   6.8420000e+01	  -5.6617311e-01	  -5.3749833e-02	  -8.5192136e-01	
   6.8475000e+01	  -5.8407385e-01	  -8.2331564e-02	  -8.6347037e-01	
   6.8530000e+01	  -6.0215291e-01	  -1.1219667e-01	  -8.7477223e-01	
   6.8585000e+01	  -6.2032462e-01	  -1.4308072e-01	  -8.8587982e-01	
   6.8640000e+01	  -6.3850439e-01	  -1.7470429e-01	  -8.9685996e-01	
   6.8695000e+01	  -6.5659475e-01	  -2.0676934e-01	  -9.0777747e-01	
   6.8750000e+01	  -6.7447480e-01	  -2.3895995e-01	  -9.1868170e-01	
   6.8805000e+01	  -6.9199440e-01	  -2.7094729e-01	  -9.2959837e-01	
   6.8860000e+01	  -7.0897392e-01	  -3.0239797e-01	  -9.4052681e-01	
   6.8915000e+01	  -7.2521016e-01	  -3.3298561e-01	  -9.5144223e-01	
   6.8970000e+01	  -7.4048846e-01	  -3.6240472e-01	  -9.6230168e-01	
   6.9025000e+01	  -7.5459905e-01	  -3.9038429e-01	  -9.7305122e-01	
   6.9080000e+01	  -7.6735415e-01	  -4.1669663e-01	  -9.8363076e-01	
   6.9135000e+01	  -7.7860165e-01	  -4.4115846e-01	  -9.9397444e-01	
   6.9190000e+01	  -7.8823172e-01	  -4.6362409e-01	  -1.0040066e+00	
   6.9245000e+01	  -7.9617495e-01	  -4.8397372e-01	  -1.0136362e+00	
   6.9300000e+01	  -8.0239387e-01	  -5.0210130e-01	  -1.0227525e+00	
   6.9355000e+01	  -8.0687259e-01	  -5.1790649e-01	  -1.0312283e+00	
   6.9410000e+01	  -8.0960926e-01	  -5.3129335e-01	  -1.0389287e+00	
   6.9465000e+01	  -8.1061347e-01	  -5.4217554e-01	  -1.0457236e+00	
   6.9520000e+01	  -8.0990783e-01	  -5.5048493e-01	  -1.0514992e+00	
   6.9575000e+01	  -8.0753239e-01	  -5.5618164e-01	  -1.0561670e+00	
   6.9630000e+01	  -8.0355101e-01	  -5.5926453e-01	  -1.0596709e+00	
   6.9685000e+01	  -7.9805838e-01	  -5.5978066e-01	  -1.0619919e+00	
   6.9740000e+01	  -7.9118459e-01	  -5.5782996e-01	  -1.0631492e+00	
   6.9795000e+01	  -7.8309396e-01	  -5.5356272e-01	  -1.0631965e+00	
   6.9850000e+01	  -7.7397647e-01	  -5.4716943e-01	  -1.0622120e+00	
   6.9905000e+01	  -7.6403271e-01	  -5.3886500e-01	  -1.0602863e+00	
   6.9960000e+01	  -7.5345516e-01	  -5.2887119e-01	  -1.0575090e+00	
   7.0015000e+01	  -7.4241035e-01	  -5.1740229e-01	  -1.0539588e+00	
   7.0070000e+01	  -7.3102607e-01	  -5.0465664e-01	  -1.0496988e+00	
   7.0125000e+01	  -7.1938584e-01	  -4.9081387e-01	  -1.0447768e+00	
   7.0180000e+01	  -7.0753075e-01	  -4.7603731e-01	  -1.0392291e+00	
   7.0235000e+01	  -6.9546829e-01	  -4.6048135e-01	  -1.0330875e+00	
   7.0290000e+01	  -6.8318781e-01	  -4.4430232e-01	  -1.0263880e+00	
   7.0345000e+01	  -6.7067988e-01	  -4.2766941e-01	  -1.0191792e+00	
   7.0400000e+01	  -6.5795527e-01	  -4.1077231e-01	  -1.0115269e+00	
   7.0455000e+01	  -6.4505942e-01	  -3.9382422e-01	  -1.0035152e+00	
   7.0510000e+01	  -6.3207939e-01	  -3.7705933e-01	  -9.9524224e-01	
   7.0565000e+01	  -6.1914138e-01	  -3.6072354e-01	  -9.8681099e-01	
   7.0620000e+01	  -6.0639973e-01	  -3.4505887e-01	  -9.7831841e-01	
   7.0675000e+01	  -5.9402139e-01	  -3.3028496e-01	  -9.6984758e-01	
   7.0730000e+01	  -5.8217088e-01	  -3.1658235e-01	  -9.6146569e-01	
   7.0785000e+01	  -5.7099832e-01	  -3.0408116e-01	  -9.5322619e-01	
   7.0840000e+01	  -5.6063198e-01	  -2.9285802e-01	  -9.4517284e-01	
   7.0895000e+01	  -5.5117671e-01	  -2.8294306e-01	  -9.3734585e-01	
   7.0950000e+01	  -5.4271892e-01	  -2.7433571e-01	  -9.2979010e-01	
   7.1005000e+01	  -5.3533701e-01	  -2.6702627e-01	  -9.2256363e-01	
   7.1060000e+01	  -5.2911386e-01	  -2.6101823e-01	  -9.1574373e-01	
   7.1115000e+01	  -5.2414817e-01	  -2.5634648e-01	  -9.0943020e-01	
   7.1170000e+01	  -5.2056122e-01	  -2.5308780e-01	  -9.0374610e-01	
   7.1225000e+01	  -5.1849627e-01	  -2.5136171e-01	  -8.9883415e-01	
   7.1280000e+01	  -5.1810871e-01	  -2.5132103e-01	  -8.9484637e-01	
   7.1335000e+01	  -5.1954854e-01	  -2.5313357e-01	  -8.9192822e-01	
   7.1390000e+01	  -5.2293966e-01	  -2.5695797e-01	  -8.9020124e-01	
   7.1445000e+01	  -5.2836067e-01	  -2.6291853e-01	  -8.8974720e-01	
   7.1500000e+01	  -5.3583069e-01	  -2.7108349e-01	  -8.9059565e-01	
   7.1555000e+01	  -5.4530223e-01	  -2.8145054e-01	  -8.9271621e-01	
   7.1610000e+01	  -5.5666119e-01	  -2.9394151e-01	  -8.9601641e-01	
   7.1665000e+01	  -5.6973333e-01	  -3.0840607e-01	  -9.0034507e-01	
   7.1720000e+01	  -5.8429589e-01	  -3.2463415e-01	  -9.0550276e-01	
   7.1775000e+01	  -6.0009367e-01	  -3.4237550e-01	  -9.1126057e-01	
   7.1830000e+01	  -6.1685768e-01	  -3.6136328e-01	  -9.1738494e-01	
   7.1885000e+01	  -6.3432372e-01	  -3.8133728e-01	  -9.2366292e-01	
   7.1940000e+01	  -6.5224780e-01	  -4.0206302e-01	  -9.2992212e-01	
   7.1995000e+01	  -6.7041591e-01	  -4.2334366e-01	  -9.3604160e-01	
   7.2050000e+01	  -6.8864573e-01	  -4.4502203e-01	  -9.4195198e-01	
   7.2105000e+01	  -7.0677980e-01	  -4.6697132e-01	  -9.4762604e-01	
   7.2160000e+01	  -7.2467342e-01	  -4.8907698e-01	  -9.5306397e-01	
   7.2215000e+01	  -7.4218229e-01	  -5.1121525e-01	  -9.5827839e-01	
   7.2270000e+01	  -7.5915357e-01	  -5.3323420e-01	  -9.6328210e-01	
   7.2325000e+01	  -7.7542260e-01	  -5.5494246e-01	  -9.6807981e-01	
   7.2380000e+01	  -7.9081573e-01	  -5.7610941e-01	  -9.7266468e-01	
   7.2435000e+01	  -8.0515962e-01	  -5.9647567e-01	  -9.7701971e-01	
   7.2490000e+01	  -8.1829486e-01	  -6.1576943e-01	  -9.8112367e-01	
   7.2545000e+01	  -8.3009092e-01	  -6.3372444e-01	  -9.8495985e-01	
   7.2600000e+01	  -8.4045867e-01	  -6.5009667e-01	  -9.8852478e-01	
   7.2655000e+01	  -8.4935774e-01	  -6.6467636e-01	  -9.9183370e-01	
   7.2710000e+01	  -8.5679673e-01	  -6.7729214e-01	  -9.9492093e-01	
   7.2765000e+01	  -8.6282591e-01	  -6.8780790e-01	  -9.9783526e-01	
   7.2820000e+01	  -8.6752465e-01	  -6.9611720e-01	  -1.0006325e+00	
   7.2875000e+01	  -8.7098727e-01	  -7.0213979e-01	  -1.0033678e+00	
   7.2930000e+01	  -8.7331064e-01	  -7.0582179e-01	  -1.0060889e+00	
   7.2985000e+01	  -8.7458527e-01	  -7.0713926e-01	  -1.0088310e+00	
   7.3040000e+01	  -8.7489066e-01	  -7.0610468e-01	  -1.0116138e+00	
   7.3095000e+01	  -8.7429518e-01	  -7.0277469e-01	  -1.0144425e+00	
   7.3150000e+01	  -8.7285984e-01	  -6.9725792e-01	  -1.0173117e+00	
   7.3205000e+01	  -8.7064475e-01	  -6.8972154e-01	  -1.0202107e+00	
   7.3260000e+01	  -8.6771539e-01	  -6.8039523e-01	  -1.0231291e+00	
   7.3315000e+01	  -8.6414561e-01	  -6.6956860e-01	  -1.0260603e+00	
   7.3370000e+01	  -8.6001493e-01	  -6.5757886e-01	  -1.0289996e+00	
   7.3425000e+01	  -8.5539903e-01	  -6.4478842e-01	  -1.0319373e+00	
   7.3480000e+01	  -8.5035580e-01	  -6.3155711e-01	  -1.0348489e+00	
   7.3535000e+01	  -8.4491135e-01	  -6.1821550e-01	  -1.0376857e+00	
   7.3590000e+01	  -8.3905096e-01	  -6.0504398e-01	  -1.0403708e+00	
   7.3645000e+01	  -8.3271805e-01	  -5.9225927e-01	  -1.0428004e+00	
   7.3700000e+01	  -8.2582156e-01	  -5.8000829e-01	  -1.0448502e+00	
   7.3755000e+01	  -8.1824978e-01	  -5.6836871e-01	  -1.0463856e+00	
   7.3810000e+01	  -8.0988799e-01	  -5.5735566e-01	  -1.0472769e+00	
   7.3865000e+01	  -8.0063749e-01	  -5.4693500e-01	  -1.0474135e+00	
   7.3920000e+01	  -7.9043355e-01	  -5.3704137e-01	  -1.0467188e+00	
   7.3975000e+01	  -7.7925989e-01	  -5.2759782e-01	  -1.0451580e+00	
   7.4030000e+01	  -7.6715697e-01	  -5.1853309e-01	  -1.0427419e+00	
   7.4085000e+01	  -7.5422191e-01	  -5.0979313e-01	  -1.0395227e+00	
   7.4140000e+01	  -7.4059929e-01	  -5.0134413e-01	  -1.0355849e+00	
   7.4195000e+01	  -7.2646493e-01	  -4.9316762e-01	  -1.0310295e+00	
   7.4250000e+01	  -7.1200658e-01	  -4.8525144e-01	  -1.0259592e+00	
   7.4305000e+01	  -6.9740615e-01	  -4.7758140e-01	  -1.0204657e+00	
   7.4360000e+01	  -6.8282657e-01	  -4.7013704e-01	  -1.0146250e+00	
   7.4415000e+01	  -6.6840541e-01	  -4.6289292e-01	  -1.0084982e+00	
   7.4470000e+01	  -6.5425550e-01	  -4.5582534e-01	  -1.0021385e+00	
   7.4525000e+01	  -6.4047143e-01	  -4.4892211e-01	  -9.9560087e-01	
   7.4580000e+01	  -6.2713931e-01	  -4.4219262e-01	  -9.8894951e-01	
   7.4635000e+01	  -6.1434697e-01	  -4.3567606e-01	  -9.8226429e-01	
   7.4690000e+01	  -6.0219152e-01	  -4.2944520e-01	  -9.7564234e-01	
   7.4745000e+01	  -5.9078164e-01	  -4.2360280e-01	  -9.6919425e-01	
   7.4800000e+01	  -5.8023261e-01	  -4.1827072e-01	  -9.6303463e-01	
   7.4855000e+01	  -5.7065455e-01	  -4.1357527e-01	  -9.5726854e-01	
   7.4910000e+01	  -5.6213669e-01	  -4.0963321e-01	  -9.5197682e-01	
   7.4965000e+01	  -5.5473193e-01	  -4.0654033e-01	  -9.4720357e-01	
   7.5020000e+01	  -5.4844582e-01	  -4.0436283e-01	  -9.4294973e-01	
   7.5075000e+01	  -5.4323344e-01	  -4.0313184e-01	  -9.3917529e-01	
   7.5130000e+01	  -5.3900467e-01	  -4.0284176e-01	  -9.3580968e-01	
   7.5185000e+01	  -5.3563608e-01	  -4.0345295e-01	  -9.3276694e-01	
   7.5240000e+01	  -5.3298624e-01	  -4.0489847e-01	  -9.2996073e-01	
   7.5295000e+01	  -5.3091206e-01	  -4.0709367e-01	  -9.2731524e-01	
   7.5350000e+01	  -5.2928346e-01	  -4.0994751e-01	  -9.2477094e-01	
   7.5405000e+01	  -5.2799405e-01	  -4.1337248e-01	  -9.2228522e-01	
   7.5460000e+01	  -5.2696567e-01	  -4.1729029e-01	  -9.1982836e-01	
   7.5515000e+01	  -5.2614593e-01	  -4.2163133e-01	  -9.1737482e-01	
   7.5570000e+01	  -5.2549938e-01	  -4.2632805e-01	  -9.1489150e-01	
   7.5625000e+01	  -5.2499500e-01	  -4.3130510e-01	  -9.1232622e-01	
   7.5680000e+01	  -5.2459410e-01	  -4.3646990e-01	  -9.0960031e-01	
   7.5735000e+01	  -5.2424206e-01	  -4.4170760e-01	  -9.0660751e-01	
   7.5790000e+01	  -5.2386556e-01	  -4.4688185e-01	  -9.0321935e-01	
   7.5845000e+01	  -5.2337492e-01	  -4.5184116e-01	  -8.9929531e-01	
   7.5900000e+01	  -5.2267093e-01	  -4.5642908e-01	  -8.9469532e-01	
   7.5955000e+01	  -5.2165400e-01	  -4.6049542e-01	  -8.8929223e-01	
   7.6010000e+01	  -5.2023239e-01	  -4.6390599e-01	  -8.8298249e-01	
   7.6065000e+01	  -5.1832722e-01	  -4.6655015e-01	  -8.7569507e-01	
   7.6120000e+01	  -5.1587297e-01	  -4.6834522e-01	  -8.6739746e-01	
   7.6175000e+01	  -5.1281265e-01	  -4.6923553e-01	  -8.5809593e-01	
   7.6230000e+01	  -5.0908879e-01	  -4.6918563e-01	  -8.4782924e-01	
   7.6285000e+01	  -5.0463362e-01	  -4.6817064e-01	  -8.3665846e-01	
   7.6340000e+01	  -4.9936167e-01	  -4.6616690e-01	  -8.2465717e-01	
   7.6395000e+01	  -4.9316635e-01	  -4.6314474e-01	  -8.1190408e-01	
   7.6450000e+01	  -4.8592124e-01	  -4.5906587e-01	  -7.9847952e-01	
   7.6505000e+01	  -4.7748746e-01	  -4.5388699e-01	  -7.8446602e-01	
   7.6560000e+01	  -4.6772759e-01	  -4.4756949e-01	  -7.6995267e-01	
   7.6615000e+01	  -4.5652350e-01	  -4.4009318e-01	  -7.5504074e-01	
   7.6670000e+01	  -4.4379399e-01	  -4.3147071e-01	  -7.3984814e-01	
   7.6725000e+01	  -4.2950761e-01	  -4.2175760e-01	  -7.2450936e-01	
   7.6780000e+01	  -4.1368659e-01	  -4.1105178e-01	  -7.0916886e-01	
   7.6835000e+01	  -3.9640062e-01	  -3.9948039e-01	  -6.9396788e-01	
   7.6890000e+01	  -3.7775290e-01	  -3.8717916e-01	  -6.7902777e-01	
   7.6945000e+01	  -3.5786369e-01	  -3.7427258e-01	  -6.6443457e-01	
   7.7000000e+01	  -3.3685658e-01	  -3.6086100e-01	  -6.5022887e-01	
   7.7055000e+01	  -3.1485058e-01	  -3.4701612e-01	  -6.3640330e-01	
   7.7110000e+01	  -2.9195826e-01	  -3.3278383e-01	  -6.2290771e-01	
   7.7165000e+01	  -2.6828875e-01	  -3.1819176e-01	  -6.0966065e-01	
   7.7220000e+01	  -2.4395413e-01	  -3.0325869e-01	  -5.9656384e-01	
   7.7275000e+01	  -2.1907792e-01	  -2.8800332e-01	  -5.8351697e-01	
   7.7330000e+01	  -1.9380349e-01	  -2.7245078e-01	  -5.7043051e-01	
   7.7385000e+01	  -1.6829890e-01	  -2.5663542e-01	  -5.5723398e-01	
   7.7440000e+01	  -1.4275538e-01	  -2.4059948e-01	  -5.4387770e-01	
   7.7495000e+01	  -1.1737875e-01	  -2.2438803e-01	  -5.3032835e-01	
   7.7550000e+01	  -9.2375018e-02	  -2.0804127e-01	  -5.1656100e-01	
   7.7605000e+01	  -6.7933520e-02	  -1.9158629e-01	  -5.0255075e-01	
   7.7660000e+01	  -4.4211882e-02	  -1.7503098e-01	  -4.8826744e-01	
   7.7715000e+01	  -2.1326820e-02	  -1.5836250e-01	  -4.7367535e-01	
   7.7770000e+01	   6.4760766e-04	  -1.4155107e-01	  -4.5873770e-01	
   7.7825000e+01	   2.1674560e-02	  -1.2455837e-01	  -4.4342560e-01	
   7.7880000e+01	   4.1743292e-02	  -1.0734956e-01	  -4.2772984e-01	
   7.7935000e+01	   6.0854786e-02	  -8.9906759e-02	  -4.1167285e-01	
   7.7990000e+01	   7.9007508e-02	  -7.2241122e-02	  -3.9531664e-01	
   7.8045000e+01	   9.6186359e-02	  -5.4401593e-02	  -3.7876444e-01	
   7.8100000e+01	   1.1235664e-01	  -3.6479989e-02	  -3.6215665e-01	
   7.8155000e+01	   1.2746399e-01	  -1.8611566e-02	  -3.4566231e-01	
   7.8210000e+01	   1.4144083e-01	  -9.6952173e-04	  -3.2946613e-01	
   7.8265000e+01	   1.5421801e-01	   1.6246411e-02	  -3.1375222e-01	
   7.8320000e+01	   1.6573878e-01	   3.2824957e-02	  -2.9868697e-01	
   7.8375000e+01	   1.7597090e-01	   4.8558959e-02	  -2.8440361e-01	
   7.8430000e+01	   1.8491410e-01	   6.3259071e-02	  -2.7099075e-01	
   7.8485000e+01	   1.9260116e-01	   7.6763557e-02	  -2.5848761e-01	
   7.8540000e+01	   1.9909332e-01	   8.8943342e-02	  -2.4688696e-01	
   7.8595000e+01	   2.0447144e-01	   9.9702400e-02	  -2.3614451e-01	
   7.8650000e+01	   2.0882439e-01	   1.0897433e-01	  -2.2619198e-01	
   7.8705000e+01	   2.1223645e-01	   1.1671677e-01	  -2.1695055e-01	
   7.8760000e+01	   2.1477612e-01	   1.2290576e-01	  -2.0834197e-01	
   7.8815000e+01	   2.1648933e-01	   1.2753167e-01	  -2.0029600e-01	
   7.8870000e+01	   2.1739944e-01	   1.3059739e-01	  -1.9275340e-01	
   7.8925000e+01	   2.1751534e-01	   1.3211953e-01	  -1.8566356e-01	
   7.8980000e+01	   2.1684561e-01	   1.3213250e-01	  -1.7897745e-01	
   7.9035000e+01	   2.1541461e-01	   1.3069475e-01	  -1.7263970e-01	
   7.9090000e+01	   2.1327550e-01	   1.2789489e-01	  -1.6658336e-01	
   7.9145000e+01	   2.1051699e-01	   1.2385559e-01	  -1.6072880e-01	
   7.9200000e+01	   2.0726293e-01	   1.1873380e-01	  -1.5498684e-01	
   7.9255000e+01	   2.0366564e-01	   1.1271640e-01	  -1.4926602e-01	
   7.9310000e+01	   1.9989516e-01	   1.0601160e-01	  -1.4348276e-01	
   7.9365000e+01	   1.9612766e-01	   9.8837652e-02	  -1.3757114e-01	
   7.9420000e+01	   1.9253511e-01	   9.1411136e-02	  -1.3148876e-01	
   7.9475000e+01	   1.8927718e-01	   8.3936838e-02	  -1.2521715e-01	
   7.9530000e+01	   1.8649648e-01	   7.6600322e-02	  -1.1875759e-01	
   7.9585000e+01	   1.8431752e-01	   6.9564774e-02	  -1.1212421e-01	
   7.9640000e+01	   1.8284842e-01	   6.2972545e-02	  -1.0533745e-01	
   7.9695000e+01	   1.8218257e-01	   5.6949563e-02	  -9.8420301e-02	
   7.9750000e+01	   1.8239833e-01	   5.1609747e-02	  -9.1399092e-02	
   7.9805000e+01	   1.8355652e-01	   4.7057609e-02	  -8.4308252e-02	
   7.9860000e+01	   1.8569570e-01	   4.3388045e-02	  -7.7196750e-02	
   7.9915000e+01	   1.8882617e-01	   4.0682513e-02	  -7.0132665e-02	
   7.9970000e+01	   1.9292396e-01	   3.9001885e-02	  -6.3203345e-02	
   8.0025000e+01	   1.9792656e-01	   3.8378507e-02	  -5.6511222e-02	
   8.0080000e+01	   2.0373212e-01	   3.8811380e-02	  -5.0166862e-02	
   8.0135000e+01	   2.1020331e-01	   4.0267113e-02	  -4.4279652e-02	
   8.0190000e+01	   2.1717716e-01	   4.2686664e-02	  -3.8945424e-02	
   8.0245000e+01	   2.2448065e-01	   4.5996235e-02	  -3.4231527e-02	
   8.0300000e+01	   2.3194944e-01	   5.0120012e-02	  -3.0162465e-02	
   8.0355000e+01	   2.3944514e-01	   5.4991759e-02	  -2.6710303e-02	
   8.0410000e+01	   2.4686726e-01	   6.0562031e-02	  -2.3793070e-02	
   8.0465000e+01	   2.5415748e-01	   6.6799096e-02	  -2.1282111e-02	
   8.0520000e+01	   2.6129596e-01	   7.3683964e-02	  -1.9016553e-02	
   8.0575000e+01	   2.6829082e-01	   8.1201573e-02	  -1.6821208e-02	
   8.0630000e+01	   2.7516354e-01	   8.9330552e-02	  -1.4524259e-02	
   8.0685000e+01	   2.8193332e-01	   9.8034040e-02	  -1.1972292e-02	
   8.0740000e+01	   2.8860449e-01	   1.0725397e-01	  -9.0411945e-03	
   8.0795000e+01	   2.9515946e-01	   1.1691082e-01	  -5.6415085e-03	
   8.0850000e+01	   3.0155844e-01	   1.2691005e-01	  -1.7165421e-03	
   8.0905000e+01	   3.0774559e-01	   1.3715491e-01	   2.7672662e-03	
   8.0960000e+01	   3.1365926e-01	   1.4756304e-01	   7.8344388e-03	
   8.1015000e+01	   3.1924373e-01	   1.5808209e-01	   1.3512384e-02	
   8.1070000e+01	   3.2445897e-01	   1.6869906e-01	   1.9835971e-02	
   8.1125000e+01	   3.2928626e-01	   1.7944064e-01	   2.6844241e-02	
   8.1180000e+01	   3.3372738e-01	   1.9036446e-01	   3.4571506e-02	
   8.1235000e+01	   3.3779693e-01	   2.0154372e-01	   4.3035413e-02	
   8.1290000e+01	   3.4150921e-01	   2.1304835e-01	   5.2224677e-02	
   8.1345000e+01	   3.4486279e-01	   2.2492597e-01	   6.2088979e-02	
   8.1400000e+01	   3.4782630e-01	   2.3718581e-01	   7.2532235e-02	
   8.1455000e+01	   3.5032788e-01	   2.4978871e-01	   8.3409788e-02	
   8.1510000e+01	   3.5225138e-01	   2.6264589e-01	   9.4530904e-02	
   8.1565000e+01	   3.5344164e-01	   2.7562604e-01	   1.0566857e-01	
   8.1620000e+01	   3.5371936e-01	   2.8856822e-01	   1.1657703e-01	
   8.1675000e+01	   3.5290166e-01	   3.0129634e-01	   1.2701411e-01	
   8.1730000e+01	   3.5082238e-01	   3.1363097e-01	   1.3676258e-01	
   8.1785000e+01	   3.4734786e-01	   3.2539629e-01	   1.4564566e-01	
   8.1840000e+01	   3.4238634e-01	   3.3642324e-01	   1.5353445e-01	
   8.1895000e+01	   3.3589066e-01	   3.4655028e-01	   1.6034769e-01	
   8.1950000e+01	   3.2785468e-01	   3.5562252e-01	   1.6604579e-01	
   8.2005000e+01	   3.1830483e-01	   3.6348985e-01	   1.7062138e-01	
   8.2060000e+01	   3.0728982e-01	   3.7000489e-01	   1.7408865e-01	
   8.2115000e+01	   2.9487129e-01	   3.7502173e-01	   1.7647381e-01	
   8.2170000e+01	   2.8111711e-01	   3.7839592e-01	   1.7780927e-01	
   8.2225000e+01	   2.6609932e-01	   3.7998723e-01	   1.7813301e-01	
   8.2280000e+01	   2.4989776e-01	   3.7966671e-01	   1.7749386e-01	
   8.2335000e+01	   2.3260785e-01	   3.7732747e-01	   1.7595989e-01	
   8.2390000e+01	   2.1434838e-01	   3.7289557e-01	   1.7362652e-01	
   8.2445000e+01	   1.9526567e-01	   3.6633780e-01	   1.7062069e-01	
   8.2500000e+01	   1.7553193e-01	   3.5766530e-01	   1.6709933e-01	
   8.2555000e+01	   1.5533730e-01	   3.4693292e-01	   1.6324179e-01	
   8.2610000e+01	   1.3487662e-01	   3.3423618e-01	   1.5923763e-01	
   8.2665000e+01	   1.1433379e-01	   3.1970810e-01	   1.5527268e-01	
   8.2720000e+01	   9.3866856e-02	   3.0351676e-01	   1.5151475e-01	
   8.2775000e+01	   7.3596607e-02	   2.8586190e-01	   1.4809969e-01	
   8.2830000e+01	   5.3601275e-02	   2.6697007e-01	   1.4511969e-01	
   8.2885000e+01	   3.3918085e-02	   2.4709033e-01	   1.4261693e-01	
   8.2940000e+01	   1.4551227e-02	   2.2649273e-01	   1.4058510e-01	
   8.2995000e+01	  -4.5158962e-03	   2.0546885e-01	   1.3897875e-01	
   8.3050000e+01	  -2.3307594e-02	   1.8433123e-01	   1.3772733e-01	
   8.3105000e+01	  -4.1845496e-02	   1.6340940e-01	   1.3674849e-01	
   8.3160000e+01	  -6.0142313e-02	   1.4304200e-01	   1.3595789e-01	
   8.3215000e+01	  -7.8199063e-02	   1.2356632e-01	   1.3527561e-01	
   8.3270000e+01	  -9.6004682e-02	   1.0530604e-01	   1.3463033e-01	
   8.3325000e+01	  -1.1353774e-01	   8.8557733e-02	   1.3396138e-01	
   8.3380000e+01	  -1.3076981e-01	   7.3576745e-02	   1.3321894e-01	
   8.3435000e+01	  -1.4766900e-01	   6.0564181e-02	   1.3236319e-01	
   8.3490000e+01	  -1.6420194e-01	   4.9657887e-02	   1.3136327e-01	
   8.3545000e+01	  -1.8033256e-01	   4.0930715e-02	   1.3019794e-01	
   8.3600000e+01	  -1.9601617e-01	   3.4398121e-02	   1.2885968e-01	
   8.3655000e+01	  -2.1119013e-01	   3.0033119e-02	   1.2736206e-01	
   8.3710000e+01	  -2.2576515e-01	   2.7782773e-02	   1.2574651e-01	
   8.3765000e+01	  -2.3962151e-01	   2.7580262e-02	   1.2408489e-01	
   8.3820000e+01	  -2.5261203e-01	   2.9349263e-02	   1.2247631e-01	
   8.3875000e+01	  -2.6457117e-01	   3.3000564e-02	   1.2103772e-01	
   8.3930000e+01	  -2.7532829e-01	   3.8423314e-02	   1.1988892e-01	
   8.3985000e+01	  -2.8472305e-01	   4.5474580e-02	   1.1913472e-01	
   8.4040000e+01	  -2.9262061e-01	   5.3970468e-02	   1.1884833e-01	
   8.4095000e+01	  -2.9892468e-01	   6.3681819e-02	   1.1905934e-01	
   8.4150000e+01	  -3.0358610e-01	   7.4337757e-02	   1.1974835e-01	
   8.4205000e+01	  -3.0660430e-01	   8.5638487e-02	   1.2084972e-01	
   8.4260000e+01	  -3.0802080e-01	   9.7275189e-02	   1.2226368e-01	
   8.4315000e+01	  -3.0790618e-01	   1.0895334e-01	   1.2387660e-01	
   8.4370000e+01	  -3.0634411e-01	   1.2041565e-01	   1.2558534e-01	
   8.4425000e+01	  -3.0341696e-01	   1.3145991e-01	   1.2731886e-01	
   8.4480000e+01	  -2.9919701e-01	   1.4194727e-01	   1.2905055e-01	
   8.4535000e+01	  -2.9374514e-01	   1.5179988e-01	   1.3079786e-01	
   8.4590000e+01	  -2.8711637e-01	   1.6098957e-01	   1.3261057e-01	
   8.4645000e+01	  -2.7937084e-01	   1.6952032e-01	   1.3455143e-01	
   8.4700000e+01	  -2.7058717e-01	   1.7740762e-01	   1.3667393e-01	
   8.4755000e+01	  -2.6087484e-01	   1.8465858e-01	   1.3900300e-01	
   8.4810000e+01	  -2.5038192e-01	   1.9125710e-01	   1.4152332e-01	
   8.4865000e+01	  -2.3929518e-01	   1.9715748e-01	   1.4417825e-01	
   8.4920000e+01	  -2.2783098e-01	   2.0228861e-01	   1.4687922e-01	
   8.4975000e+01	  -2.1621895e-01	   2.0656774e-01	   1.4952184e-01	
   8.5030000e+01	  -2.0468353e-01	   2.0991930e-01	   1.5200314e-01	
   8.5085000e+01	  -1.9342912e-01	   2.1229262e-01	   1.5423440e-01	
   8.5140000e+01	  -1.8263107e-01	   2.1367408e-01	   1.5614702e-01	
   8.5195000e+01	  -1.7243277e-01	   2.1409222e-01	   1.5769211e-01	
   8.5250000e+01	  -1.6294781e-01	   2.1361544e-01	   1.5883564e-01	
   8.5305000e+01	  -1.5426653e-01	   2.1234253e-01	   1.5955158e-01	
   8.5360000e+01	  -1.4646559e-01	   2.1038691e-01	   1.5981506e-01	
   8.5415000e+01	  -1.3961843e-01	   2.0785653e-01	   1.5959736e-01	
   8.5470000e+01	  -1.3380300e-01	   2.0483474e-01	   1.5886437e-01	
   8.5525000e+01	  -1.2910350e-01	   2.0136952e-01	   1.5758044e-01	
   8.5580000e+01	  -1.2560500e-01	   1.9747512e-01	   1.5571819e-01	
   8.5635000e+01	  -1.2338303e-01	   1.9314399e-01	   1.5327187e-01	
   8.5690000e+01	  -1.2249245e-01	   1.8836207e-01	   1.5026910e-01	
   8.5745000e+01	  -1.2295957e-01	   1.8312071e-01	   1.4677585e-01	
   8.5800000e+01	  -1.2477907e-01	   1.7742236e-01	   1.4289255e-01	
   8.5855000e+01	  -1.2791487e-01	   1.7128045e-01	   1.3874363e-01	
   8.5910000e+01	  -1.3230427e-01	   1.6471531e-01	   1.3446416e-01	
   8.5965000e+01	  -1.3786509e-01	   1.5774653e-01	   1.3018624e-01	
   8.6020000e+01	  -1.4450523e-01	   1.5038336e-01	   1.2602740e-01	
   8.6075000e+01	  -1.5213298e-01	   1.4261611e-01	   1.2208302e-01	
   8.6130000e+01	  -1.6066561e-01	   1.3441131e-01	   1.1842391e-01	
   8.6185000e+01	  -1.7003290e-01	   1.2571317e-01	   1.1509903e-01	
   8.6240000e+01	  -1.8017277e-01	   1.1645282e-01	   1.1214363e-01	
   8.6295000e+01	  -1.9101913e-01	   1.0656552e-01	   1.0959176e-01	
   8.6350000e+01	  -2.0248680e-01	   9.6011807e-02	   1.0748915e-01	
   8.6405000e+01	  -2.1445897e-01	   8.4796394e-02	   1.0590172e-01	
   8.6460000e+01	  -2.2678124e-01	   7.2978819e-02	   1.0491717e-01	
   8.6515000e+01	  -2.3926365e-01	   6.0672499e-02	   1.0463970e-01	
   8.6570000e+01	  -2.5169026e-01	   4.8033284e-02	   1.0517886e-01	
   8.6625000e+01	  -2.6383406e-01	   3.5242715e-02	   1.0663539e-01	
   8.6680000e+01	  -2.7547418e-01	   2.2491092e-02	   1.0908612e-01	
   8.6735000e+01	  -2.8641343e-01	   9.9625055e-03	   1.1256980e-01	
   8.6790000e+01	  -2.9649343e-01	  -2.1779305e-03	   1.1707585e-01	
   8.6845000e+01	  -3.0560475e-01	  -1.3794663e-02	   1.2253993e-01	
   8.6900000e+01	  -3.1369008e-01	  -2.4789609e-02	   1.2884937e-01	
   8.6955000e+01	  -3.2074072e-01	  -3.5105888e-02	   1.3585862e-01	
   8.7010000e+01	  -3.2678811e-01	  -4.4725749e-02	   1.4340934e-01	
   8.7065000e+01	  -3.3189353e-01	  -5.3663804e-02	   1.5134753e-01	
   8.7120000e+01	  -3.3613933e-01	  -6.1960065e-02	   1.5953232e-01	
   8.7175000e+01	  -3.3962263e-01	  -6.9676791e-02	   1.6783643e-01	
   8.7230000e+01	  -3.4245147e-01	  -7.6899079e-02	   1.7614188e-01	
   8.7285000e+01	  -3.4474254e-01	  -8.3736508e-02	   1.8433391e-01	
   8.7340000e+01	  -3.4661983e-01	  -9.0323242e-02	   1.9229536e-01	
   8.7395000e+01	  -3.4821182e-01	  -9.6814127e-02	   1.9990382e-01	
   8.7450000e+01	  -3.4964461e-01	  -1.0337441e-01	   2.0703399e-01	
   8.7505000e+01	  -3.5103078e-01	  -1.1016216e-01	   2.1356600e-01	
   8.7560000e+01	  -3.5245621e-01	  -1.1730538e-01	   2.1939851e-01	
   8.7615000e+01	  -3.5396806e-01	  -1.2487949e-01	   2.2446308e-01	
   8.7670000e+01	  -3.5556611e-01	  -1.3289184e-01	   2.2873556e-01	
   8.7725000e+01	  -3.5719901e-01	  -1.4127682e-01	   2.3224053e-01	
   8.7780000e+01	  -3.5876586e-01	  -1.4990068e-01	   2.3504747e-01	
   8.7835000e+01	  -3.6012327e-01	  -1.5857450e-01	   2.3725918e-01	
   8.7890000e+01	  -3.6109740e-01	  -1.6707377e-01	   2.3899364e-01	
   8.7945000e+01	  -3.6149963e-01	  -1.7516215e-01	   2.4036257e-01	
   8.8000000e+01	  -3.6114294e-01	  -1.8261558e-01	   2.4145234e-01	
   8.8055000e+01	  -3.5985549e-01	  -1.8924215e-01	   2.4231261e-01	
   8.8110000e+01	  -3.5748797e-01	  -1.9489384e-01	   2.4295498e-01	
   8.8165000e+01	  -3.5391354e-01	  -1.9946849e-01	   2.4336019e-01	
   8.8220000e+01	  -3.4902231e-01	  -2.0290337e-01	   2.4349110e-01	
   8.8275000e+01	  -3.4271494e-01	  -2.0516413e-01	   2.4330729e-01	
   8.8330000e+01	  -3.3489952e-01	  -2.0623338e-01	   2.4277759e-01	
   8.8385000e+01	  -3.2549350e-01	  -2.0610260e-01	   2.4188735e-01	
   8.8440000e+01	  -3.1443073e-01	  -2.0477023e-01	   2.4063899e-01	
   8.8495000e+01	  -3.0167305e-01	  -2.0224569e-01	   2.3904605e-01	
   8.8550000e+01	  -2.8722405e-01	  -1.9855770e-01	   2.3712348e-01	
   8.8605000e+01	  -2.7114114e-01	  -1.9376353e-01	   2.3487807e-01	
   8.8660000e+01	  -2.5354240e-01	  -1.8795613e-01	   2.3230273e-01	
   8.8715000e+01	  -2.3460646e-01	  -1.8126627e-01	   2.2937659e-01	
   8.8770000e+01	  -2.1456451e-01	  -1.7385743e-01	   2.2607087e-01	
   8.8825000e+01	  -1.9368474e-01	  -1.6591312e-01	   2.2235874e-01	
   8.8880000e+01	  -1.7225182e-01	  -1.5761940e-01	   2.1822719e-01	
   8.8935000e+01	  -1.5054616e-01	  -1.4914656e-01	   2.1368840e-01	
   8.8990000e+01	  -1.2882756e-01	  -1.4063375e-01	   2.0878801e-01	
   8.9045000e+01	  -1.0732565e-01	  -1.3217950e-01	   2.0360860e-01	
   8.9100000e+01	  -8.6237568e-02	  -1.2383940e-01	   1.9826797e-01	
   8.9155000e+01	  -6.5731611e-02	  -1.1563125e-01	   1.9291191e-01	
   8.9210000e+01	  -4.5955092e-02	  -1.0754711e-01	   1.8770224e-01	
   8.9265000e+01	  -2.7043885e-02	  -9.9569632e-02	   1.8280221e-01	
   8.9320000e+01	  -9.1311330e-03	  -9.1688846e-02	   1.7836287e-01	
   8.9375000e+01	   7.6470751e-03	  -8.3915074e-02	   1.7451306e-01	
   8.9430000e+01	   2.3151525e-02	  -7.6284961e-02	   1.7135488e-01	
   8.9485000e+01	   3.7246959e-02	  -6.8859530e-02	   1.6896532e-01	
   8.9540000e+01	   4.9814893e-02	  -6.1715702e-02	   1.6740244e-01	
   8.9595000e+01	   6.0767508e-02	  -5.4934221e-02	   1.6671307e-01	
   8.9650000e+01	   7.0058150e-02	  -4.8587059e-02	   1.6693931e-01	
   8.9705000e+01	   7.7686211e-02	  -4.2726870e-02	   1.6812213e-01	
   8.9760000e+01	   8.3695805e-02	  -3.7380449e-02	   1.7030005e-01	
   8.9815000e+01	   8.8168403e-02	  -3.2547246e-02	   1.7350263e-01	
   8.9870000e+01	   9.1210368e-02	  -2.8203060e-02	   1.7774049e-01	
   8.9925000e+01	   9.2937126e-02	  -2.4308647e-02	   1.8299396e-01	
   8.9980000e+01	   9.3456318e-02	  -2.0822292e-02	   1.8920160e-01	
   9.0035000e+01	   9.2852891e-02	  -1.7713680e-02	   1.9625044e-01	
   9.0090000e+01	   9.1179549e-02	  -1.4974683e-02	   2.0397181e-01	
   9.0145000e+01	   8.8455430e-02	  -1.2623328e-02	   2.1214533e-01	
   9.0200000e+01	   8.4673983e-02	  -1.0699661e-02	   2.2051135e-01	
   9.0255000e+01	   7.9818004e-02	  -9.2553903e-03	   2.2878969e-01	
   9.0310000e+01	   7.3876826e-02	  -8.3417599e-03	   2.3670100e-01	
   9.0365000e+01	   6.6860202e-02	  -7.9999485e-03	   2.4398579e-01	
   9.0420000e+01	   5.8806266e-02	  -8.2552707e-03	   2.5041764e-01	
   9.0475000e+01	   4.9784001e-02	  -9.1142929e-03	   2.5580923e-01	
   9.0530000e+01	   3.9890930e-02	  -1.0564868e-02	   2.6001153e-01	
   9.0585000e+01	   2.9246081e-02	  -1.2579973e-02	   2.6290750e-01	
   9.0640000e+01	   1.7979092e-02	  -1.5124968e-02	   2.6440294e-01	
   9.0695000e+01	   6.2178226e-03	  -1.8166229e-02	   2.6441723e-01	
   9.0750000e+01	  -5.9224454e-03	  -2.1677959e-02	   2.6287720e-01	
   9.0805000e+01	  -1.8345076e-02	  -2.5643560e-02	   2.5971727e-01	
   9.0860000e+01	  -3.0971446e-02	  -3.0050213e-02	   2.5488863e-01	
   9.0915000e+01	  -4.3734642e-02	  -3.4879385e-02	   2.4837514e-01	
   9.0970000e+01	  -5.6571131e-02	  -4.0097744e-02	   2.4021046e-01	
   9.1025000e+01	  -6.9413847e-02	  -4.5651152e-02	   2.3049036e-01	
   9.1080000e+01	  -8.2188395e-02	  -5.1462515e-02	   2.1937664e-01	
   9.1135000e+01	  -9.4812839e-02	  -5.7434181e-02	   2.0709230e-01	
   9.1190000e+01	  -1.0720092e-01	  -6.3454803e-02	   1.9390935e-01	
   9.1245000e+01	  -1.1926766e-01	  -6.9408304e-02	   1.8013183e-01	
   9.1300000e+01	  -1.3093570e-01	  -7.5181614e-02	   1.6607673e-01	
   9.1355000e+01	  -1.4214000e-01	  -8.0669424e-02	   1.5205562e-01	
   9.1410000e+01	  -1.5282909e-01	  -8.5776097e-02	   1.3835970e-01	
   9.1465000e+01	  -1.6296147e-01	  -9.0415182e-02	   1.2525159e-01	
   9.1520000e+01	  -1.7249762e-01	  -9.4506546e-02	   1.1296498e-01	
   9.1575000e+01	  -1.8138964e-01	  -9.7971482e-02	   1.0170962e-01	
   9.1630000e+01	  -1.8957229e-01	  -1.0072718e-01	   9.1676188e-02	
   9.1685000e+01	  -1.9695891e-01	  -1.0268280e-01	   8.3037319e-02	
   9.1740000e+01	  -2.0344399e-01	  -1.0373970e-01	   7.5944593e-02	
   9.1795000e+01	  -2.0891174e-01	  -1.0379700e-01	   7.0522667e-02	
   9.1850000e+01	  -2.1324850e-01	  -1.0276164e-01	   6.6860921e-02	
   9.1905000e+01	  -2.1635690e-01	  -1.0056084e-01	   6.5003398e-02	
   9.1960000e+01	  -2.1816944e-01	  -9.7154186e-02	   6.4939676e-02	
   9.2015000e+01	  -2.1865959e-01	  -9.2543111e-02	   6.6600168e-02	
   9.2070000e+01	  -2.1784783e-01	  -8.6775015e-02	   6.9858618e-02	
   9.2125000e+01	  -2.1580095e-01	  -7.9940155e-02	   7.4542771e-02	
   9.2180000e+01	  -2.1262296e-01	  -7.2160303e-02	   8.0451880e-02	
   9.2235000e+01	  -2.0843964e-01	  -6.3571330e-02	   8.7377703e-02	
   9.2290000e+01	  -2.0338090e-01	  -5.4304521e-02	   9.5124870e-02	
   9.2345000e+01	  -1.9756588e-01	  -4.4471487e-02	   1.0352683e-01	
   9.2400000e+01	  -1.9109390e-01	  -3.4155855e-02	   1.1245446e-01	
   9.2455000e+01	  -1.8404267e-01	  -2.3412949e-02	   1.2181561e-01	
   9.2510000e+01	  -1.7647358e-01	  -1.2276826e-02	   1.3154623e-01	
   9.2565000e+01	  -1.6844232e-01	  -7.7229912e-04	   1.4159590e-01	
   9.2620000e+01	  -1.6001168e-01	   1.1071389e-02	   1.5191227e-01	
   9.2675000e+01	  -1.5126373e-01	   2.3208477e-02	   1.6242799e-01	
   9.2730000e+01	  -1.4230923e-01	   3.5568275e-02	   1.7305201e-01	
   9.2785000e+01	  -1.3329211e-01	   4.8051136e-02	   1.8366595e-01	
   9.2840000e+01	  -1.2438667e-01	   6.0528727e-02	   1.9412570e-01	
   9.2895000e+01	  -1.1578701e-01	   7.2848408e-02	   2.0426758e-01	
   9.2950000e+01	  -1.0769133e-01	   8.4841024e-02	   2.1391729e-01	
   9.3005000e+01	  -1.0028542e-01	   9.6330117e-02	   2.2289928e-01	
   9.3060000e+01	  -9.3729433e-02	   1.0713972e-01	   2.3104546e-01	
   9.3115000e+01	  -8.8149871e-02	   1.1709959e-01	   2.3820328e-01	
   9.3170000e+01	  -8.3636964e-02	   1.2604948e-01	   2.4424330e-01	
   9.3225000e+01	  -8.0246918e-02	   1.3384468e-01	   2.4906396e-01	
   9.3280000e+01	  -7.8008776e-02	   1.4036237e-01	   2.5259062e-01	
   9.3335000e+01	  -7.6935271e-02	   1.4550733e-01	   2.5476801e-01	
   9.3390000e+01	  -7.7035284e-02	   1.4921547e-01	   2.5554918e-01	
   9.3445000e+01	  -7.8324139e-02	   1.5145475e-01	   2.5488643e-01	
   9.3500000e+01	  -8.0827552e-02	   1.5222589e-01	   2.5272941e-01	
   9.3555000e+01	  -8.4576372e-02	   1.5156619e-01	   2.4903364e-01	
   9.3610000e+01	  -8.9593234e-02	   1.4955615e-01	   2.4377805e-01	
   9.3665000e+01	  -9.5876255e-02	   1.4632461e-01	   2.3698570e-01	
   9.3720000e+01	  -1.0338522e-01	   1.4204869e-01	   2.2874081e-01	
   9.3775000e+01	  -1.1203304e-01	   1.3694787e-01	   2.1919788e-01	
   9.3830000e+01	  -1.2168347e-01	   1.3127262e-01	   2.0858081e-01	
   9.3885000e+01	  -1.3215555e-01	   1.2528788e-01	   1.9717170e-01	
   9.3940000e+01	  -1.4323445e-01	   1.1925273e-01	   1.8529119e-01	
   9.3995000e+01	  -1.5468755e-01	   1.1339923e-01	   1.7327428e-01	
   9.4050000e+01	  -1.6628287e-01	   1.0791455e-01	   1.6144748e-01	
   9.4105000e+01	  -1.7780561e-01	   1.0293063e-01	   1.5011103e-01	
   9.4160000e+01	  -1.8906836e-01	   9.8523292e-02	   1.3952782e-01	
   9.4215000e+01	  -1.9991234e-01	   9.4719289e-02	   1.2991934e-01	
   9.4270000e+01	  -2.1020137e-01	   9.1507818e-02	   1.2146802e-01	
   9.4325000e+01	  -2.1981284e-01	   8.8853703e-02	   1.1432310e-01	
   9.4380000e+01	  -2.2862995e-01	   8.6710262e-02	   1.0860555e-01	
   9.4435000e+01	  -2.3653762e-01	   8.5030177e-02	   1.0440909e-01	
   9.4490000e+01	  -2.4342264e-01	   8.3773688e-02	   1.0179760e-01	
   9.4545000e+01	  -2.4917783e-01	   8.2914437e-02	   1.0080150e-01	
   9.4600000e+01	  -2.5370882e-01	   8.2442397e-02	   1.0141489e-01	
   9.4655000e+01	  -2.5694231e-01	   8.2362973e-02	   1.0359407e-01	
   9.4710000e+01	  -2.5883304e-01	   8.2694092e-02	   1.0725726e-01	
   9.4765000e+01	  -2.5936678e-01	   8.3465936e-02	   1.1228649e-01	
   9.4820000e+01	  -2.5855644e-01	   8.4726701e-02	   1.1853369e-01	
   9.4875000e+01	  -2.5643176e-01	   8.6553591e-02	   1.2583278e-01	
   9.4930000e+01	  -2.5302539e-01	   8.9064476e-02	   1.3401665e-01	
   9.4985000e+01	  -2.4835996e-01	   9.2424631e-02	   1.4293501e-01	
   9.5040000e+01	  -2.4243981e-01	   9.6844679e-02	   1.5246835e-01	
   9.5095000e+01	  -2.3524896e-01	   1.0256876e-01	   1.6253502e-01	
   9.5150000e+01	  -2.2675580e-01	   1.0985417e-01	   1.7309070e-01	
   9.5205000e+01	  -2.1692408e-01	   1.1894481e-01	   1.8411930e-01	
   9.5260000e+01	  -2.0572861e-01	   1.3004108e-01	   1.9561667e-01	
   9.5315000e+01	  -1.9317162e-01	   1.4327051e-01	   2.0757185e-01	
   9.5370000e+01	  -1.7929489e-01	   1.5866537e-01	   2.1995142e-01	
   9.5425000e+01	  -1.6418376e-01	   1.7615413e-01	   2.3269149e-01	
   9.5480000e+01	  -1.4796127e-01	   1.9557037e-01	   2.4569930e-01	
   9.5535000e+01	  -1.3077432e-01	   2.1667545e-01	   2.5886386e-01	
