
0   3   6	
   0.0000000e+00	   1.2533745e+00	   7.9271268e-02	
   5.5000000e-02	   1.2711266e+00	   5.4397620e-02	
   1.1000000e-01	   1.2888016e+00	   2.9969869e-02	
   1.6500000e-01	   1.3068559e+00	   6.5015812e-03	
   2.2000000e-01	   1.3257329e+00	  -1.5554081e-02	
   2.7500000e-01	   1.3458348e+00	  -3.5825423e-02	
   3.3000000e-01	   1.3674957e+00	  -5.4036418e-02	
   3.8500000e-01	   1.3909603e+00	  -7.0012759e-02	
   4.4000000e-01	   1.4163714e+00	  -8.3678854e-02	
   4.9500000e-01	   1.4437673e+00	  -9.5045745e-02	
   5.5000000e-01	   1.4730865e+00	  -1.0419187e-01	
   6.0500000e-01	   1.5041742e+00	  -1.1124064e-01	
   6.6000000e-01	   1.5367868e+00	  -1.1633935e-01	
   7.1500000e-01	   1.5705963e+00	  -1.1964189e-01	
   7.7000000e-01	   1.6051950e+00	  -1.2129597e-01	
   8.2500000e-01	   1.6401032e+00	  -1.2143493e-01	
   8.8000000e-01	   1.6747731e+00	  -1.2017520e-01	
   9.3500000e-01	   1.7085912e+00	  -1.1761982e-01	
   9.9000000e-01	   1.7408791e+00	  -1.1386622e-01	
   1.0450000e+00	   1.7709006e+00	  -1.0901432e-01	
   1.1000000e+00	   1.7978769e+00	  -1.0317134e-01	
   1.1550000e+00	   1.8210146e+00	  -9.6451110e-02	
   1.2100000e+00	   1.8395402e+00	  -8.8968857e-02	
   1.2650000e+00	   1.8527383e+00	  -8.0833781e-02	
   1.3200000e+00	   1.8599859e+00	  -7.2142584e-02	
   1.3750000e+00	   1.8607831e+00	  -6.2975758e-02	
   1.4300000e+00	   1.8547783e+00	  -5.3397211e-02	
   1.4850000e+00	   1.8417881e+00	  -4.3457143e-02	
   1.5400000e+00	   1.8218097e+00	  -3.3197917e-02	
   1.5950000e+00	   1.7950258e+00	  -2.2661939e-02	
   1.6500000e+00	   1.7618064e+00	  -1.1899282e-02	
   1.7050000e+00	   1.7227094e+00	  -9.7221869e-04	
   1.7600000e+00	   1.6784813e+00	   1.0045122e-02	
   1.8150000e+00	   1.6300611e+00	   2.1072095e-02	
   1.8700000e+00	   1.5785887e+00	   3.2030415e-02	
   1.9250000e+00	   1.5254104e+00	   4.2853702e-02	
   1.9800000e+00	   1.4720719e+00	   5.3494555e-02	
   2.0350000e+00	   1.4202910e+00	   6.3927148e-02	
   2.0900000e+00	   1.3719057e+00	   7.4144970e-02	
   2.1450000e+00	   1.3287995e+00	   8.4154392e-02	
   2.2000000e+00	   1.2928031e+00	   9.3965376e-02	
   2.2550000e+00	   1.2655750e+00	   1.0358117e-01	
   2.3100000e+00	   1.2484651e+00	   1.1298880e-01	
   2.3650000e+00	   1.2423749e+00	   1.2215168e-01	
   2.4200000e+00	   1.2476382e+00	   1.3100593e-01	
   2.4750000e+00	   1.2639540e+00	   1.3946175e-01	
   2.5300000e+00	   1.2903899e+00	   1.4741040e-01	
   2.5850000e+00	   1.3254583e+00	   1.5473526e-01	
   2.6400000e+00	   1.3672494e+00	   1.6132451e-01	
   2.6950000e+00	   1.4135942e+00	   1.6708287e-01	
   2.7500000e+00	   1.4622266e+00	   1.7194020e-01	
   2.8050000e+00	   1.5109238e+00	   1.7585566e-01	
   2.8600000e+00	   1.5576200e+00	   1.7881728e-01	
   2.9150000e+00	   1.6004971e+00	   1.8083803e-01	
   2.9700000e+00	   1.6380524e+00	   1.8194848e-01	
   3.0250000e+00	   1.6691480e+00	   1.8218642e-01	
   3.0800000e+00	   1.6930426e+00	   1.8158586e-01	
   3.1350000e+00	   1.7094131e+00	   1.8016908e-01	
   3.1900000e+00	   1.7183643e+00	   1.7794418e-01	
   3.2450000e+00	   1.7204283e+00	   1.7490943e-01	
   3.3000000e+00	   1.7165505e+00	   1.7106429e-01	
   3.3550000e+00	   1.7080620e+00	   1.6642468e-01	
   3.4100000e+00	   1.6966314e+00	   1.6103845e-01	
   3.4650000e+00	   1.6841912e+00	   1.5499623e-01	
   3.5200000e+00	   1.6728342e+00	   1.4843562e-01	
   3.5750000e+00	   1.6646789e+00	   1.4153842e-01	
   3.6300000e+00	   1.6617109e+00	   1.3452128e-01	
   3.6850000e+00	   1.6656169e+00	   1.2762089e-01	
   3.7400000e+00	   1.6776438e+00	   1.2107574e-01	
   3.7950000e+00	   1.6985090e+00	   1.1510753e-01	
   3.8500000e+00	   1.7283743e+00	   1.0990409e-01	
   3.9050000e+00	   1.7668797e+00	   1.0560487e-01	
   3.9600000e+00	   1.8132177e+00	   1.0228975e-01	
   4.0150000e+00	   1.8662243e+00	   9.9971852e-02	
   4.0700000e+00	   1.9244742e+00	   9.8595348e-02	
   4.1250000e+00	   1.9863739e+00	   9.8039726e-02	
   4.1800000e+00	   2.0502557e+00	   9.8131499e-02	
   4.2350000e+00	   2.1144659e+00	   9.8661919e-02	
   4.2900000e+00	   2.1774431e+00	   9.9407092e-02	
   4.3450000e+00	   2.2377800e+00	   1.0014664e-01	
   4.4000000e+00	   2.2942673e+00	   1.0067811e-01	
   4.4550000e+00	   2.3459190e+00	   1.0082549e-01	
   4.5100000e+00	   2.3919782e+00	   1.0044191e-01	
   4.5650000e+00	   2.4319075e+00	   9.9408148e-02	
   4.6200000e+00	   2.4653664e+00	   9.7628649e-02	
   4.6750000e+00	   2.4921761e+00	   9.5025619e-02	
   4.7300000e+00	   2.5122780e+00	   9.1532321e-02	
   4.7850000e+00	   2.5256905e+00	   8.7088061e-02	
   4.8400000e+00	   2.5324747e+00	   8.1636975e-02	
   4.8950000e+00	   2.5327125e+00	   7.5131242e-02	
   4.9500000e+00	   2.5264998e+00	   6.7538327e-02	
   5.0050000e+00	   2.5139525e+00	   5.8851107e-02	
   5.0600000e+00	   2.4952173e+00	   4.9098376e-02	
   5.1150000e+00	   2.4704832e+00	   3.8352507e-02	
   5.1700000e+00	   2.4399860e+00	   2.6731569e-02	
   5.2250000e+00	   2.4040088e+00	   1.4394494e-02	
   5.2800000e+00	   2.3628788e+00	   1.5297023e-03	
   5.3350000e+00	   2.3169623e+00	  -1.1660295e-02	
   5.3900000e+00	   2.2666576e+00	  -2.4974632e-02	
   5.4450000e+00	   2.2123919e+00	  -3.8226889e-02	
   5.5000000e+00	   2.1546217e+00	  -5.1252776e-02	
   5.5550000e+00	   2.0938417e+00	  -6.3911717e-02	
   5.6100000e+00	   2.0306018e+00	  -7.6082863e-02	
   5.6650000e+00	   1.9655298e+00	  -8.7657732e-02	
   5.7200000e+00	   1.8993529e+00	  -9.8532542e-02	
   5.7750000e+00	   1.8329108e+00	  -1.0860272e-01	
   5.8300000e+00	   1.7671553e+00	  -1.1776090e-01	
   5.8850000e+00	   1.7031366e+00	  -1.2589874e-01	
   5.9400000e+00	   1.6419765e+00	  -1.3291244e-01	
   5.9950000e+00	   1.5848258e+00	  -1.3871104e-01	
   6.0500000e+00	   1.5328065e+00	  -1.4322545e-01	
   6.1050000e+00	   1.4869413e+00	  -1.4641642e-01	
   6.1600000e+00	   1.4480745e+00	  -1.4828017e-01	
   6.2150000e+00	   1.4167884e+00	  -1.4885103e-01	
   6.2700000e+00	   1.3933249e+00	  -1.4819996e-01	
   6.3250000e+00	   1.3775299e+00	  -1.4642808e-01	
   6.3800000e+00	   1.3688390e+00	  -1.4365663e-01	
   6.4350000e+00	   1.3663121e+00	  -1.4001590e-01	
   6.4900000e+00	   1.3687115e+00	  -1.3563499e-01	
   6.5450000e+00	   1.3746049e+00	  -1.3063374e-01	
   6.6000000e+00	   1.3824706e+00	  -1.2511816e-01	
   6.6550000e+00	   1.3907908e+00	  -1.1918085e-01	
   6.7100000e+00	   1.3981298e+00	  -1.1290623e-01	
   6.7650000e+00	   1.4031962e+00	  -1.0637900e-01	
   6.8200000e+00	   1.4048900e+00	  -9.9693949e-02	
   6.8750000e+00	   1.4023367e+00	  -9.2965098e-02	
   6.9300000e+00	   1.3949090e+00	  -8.6332339e-02	
   6.9850000e+00	   1.3822423e+00	  -7.9963333e-02	
   7.0400000e+00	   1.3642437e+00	  -7.4048608e-02	
   7.0950000e+00	   1.3410988e+00	  -6.8788867e-02	
   7.1500000e+00	   1.3132675e+00	  -6.4376453e-02	
   7.2050000e+00	   1.2814621e+00	  -6.0975401e-02	
   7.2600000e+00	   1.2465990e+00	  -5.8704622e-02	
   7.3150000e+00	   1.2097223e+00	  -5.7627042e-02	
   7.3700000e+00	   1.1719051e+00	  -5.7745761e-02	
   7.4250000e+00	   1.1341453e+00	  -5.9006994e-02	
   7.4800000e+00	   1.0972789e+00	  -6.1308794e-02	
   7.5350000e+00	   1.0619326e+00	  -6.4513912e-02	
   7.5900000e+00	   1.0285228e+00	  -6.8464974e-02	
   7.6450000e+00	   9.9729038e-01	  -7.3000255e-02	
   7.7000000e+00	   9.6835226e-01	  -7.7968388e-02	
   7.7550000e+00	   9.4175181e-01	  -8.3240311e-02	
   7.8100000e+00	   9.1750101e-01	  -8.8716687e-02	
   7.8650000e+00	   8.9561004e-01	  -9.4328956e-02	
   7.9200000e+00	   8.7610205e-01	  -1.0003296e-01	
   7.9750000e+00	   8.5901034e-01	  -1.0579709e-01	
   8.0300000e+00	   8.4435277e-01	  -1.1158998e-01	
   8.0850000e+00	   8.3207837e-01	  -1.1737299e-01	
   8.1400000e+00	   8.2198929e-01	  -1.2309846e-01	
   8.1950000e+00	   8.1365477e-01	  -1.2871136e-01	
   8.2500000e+00	   8.0634083e-01	  -1.3415199e-01	
   8.3050000e+00	   7.9897529e-01	  -1.3935963e-01	
   8.3600000e+00	   7.9015937e-01	  -1.4427780e-01	
   8.4150000e+00	   7.7823025e-01	  -1.4886123e-01	
   8.4700000e+00	   7.6136735e-01	  -1.5308346e-01	
   8.5250000e+00	   7.3772217e-01	  -1.5694372e-01	
   8.5800000e+00	   7.0554845e-01	  -1.6047083e-01	
   8.6350000e+00	   6.6332054e-01	  -1.6372193e-01	
   8.6900000e+00	   6.0983708e-01	  -1.6677561e-01	
   8.7450000e+00	   5.4430775e-01	  -1.6972050e-01	
   8.8000000e+00	   4.6641956e-01	  -1.7264186e-01	
   8.8550000e+00	   3.7637857e-01	  -1.7560878e-01	
   8.9100000e+00	   2.7492224e-01	  -1.7866431e-01	
   8.9650000e+00	   1.6329796e-01	  -1.8181970e-01	
   9.0200000e+00	   4.3205482e-02	  -1.8505286e-01	
   9.0750000e+00	  -8.3295137e-02	  -1.8831071e-01	
   9.1300000e+00	  -2.1390379e-01	  -1.9151562e-01	
   9.1850000e+00	  -3.4621380e-01	  -1.9457414e-01	
   9.2400000e+00	  -4.7783895e-01	  -1.9738604e-01	
   9.2950000e+00	  -6.0651977e-01	  -1.9985154e-01	
   9.3500000e+00	  -7.3020377e-01	  -2.0187674e-01	
   9.4050000e+00	  -8.4709970e-01	  -2.0337672e-01	
   9.4600000e+00	  -9.5570962e-01	  -2.0427583e-01	
   9.5150000e+00	  -1.0548450e+00	  -2.0450561e-01	
   9.5700000e+00	  -1.1436315e+00	  -2.0400161e-01	
   9.6250000e+00	  -1.2215020e+00	  -2.0270148e-01	
   9.6800000e+00	  -1.2881797e+00	  -2.0054629e-01	
   9.7350000e+00	  -1.3436559e+00	  -1.9748578e-01	
   9.7900000e+00	  -1.3881656e+00	  -1.9348616e-01	
   9.8450000e+00	  -1.4221641e+00	  -1.8853825e-01	
   9.9000000e+00	  -1.4462999e+00	  -1.8266415e-01	
   9.9550000e+00	  -1.4613868e+00	  -1.7592118e-01	
   1.0010000e+01	  -1.4683732e+00	  -1.6840178e-01	
   1.0065000e+01	  -1.4683082e+00	  -1.6022759e-01	
   1.0120000e+01	  -1.4623043e+00	  -1.5153750e-01	
   1.0175000e+01	  -1.4514989e+00	  -1.4247258e-01	
   1.0230000e+01	  -1.4370175e+00	  -1.3316216e-01	
   1.0285000e+01	  -1.4199418e+00	  -1.2371349e-01	
   1.0340000e+01	  -1.4012819e+00	  -1.1420575e-01	
   1.0395000e+01	  -1.3819570e+00	  -1.0468934e-01	
   1.0450000e+01	  -1.3627846e+00	  -9.5190494e-02	
   1.0505000e+01	  -1.3444792e+00	  -8.5720713e-02	
   1.0560000e+01	  -1.3276597e+00	  -7.6289449e-02	
   1.0615000e+01	  -1.3128623e+00	  -6.6918163e-02	
   1.0670000e+01	  -1.3005574e+00	  -5.7652373e-02	
   1.0725000e+01	  -1.2911636e+00	  -4.8568003e-02	
   1.0780000e+01	  -1.2850543e+00	  -3.9769899e-02	
   1.0835000e+01	  -1.2825531e+00	  -3.1382625e-02	
   1.0890000e+01	  -1.2839226e+00	  -2.3535701e-02	
   1.0945000e+01	  -1.2893482e+00	  -1.6347456e-02	
   1.1000000e+01	  -1.2989230e+00	  -9.9121603e-03	
   1.1055000e+01	  -1.3126370e+00	  -4.2927197e-03	
   1.1110000e+01	  -1.3303731e+00	   4.8162344e-04	
   1.1165000e+01	  -1.3519093e+00	   4.4139812e-03	
   1.1220000e+01	  -1.3769287e+00	   7.5355337e-03	
   1.1275000e+01	  -1.4050344e+00	   9.8984271e-03	
   1.1330000e+01	  -1.4357681e+00	   1.1566443e-02	
   1.1385000e+01	  -1.4686299e+00	   1.2604719e-02	
   1.1440000e+01	  -1.5030971e+00	   1.3070070e-02	
   1.1495000e+01	  -1.5386401e+00	   1.3003728e-02	
   1.1550000e+01	  -1.5747314e+00	   1.2428714e-02	
   1.1605000e+01	  -1.6108474e+00	   1.1353601e-02	
   1.1660000e+01	  -1.6464625e+00	   9.7824543e-03	
   1.1715000e+01	  -1.6810415e+00	   7.7283808e-03	
   1.1770000e+01	  -1.7140354e+00	   5.2267071e-03	
   1.1825000e+01	  -1.7448853e+00	   2.3438306e-03	
   1.1880000e+01	  -1.7730314e+00	  -8.2082411e-04	
   1.1935000e+01	  -1.7979282e+00	  -4.1397231e-03	
   1.1990000e+01	  -1.8190642e+00	  -7.4668118e-03	
   1.2045000e+01	  -1.8359846e+00	  -1.0648943e-02	
   1.2100000e+01	  -1.8483180e+00	  -1.3536725e-02	
   1.2155000e+01	  -1.8558012e+00	  -1.5993314e-02	
   1.2210000e+01	  -1.8582975e+00	  -1.7900730e-02	
   1.2265000e+01	  -1.8558037e+00	  -1.9163614e-02	
   1.2320000e+01	  -1.8484432e+00	  -1.9709926e-02	
   1.2375000e+01	  -1.8364484e+00	  -1.9488498e-02	
   1.2430000e+01	  -1.8201362e+00	  -1.8465000e-02	
   1.2485000e+01	  -1.7998822e+00	  -1.6618769e-02	
   1.2540000e+01	  -1.7760956e+00	  -1.3941848e-02	
   1.2595000e+01	  -1.7491967e+00	  -1.0440173e-02	
   1.2650000e+01	  -1.7196003e+00	  -6.1368926e-03	
   1.2705000e+01	  -1.6877072e+00	  -1.0780250e-03	
   1.2760000e+01	  -1.6539059e+00	   4.6605999e-03	
   1.2815000e+01	  -1.6185809e+00	   1.0967585e-02	
   1.2870000e+01	  -1.5821244e+00	   1.7693856e-02	
   1.2925000e+01	  -1.5449427e+00	   2.4655864e-02	
   1.2980000e+01	  -1.5074524e+00	   3.1644823e-02	
   1.3035000e+01	  -1.4700651e+00	   3.8440878e-02	
   1.3090000e+01	  -1.4331657e+00	   4.4829022e-02	
   1.3145000e+01	  -1.3970901e+00	   5.0613311e-02	
   1.3200000e+01	  -1.3621059e+00	   5.5627195e-02	
   1.3255000e+01	  -1.3284027e+00	   5.9739008e-02	
   1.3310000e+01	  -1.2960941e+00	   6.2852448e-02	
   1.3365000e+01	  -1.2652330e+00	   6.4902834e-02	
   1.3420000e+01	  -1.2358347e+00	   6.5850426e-02	
   1.3475000e+01	  -1.2079030e+00	   6.5671827e-02	
   1.3530000e+01	  -1.1814519e+00	   6.4350367e-02	
   1.3585000e+01	  -1.1565213e+00	   6.1867246e-02	
   1.3640000e+01	  -1.1331845e+00	   5.8196487e-02	
   1.3695000e+01	  -1.1115463e+00	   5.3306336e-02	
   1.3750000e+01	  -1.0917330e+00	   4.7167035e-02	
   1.3805000e+01	  -1.0738772e+00	   3.9762225e-02	
   1.3860000e+01	  -1.0581034e+00	   3.1100481e-02	
   1.3915000e+01	  -1.0445160e+00	   2.1223780e-02	
   1.3970000e+01	  -1.0331908e+00	   1.0210688e-02	
   1.4025000e+01	  -1.0241706e+00	  -1.8259567e-03	
   1.4080000e+01	  -1.0174633e+00	  -1.4745664e-02	
   1.4135000e+01	  -1.0130464e+00	  -2.8390346e-02	
   1.4190000e+01	  -1.0108764e+00	  -4.2597131e-02	
   1.4245000e+01	  -1.0109030e+00	  -5.7212358e-02	
   1.4300000e+01	  -1.0130839e+00	  -7.2104527e-02	
   1.4355000e+01	  -1.0173952e+00	  -8.7173925e-02	
   1.4410000e+01	  -1.0238359e+00	  -1.0235686e-01	
   1.4465000e+01	  -1.0324198e+00	  -1.1762332e-01	
   1.4520000e+01	  -1.0431582e+00	  -1.3296915e-01	
   1.4575000e+01	  -1.0560353e+00	  -1.4840546e-01	
   1.4630000e+01	  -1.0709866e+00	  -1.6394863e-01	
   1.4685000e+01	  -1.0878855e+00	  -1.7961260e-01	
   1.4740000e+01	  -1.1065385e+00	  -1.9540450e-01	
   1.4795000e+01	  -1.1266924e+00	  -2.1132314e-01	
   1.4850000e+01	  -1.1480487e+00	  -2.2736021e-01	
   1.4905000e+01	  -1.1702843e+00	  -2.4350334e-01	
   1.4960000e+01	  -1.1930742e+00	  -2.5974016e-01	
   1.5015000e+01	  -1.2161132e+00	  -2.7606307e-01	
   1.5070000e+01	  -1.2391362e+00	  -2.9247418e-01	
   1.5125000e+01	  -1.2619316e+00	  -3.0898902e-01	
   1.5180000e+01	  -1.2843478e+00	  -3.2563749e-01	
   1.5235000e+01	  -1.3062886e+00	  -3.4246066e-01	
   1.5290000e+01	  -1.3277002e+00	  -3.5950325e-01	
   1.5345000e+01	  -1.3485515e+00	  -3.7680258e-01	
   1.5400000e+01	  -1.3688132e+00	  -3.9437747e-01	
   1.5455000e+01	  -1.3884430e+00	  -4.1222077e-01	
   1.5510000e+01	  -1.4073787e+00	  -4.3029716e-01	
   1.5565000e+01	  -1.4255403e+00	  -4.4854533e-01	
   1.5620000e+01	  -1.4428406e+00	  -4.6688311e-01	
   1.5675000e+01	  -1.4592003e+00	  -4.8521574e-01	
   1.5730000e+01	  -1.4745675e+00	  -5.0344702e-01	
   1.5785000e+01	  -1.4889346e+00	  -5.2149256e-01	
   1.5840000e+01	  -1.5023534e+00	  -5.3929308e-01	
   1.5895000e+01	  -1.5149419e+00	  -5.5682521e-01	
   1.5950000e+01	  -1.5268816e+00	  -5.7410643e-01	
   1.6005000e+01	  -1.5384034e+00	  -5.9119268e-01	
   1.6060000e+01	  -1.5497653e+00	  -6.0816938e-01	
   1.6115000e+01	  -1.5612287e+00	  -6.2513899e-01	
   1.6170000e+01	  -1.5730386e+00	  -6.4220804e-01	
   1.6225000e+01	  -1.5854088e+00	  -6.5947603e-01	
   1.6280000e+01	  -1.5985155e+00	  -6.7702854e-01	
   1.6335000e+01	  -1.6124986e+00	  -6.9493496e-01	
   1.6390000e+01	  -1.6274697e+00	  -7.1324922e-01	
   1.6445000e+01	  -1.6435243e+00	  -7.3201243e-01	
   1.6500000e+01	  -1.6607536e+00	  -7.5125715e-01	
   1.6555000e+01	  -1.6792540e+00	  -7.7101266e-01	
   1.6610000e+01	  -1.6991321e+00	  -7.9130934e-01	
   1.6665000e+01	  -1.7205035e+00	  -8.1217938e-01	
   1.6720000e+01	  -1.7434835e+00	  -8.3365203e-01	
   1.6775000e+01	  -1.7681700e+00	  -8.5574294e-01	
   1.6830000e+01	  -1.7946238e+00	  -8.7844067e-01	
   1.6885000e+01	  -1.8228515e+00	  -9.0169532e-01	
   1.6940000e+01	  -1.8527955e+00	  -9.2541299e-01	
   1.6995000e+01	  -1.8843296e+00	  -9.4945730e-01	
   1.7050000e+01	  -1.9172589e+00	  -9.7365674e-01	
   1.7105000e+01	  -1.9513237e+00	  -9.9781611e-01	
   1.7160000e+01	  -1.9862078e+00	  -1.0217295e+00	
   1.7215000e+01	  -2.0215531e+00	  -1.0451933e+00	
   1.7270000e+01	  -2.0569788e+00	  -1.0680174e+00	
   1.7325000e+01	  -2.0920996e+00	  -1.0900348e+00	
   1.7380000e+01	  -2.1265395e+00	  -1.1111069e+00	
   1.7435000e+01	  -2.1599351e+00	  -1.1311232e+00	
   1.7490000e+01	  -2.1919297e+00	  -1.1499949e+00	
   1.7545000e+01	  -2.2221637e+00	  -1.1676460e+00	
   1.7600000e+01	  -2.2502686e+00	  -1.1840048e+00	
   1.7655000e+01	  -2.2758684e+00	  -1.1989983e+00	
   1.7710000e+01	  -2.2985871e+00	  -1.2125497e+00	
   1.7765000e+01	  -2.3180652e+00	  -1.2245807e+00	
   1.7820000e+01	  -2.3339811e+00	  -1.2350154e+00	
   1.7875000e+01	  -2.3460768e+00	  -1.2437860e+00	
   1.7930000e+01	  -2.3541806e+00	  -1.2508376e+00	
   1.7985000e+01	  -2.3582257e+00	  -1.2561352e+00	
   1.8040000e+01	  -2.3582582e+00	  -1.2596674e+00	
   1.8095000e+01	  -2.3544360e+00	  -1.2614472e+00	
   1.8150000e+01	  -2.3470159e+00	  -1.2615061e+00	
   1.8205000e+01	  -2.3363301e+00	  -1.2598864e+00	
   1.8260000e+01	  -2.3227592e+00	  -1.2566312e+00	
   1.8315000e+01	  -2.3067035e+00	  -1.2517784e+00	
   1.8370000e+01	  -2.2885588e+00	  -1.2453562e+00	
   1.8425000e+01	  -2.2686993e+00	  -1.2373839e+00	
   1.8480000e+01	  -2.2474665e+00	  -1.2278757e+00	
   1.8535000e+01	  -2.2251651e+00	  -1.2168466e+00	
   1.8590000e+01	  -2.2020628e+00	  -1.2043199e+00	
   1.8645000e+01	  -2.1783924e+00	  -1.1903338e+00	
   1.8700000e+01	  -2.1543495e+00	  -1.1749448e+00	
   1.8755000e+01	  -2.1300845e+00	  -1.1582247e+00	
   1.8810000e+01	  -2.1056893e+00	  -1.1402540e+00	
   1.8865000e+01	  -2.0811852e+00	  -1.1211111e+00	
   1.8920000e+01	  -2.0565160e+00	  -1.1008622e+00	
   1.8975000e+01	  -2.0315497e+00	  -1.0795547e+00	
   1.9030000e+01	  -2.0060882e+00	  -1.0572153e+00	
   1.9085000e+01	  -1.9798839e+00	  -1.0338538e+00	
   1.9140000e+01	  -1.9526608e+00	  -1.0094713e+00	
   1.9195000e+01	  -1.9241371e+00	  -9.8407062e-01	
   1.9250000e+01	  -1.8940512e+00	  -9.5766907e-01	
   1.9305000e+01	  -1.8621866e+00	  -9.3030982e-01	
   1.9360000e+01	  -1.8283937e+00	  -9.0207117e-01	
   1.9415000e+01	  -1.7926063e+00	  -8.7306999e-01	
   1.9470000e+01	  -1.7548466e+00	  -8.4345823e-01	
   1.9525000e+01	  -1.7152213e+00	  -8.1341264e-01	
   1.9580000e+01	  -1.6739096e+00	  -7.8312080e-01	
   1.9635000e+01	  -1.6311520e+00	  -7.5276836e-01	
   1.9690000e+01	  -1.5872389e+00	  -7.2253018e-01	
   1.9745000e+01	  -1.5425006e+00	  -6.9256582e-01	
   1.9800000e+01	  -1.4972933e+00	  -6.6301795e-01	
   1.9855000e+01	  -1.4519870e+00	  -6.3401397e-01	
   1.9910000e+01	  -1.4069539e+00	  -6.0567036e-01	
   1.9965000e+01	  -1.3625598e+00	  -5.7809913e-01	
   2.0020000e+01	  -1.3191551e+00	  -5.5141384e-01	
   2.0075000e+01	  -1.2770675e+00	  -5.2573329e-01	
   2.0130000e+01	  -1.2365920e+00	  -5.0118089e-01	
   2.0185000e+01	  -1.1979778e+00	  -4.7787874e-01	
   2.0240000e+01	  -1.1614110e+00	  -4.5593693e-01	
   2.0295000e+01	  -1.1270008e+00	  -4.3544104e-01	
   2.0350000e+01	  -1.0947746e+00	  -4.1644155e-01	
   2.0405000e+01	  -1.0646853e+00	  -3.9894782e-01	
   2.0460000e+01	  -1.0366272e+00	  -3.8292724e-01	
   2.0515000e+01	  -1.0104582e+00	  -3.6830894e-01	
   2.0570000e+01	  -9.8602331e-01	  -3.5499014e-01	
   2.0625000e+01	  -9.6317600e-01	  -3.4284438e-01	
   2.0680000e+01	  -9.4179761e-01	  -3.3173132e-01	
   2.0735000e+01	  -9.2181310e-01	  -3.2150799e-01	
   2.0790000e+01	  -9.0319972e-01	  -3.1203965e-01	
   2.0845000e+01	  -8.8598722e-01	  -3.0320841e-01	
   2.0900000e+01	  -8.7024931e-01	  -2.9491851e-01	
   2.0955000e+01	  -8.5608696e-01	  -2.8709714e-01	
   2.1010000e+01	  -8.4360494e-01	  -2.7969002e-01	
   2.1065000e+01	  -8.3288709e-01	  -2.7265233e-01	
   2.1120000e+01	  -8.2397715e-01	  -2.6593787e-01	
   2.1175000e+01	  -8.1686934e-01	  -2.5949003e-01	
   2.1230000e+01	  -8.1150815e-01	  -2.5323726e-01	
   2.1285000e+01	  -8.0779556e-01	  -2.4709375e-01	
   2.1340000e+01	  -8.0560406e-01	  -2.4096501e-01	
   2.1395000e+01	  -8.0479378e-01	  -2.3475664e-01	
   2.1450000e+01	  -8.0523061e-01	  -2.2838401e-01	
   2.1505000e+01	  -8.0680223e-01	  -2.2178190e-01	
   2.1560000e+01	  -8.0943008e-01	  -2.1491284e-01	
   2.1615000e+01	  -8.1307423e-01	  -2.0777263e-01	
   2.1670000e+01	  -8.1772916e-01	  -2.0039095e-01	
   2.1725000e+01	  -8.2340967e-01	  -1.9282674e-01	
   2.1780000e+01	  -8.3013046e-01	  -1.8515956e-01	
   2.1835000e+01	  -8.3788476e-01	  -1.7747973e-01	
   2.1890000e+01	  -8.4662703e-01	  -1.6987968e-01	
   2.1945000e+01	  -8.5626244e-01	  -1.6244797e-01	
   2.2000000e+01	  -8.6664474e-01	  -1.5526658e-01	
   2.2055000e+01	  -8.7758287e-01	  -1.4841137e-01	
   2.2110000e+01	  -8.8885504e-01	  -1.4195539e-01	
   2.2165000e+01	  -9.0022828e-01	  -1.3597433e-01	
   2.2220000e+01	  -9.1148163e-01	  -1.3055267e-01	
   2.2275000e+01	  -9.2243064e-01	  -1.2578862e-01	
   2.2330000e+01	  -9.3294851e-01	  -1.2179571e-01	
   2.2385000e+01	  -9.4297804e-01	  -1.1869957e-01	
   2.2440000e+01	  -9.5253146e-01	  -1.1662889e-01	
   2.2495000e+01	  -9.6167873e-01	  -1.1570125e-01	
   2.2550000e+01	  -9.7052950e-01	  -1.1600678e-01	
   2.2605000e+01	  -9.7921422e-01	  -1.1759364e-01	
   2.2660000e+01	  -9.8786759e-01	  -1.2045887e-01	
   2.2715000e+01	  -9.9661491e-01	  -1.2454609e-01	
   2.2770000e+01	  -1.0055618e+00	  -1.2974961e-01	
   2.2825000e+01	  -1.0147893e+00	  -1.3592369e-01	
   2.2880000e+01	  -1.0243542e+00	  -1.4289509e-01	
   2.2935000e+01	  -1.0342918e+00	  -1.5047748e-01	
   2.2990000e+01	  -1.0446188e+00	  -1.5848504e-01	
   2.3045000e+01	  -1.0553352e+00	  -1.6674357e-01	
   2.3100000e+01	  -1.0664229e+00	  -1.7509673e-01	
   2.3155000e+01	  -1.0778397e+00	  -1.8340626e-01	
   2.3210000e+01	  -1.0895079e+00	  -1.9154600e-01	
   2.3265000e+01	  -1.1013024e+00	  -1.9939316e-01	
   2.3320000e+01	  -1.1130413e+00	  -2.0682088e-01	
   2.3375000e+01	  -1.1244852e+00	  -2.1369523e-01	
   2.3430000e+01	  -1.1353434e+00	  -2.1987720e-01	
   2.3485000e+01	  -1.1452887e+00	  -2.2522874e-01	
   2.3540000e+01	  -1.1539780e+00	  -2.2962089e-01	
   2.3595000e+01	  -1.1610746e+00	  -2.3294139e-01	
   2.3650000e+01	  -1.1662703e+00	  -2.3510017e-01	
   2.3705000e+01	  -1.1693014e+00	  -2.3603243e-01	
   2.3760000e+01	  -1.1699563e+00	  -2.3569922e-01	
   2.3815000e+01	  -1.1680743e+00	  -2.3408500e-01	
   2.3870000e+01	  -1.1635366e+00	  -2.3119139e-01	
   2.3925000e+01	  -1.1562570e+00	  -2.2702826e-01	
   2.3980000e+01	  -1.1461752e+00	  -2.2160476e-01	
   2.4035000e+01	  -1.1332557e+00	  -2.1492331e-01	
   2.4090000e+01	  -1.1174914e+00	  -2.0697878e-01	
   2.4145000e+01	  -1.0989126e+00	  -1.9776342e-01	
   2.4200000e+01	  -1.0776000e+00	  -1.8727704e-01	
   2.4255000e+01	  -1.0536983e+00	  -1.7554059e-01	
   2.4310000e+01	  -1.0274269e+00	  -1.6260972e-01	
   2.4365000e+01	  -9.9908345e-01	  -1.4858483e-01	
   2.4420000e+01	  -9.6903904e-01	  -1.3361419e-01	
   2.4475000e+01	  -9.3772247e-01	  -1.1788883e-01	
   2.4530000e+01	  -9.0559734e-01	  -1.0163028e-01	
   2.4585000e+01	  -8.7313386e-01	  -8.5073734e-02	
   2.4640000e+01	  -8.4077926e-01	  -6.8450037e-02	
   2.4695000e+01	  -8.0893104e-01	  -5.1970263e-02	
   2.4750000e+01	  -7.7791768e-01	  -3.5815495e-02	
   2.4805000e+01	  -7.4799040e-01	  -2.0132443e-02	
   2.4860000e+01	  -7.1932642e-01	  -5.0342810e-03	
   2.4915000e+01	  -6.9204237e-01	   9.3938085e-03	
   2.4970000e+01	  -6.6621474e-01	   2.3085224e-02	
   2.5025000e+01	  -6.4190413e-01	   3.5981080e-02	
   2.5080000e+01	  -6.1917926e-01	   4.8020972e-02	
   2.5135000e+01	  -5.9813551e-01	   5.9137633e-02	
   2.5190000e+01	  -5.7890313e-01	   6.9256934e-02	
   2.5245000e+01	  -5.6164188e-01	   7.8304183e-02	
   2.5300000e+01	  -5.4652383e-01	   8.6215882e-02	
   2.5355000e+01	  -5.3370996e-01	   9.2953791e-02	
   2.5410000e+01	  -5.2332670e-01	   9.8517641e-02	
   2.5465000e+01	  -5.1544455e-01	   1.0295393e-01	
   2.5520000e+01	  -5.1006156e-01	   1.0635869e-01	
   2.5575000e+01	  -5.0709510e-01	   1.0887254e-01	
   2.5630000e+01	  -5.0638403e-01	   1.1066809e-01	
   2.5685000e+01	  -5.0769979e-01	   1.1193223e-01	
   2.5740000e+01	  -5.1076455e-01	   1.1284696e-01	
   2.5795000e+01	  -5.1527351e-01	   1.1357211e-01	
   2.5850000e+01	  -5.2091690e-01	   1.1423258e-01	
   2.5905000e+01	  -5.2739610e-01	   1.1491236e-01	
   2.5960000e+01	  -5.3443125e-01	   1.1565626e-01	
   2.6015000e+01	  -5.4176198e-01	   1.1647904e-01	
   2.6070000e+01	  -5.4914481e-01	   1.1737954e-01	
   2.6125000e+01	  -5.5635006e-01	   1.1835547e-01	
   2.6180000e+01	  -5.6315936e-01	   1.1941467e-01	
   2.6235000e+01	  -5.6936458e-01	   1.2058094e-01	
   2.6290000e+01	  -5.7476981e-01	   1.2189380e-01	
   2.6345000e+01	  -5.7919821e-01	   1.2340333e-01	
   2.6400000e+01	  -5.8250428e-01	   1.2516079e-01	
   2.6455000e+01	  -5.8458985e-01	   1.2720690e-01	
   2.6510000e+01	  -5.8541939e-01	   1.2956049e-01	
   2.6565000e+01	  -5.8502990e-01	   1.3221016e-01	
   2.6620000e+01	  -5.8353267e-01	   1.3511118e-01	
   2.6675000e+01	  -5.8110653e-01	   1.3818830e-01	
   2.6730000e+01	  -5.7798297e-01	   1.4134433e-01	
   2.6785000e+01	  -5.7442448e-01	   1.4447284e-01	
   2.6840000e+01	  -5.7069999e-01	   1.4747175e-01	
   2.6895000e+01	  -5.6706152e-01	   1.5025458e-01	
   2.6950000e+01	  -5.6372555e-01	   1.5275731e-01	
   2.7005000e+01	  -5.6086123e-01	   1.5494009e-01	
   2.7060000e+01	  -5.5858768e-01	   1.5678388e-01	
   2.7115000e+01	  -5.5698102e-01	   1.5828328e-01	
   2.7170000e+01	  -5.5608792e-01	   1.5943785e-01	
   2.7225000e+01	  -5.5594069e-01	   1.6024352e-01	
   2.7280000e+01	  -5.5657120e-01	   1.6068486e-01	
   2.7335000e+01	  -5.5802235e-01	   1.6072835e-01	
   2.7390000e+01	  -5.6035454e-01	   1.6031848e-01	
   2.7445000e+01	  -5.6364485e-01	   1.5937937e-01	
   2.7500000e+01	  -5.6798002e-01	   1.5782349e-01	
   2.7555000e+01	  -5.7344594e-01	   1.5556593e-01	
   2.7610000e+01	  -5.8011586e-01	   1.5253976e-01	
   2.7665000e+01	  -5.8803865e-01	   1.4870844e-01	
   2.7720000e+01	  -5.9722932e-01	   1.4407262e-01	
   2.7775000e+01	  -6.0766443e-01	   1.3867071e-01	
   2.7830000e+01	  -6.1928345e-01	   1.3257397e-01	
   2.7885000e+01	  -6.3199512e-01	   1.2587712e-01	
   2.7940000e+01	  -6.4568634e-01	   1.1868583e-01	
   2.7995000e+01	  -6.6023159e-01	   1.1110314e-01	
   2.8050000e+01	  -6.7550172e-01	   1.0321758e-01	
   2.8105000e+01	  -6.9137175e-01	   9.5095718e-02	
   2.8160000e+01	  -7.0772458e-01	   8.6780765e-02	
   2.8215000e+01	  -7.2444601e-01	   7.8297073e-02	
   2.8270000e+01	  -7.4141059e-01	   6.9658739e-02	
   2.8325000e+01	  -7.5846482e-01	   6.0878489e-02	
   2.8380000e+01	  -7.7541694e-01	   5.1973932e-02	
   2.8435000e+01	  -7.9203633e-01	   4.2970746e-02	
   2.8490000e+01	  -8.0806155e-01	   3.3903189e-02	
   2.8545000e+01	  -8.2321554e-01	   2.4811465e-02	
   2.8600000e+01	  -8.3722705e-01	   1.5736073e-02	
   2.8655000e+01	  -8.4985468e-01	   6.7110583e-03	
   2.8710000e+01	  -8.6090959e-01	  -2.2416257e-03	
   2.8765000e+01	  -8.7027381e-01	  -1.1115389e-02	
   2.8820000e+01	  -8.7791129e-01	  -1.9918705e-02	
   2.8875000e+01	  -8.8386857e-01	  -2.8669771e-02	
   2.8930000e+01	  -8.8826470e-01	  -3.7386511e-02	
   2.8985000e+01	  -8.9127336e-01	  -4.6075121e-02	
   2.9040000e+01	  -8.9310129e-01	  -5.4720878e-02	
   2.9095000e+01	  -8.9396621e-01	  -6.3283041e-02	
   2.9150000e+01	  -8.9407717e-01	  -7.1694261e-02	
   2.9205000e+01	  -8.9362127e-01	  -7.9864392e-02	
   2.9260000e+01	  -8.9275789e-01	  -8.7688133e-02	
   2.9315000e+01	  -8.9161821e-01	  -9.5055385e-02	
   2.9370000e+01	  -8.9030605e-01	  -1.0186300e-01	
   2.9425000e+01	  -8.8889868e-01	  -1.0802638e-01	
   2.9480000e+01	  -8.8744733e-01	  -1.1348876e-01	
   2.9535000e+01	  -8.8597586e-01	  -1.1822542e-01	
   2.9590000e+01	  -8.8447617e-01	  -1.2224148e-01	
   2.9645000e+01	  -8.8290102e-01	  -1.2556433e-01	
   2.9700000e+01	  -8.8115809e-01	  -1.2823370e-01	
   2.9755000e+01	  -8.7910854e-01	  -1.3029162e-01	
   2.9810000e+01	  -8.7657153e-01	  -1.3177381e-01	
   2.9865000e+01	  -8.7333494e-01	  -1.3270415e-01	
   2.9920000e+01	  -8.6917120e-01	  -1.3309347e-01	
   2.9975000e+01	  -8.6385719e-01	  -1.3294289e-01	
   3.0030000e+01	  -8.5719764e-01	  -1.3225108e-01	
   3.0085000e+01	  -8.4905025e-01	  -1.3102422e-01	
   3.0140000e+01	  -8.3934765e-01	  -1.2928581e-01	
   3.0195000e+01	  -8.2811002e-01	  -1.2708291e-01	
   3.0250000e+01	  -8.1544406e-01	  -1.2448666e-01	
   3.0305000e+01	  -8.0152887e-01	  -1.2158702e-01	
   3.0360000e+01	  -7.8659304e-01	  -1.1848368e-01	
   3.0415000e+01	  -7.7088941e-01	  -1.1527579e-01	
   3.0470000e+01	  -7.5467277e-01	  -1.1205346e-01	
   3.0525000e+01	  -7.3818346e-01	  -1.0889285e-01	
   3.0580000e+01	  -7.2163765e-01	  -1.0585485e-01	
   3.0635000e+01	  -7.0522438e-01	  -1.0298694e-01	
   3.0690000e+01	  -6.8910967e-01	  -1.0032790e-01	
   3.0745000e+01	  -6.7344765e-01	  -9.7914892e-02	
   3.0800000e+01	  -6.5839469e-01	  -9.5790723e-02	
   3.0855000e+01	  -6.4411954e-01	  -9.4007340e-02	
   3.0910000e+01	  -6.3080362e-01	  -9.2623014e-02	
   3.0965000e+01	  -6.1863003e-01	  -9.1692731e-02	
   3.1020000e+01	  -6.0776394e-01	  -9.1253761e-02	
   3.1075000e+01	  -5.9832989e-01	  -9.1310249e-02	
   3.1130000e+01	  -5.9039251e-01	  -9.1821297e-02	
   3.1185000e+01	  -5.8394452e-01	  -9.2695626e-02	
   3.1240000e+01	  -5.7890213e-01	  -9.3793817e-02	
   3.1295000e+01	  -5.7510718e-01	  -9.4938024e-02	
   3.1350000e+01	  -5.7233584e-01	  -9.5928499e-02	
   3.1405000e+01	  -5.7031429e-01	  -9.6565086e-02	
   3.1460000e+01	  -5.6874050e-01	  -9.6670655e-02	
   3.1515000e+01	  -5.6730932e-01	  -9.6113132e-02	
   3.1570000e+01	  -5.6573603e-01	  -9.4823071e-02	
   3.1625000e+01	  -5.6377375e-01	  -9.2803924e-02	
   3.1680000e+01	  -5.6122141e-01	  -9.0132473e-02	
   3.1735000e+01	  -5.5792123e-01	  -8.6948488e-02	
   3.1790000e+01	  -5.5374805e-01	  -8.3435400e-02	
   3.1845000e+01	  -5.4859644e-01	  -7.9796440e-02	
   3.1900000e+01	  -5.4237198e-01	  -7.6231587e-02	
   3.1955000e+01	  -5.3498927e-01	  -7.2919243e-02	
   3.2010000e+01	  -5.2637529e-01	  -7.0004386e-02	
   3.2065000e+01	  -5.1647687e-01	  -6.7593436e-02	
   3.2120000e+01	  -5.0527228e-01	  -6.5755523e-02	
   3.2175000e+01	  -4.9278805e-01	  -6.4529466e-02	
   3.2230000e+01	  -4.7911875e-01	  -6.3935162e-02	
   3.2285000e+01	  -4.6444329e-01	  -6.3987077e-02	
   3.2340000e+01	  -4.4903107e-01	  -6.4706874e-02	
   3.2395000e+01	  -4.3323522e-01	  -6.6132442e-02	
   3.2450000e+01	  -4.1747386e-01	  -6.8321320e-02	
   3.2505000e+01	  -4.0220218e-01	  -7.1347492e-02	
   3.2560000e+01	  -3.8787913e-01	  -7.5292336e-02	
   3.2615000e+01	  -3.7493440e-01	  -8.0232801e-02	
   3.2670000e+01	  -3.6374070e-01	  -8.6230564e-02	
   3.2725000e+01	  -3.5459418e-01	  -9.3324466e-02	
   3.2780000e+01	  -3.4770366e-01	  -1.0152691e-01	
   3.2835000e+01	  -3.4318925e-01	  -1.1082422e-01	
   3.2890000e+01	  -3.4108966e-01	  -1.2118007e-01	
   3.2945000e+01	  -3.4137542e-01	  -1.3254086e-01	
   3.3000000e+01	  -3.4396378e-01	  -1.4484122e-01	
   3.3055000e+01	  -3.4873268e-01	  -1.5800913e-01	
   3.3110000e+01	  -3.5553321e-01	  -1.7196998e-01	
   3.3165000e+01	  -3.6419935e-01	  -1.8664886e-01	
   3.3220000e+01	  -3.7455224e-01	  -2.0197001e-01	
   3.3275000e+01	  -3.8639829e-01	  -2.1785301e-01	
   3.3330000e+01	  -3.9952579e-01	  -2.3420760e-01	
   3.3385000e+01	  -4.1370614e-01	  -2.5092974e-01	
   3.3440000e+01	  -4.2870115e-01	  -2.6790089e-01	
   3.3495000e+01	  -4.4427365e-01	  -2.8499101e-01	
   3.3550000e+01	  -4.6019852e-01	  -3.0206443e-01	
   3.3605000e+01	  -4.7627217e-01	  -3.1898703e-01	
   3.3660000e+01	  -4.9231859e-01	  -3.3563330e-01	
   3.3715000e+01	  -5.0819137e-01	  -3.5189248e-01	
   3.3770000e+01	  -5.2377308e-01	  -3.6767363e-01	
   3.3825000e+01	  -5.3897313e-01	  -3.8290941e-01	
   3.3880000e+01	  -5.5372384e-01	  -3.9755841e-01	
   3.3935000e+01	  -5.6797388e-01	  -4.1160540e-01	
   3.3990000e+01	  -5.8168009e-01	  -4.2505929e-01	
   3.4045000e+01	  -5.9480005e-01	  -4.3794917e-01	
   3.4100000e+01	  -6.0728741e-01	  -4.5031937e-01	
   3.4155000e+01	  -6.1909142e-01	  -4.6222468e-01	
   3.4210000e+01	  -6.3016258e-01	  -4.7372713e-01	
   3.4265000e+01	  -6.4046520e-01	  -4.8489429e-01	
   3.4320000e+01	  -6.4999530e-01	  -4.9579910e-01	
   3.4375000e+01	  -6.5880007e-01	  -5.0652025e-01	
   3.4430000e+01	  -6.6699379e-01	  -5.1714226e-01	
   3.4485000e+01	  -6.7476375e-01	  -5.2775390e-01	
   3.4540000e+01	  -6.8236304e-01	  -5.3844362e-01	
   3.4595000e+01	  -6.9009175e-01	  -5.4929180e-01	
   3.4650000e+01	  -6.9827186e-01	  -5.6036113e-01	
   3.4705000e+01	  -7.0722063e-01	  -5.7168794e-01	
   3.4760000e+01	  -7.1722609e-01	  -5.8327662e-01	
   3.4815000e+01	  -7.2852633e-01	  -5.9509769e-01	
   3.4870000e+01	  -7.4129340e-01	  -6.0708891e-01	
   3.4925000e+01	  -7.5562325e-01	  -6.1915842e-01	
   3.4980000e+01	  -7.7153354e-01	  -6.3118989e-01	
   3.5035000e+01	  -7.8896900e-01	  -6.4304947e-01	
   3.5090000e+01	  -8.0781069e-01	  -6.5459387e-01	
   3.5145000e+01	  -8.2788554e-01	  -6.6567798e-01	
   3.5200000e+01	  -8.4897314e-01	  -6.7616034e-01	
   3.5255000e+01	  -8.7080828e-01	  -6.8590511e-01	
   3.5310000e+01	  -8.9307962e-01	  -6.9478072e-01	
   3.5365000e+01	  -9.1542759e-01	  -7.0265627e-01	
   3.5420000e+01	  -9.3744586e-01	  -7.0939729e-01	
   3.5475000e+01	  -9.5868816e-01	  -7.1486260e-01	
   3.5530000e+01	  -9.7867953e-01	  -7.1890335e-01	
   3.5585000e+01	  -9.9693027e-01	  -7.2136496e-01	
   3.5640000e+01	  -1.0129513e+00	  -7.2209177e-01	
   3.5695000e+01	  -1.0262689e+00	  -7.2093333e-01	
   3.5750000e+01	  -1.0364374e+00	  -7.1775069e-01	
   3.5805000e+01	  -1.0430465e+00	  -7.1242033e-01	
   3.5860000e+01	  -1.0457247e+00	  -7.0483529e-01	
   3.5915000e+01	  -1.0441422e+00	  -6.9490568e-01	
   3.5970000e+01	  -1.0380158e+00	  -6.8256063e-01	
   3.6025000e+01	  -1.0271156e+00	  -6.6775204e-01	
   3.6080000e+01	  -1.0112729e+00	  -6.5045905e-01	
   3.6135000e+01	  -9.9038844e-01	  -6.3069332e-01	
   3.6190000e+01	  -9.6444107e-01	  -6.0850453e-01	
   3.6245000e+01	  -9.3349505e-01	  -5.8398522e-01	
   3.6300000e+01	  -8.9770383e-01	  -5.5727345e-01	
   3.6355000e+01	  -8.5730742e-01	  -5.2855207e-01	
   3.6410000e+01	  -8.1262216e-01	  -4.9804364e-01	
   3.6465000e+01	  -7.6402316e-01	  -4.6600049e-01	
   3.6520000e+01	  -7.1192308e-01	  -4.3269204e-01	
   3.6575000e+01	  -6.5675312e-01	  -3.9839269e-01	
   3.6630000e+01	  -5.9895075e-01	  -3.6337245e-01	
   3.6685000e+01	  -5.3895490e-01	  -3.2789072e-01	
   3.6740000e+01	  -4.7720691e-01	  -2.9219306e-01	
   3.6795000e+01	  -4.1415422e-01	  -2.5651116e-01	
   3.6850000e+01	  -3.5025210e-01	  -2.2106452e-01	
   3.6905000e+01	  -2.8595915e-01	  -1.8606125e-01	
   3.6960000e+01	  -2.2172590e-01	  -1.5169675e-01	
   3.7015000e+01	  -1.5797973e-01	  -1.1815029e-01	
   3.7070000e+01	  -9.5109163e-02	  -8.5580472e-02	
   3.7125000e+01	  -3.3450400e-02	  -5.4120016e-02	
   3.7180000e+01	   2.6720753e-02	  -2.3871444e-02	
   3.7235000e+01	   8.5187934e-02	   5.0947227e-03	
   3.7290000e+01	   1.4178357e-01	   3.2738445e-02	
   3.7345000e+01	   1.9637133e-01	   5.9045709e-02	
   3.7400000e+01	   2.4882506e-01	   8.4021291e-02	
   3.7455000e+01	   2.9900728e-01	   1.0767919e-01	
   3.7510000e+01	   3.4675164e-01	   1.3003287e-01	
   3.7565000e+01	   3.9185392e-01	   1.5108850e-01	
   3.7620000e+01	   4.3407487e-01	   1.7084333e-01	
   3.7675000e+01	   4.7315501e-01	   1.8928940e-01	
   3.7730000e+01	   5.0883875e-01	   2.0642121e-01	
   3.7785000e+01	   5.4090284e-01	   2.2224469e-01	
   3.7840000e+01	   5.6918342e-01	   2.3678446e-01	
   3.7895000e+01	   5.9359753e-01	   2.5008726e-01	
   3.7950000e+01	   6.1415706e-01	   2.6222128e-01	
   3.8005000e+01	   6.3097507e-01	   2.7327241e-01	
   3.8060000e+01	   6.4426393e-01	   2.8333757e-01	
   3.8115000e+01	   6.5432304e-01	   2.9251560e-01	
   3.8170000e+01	   6.6151560e-01	   3.0089699e-01	
   3.8225000e+01	   6.6623949e-01	   3.0855526e-01	
   3.8280000e+01	   6.6890024e-01	   3.1554237e-01	
   3.8335000e+01	   6.6989320e-01	   3.2188982e-01	
   3.8390000e+01	   6.6959696e-01	   3.2761527e-01	
   3.8445000e+01	   6.6837585e-01	   3.3273272e-01	
   3.8500000e+01	   6.6658510e-01	   3.3726286e-01	
   3.8555000e+01	   6.6457265e-01	   3.4124058e-01	
   3.8610000e+01	   6.6267496e-01	   3.4471859e-01	
   3.8665000e+01	   6.6120767e-01	   3.4776752e-01	
   3.8720000e+01	   6.6045306e-01	   3.5047314e-01	
   3.8775000e+01	   6.6064600e-01	   3.5293031e-01	
   3.8830000e+01	   6.6195982e-01	   3.5523379e-01	
   3.8885000e+01	   6.6449263e-01	   3.5746694e-01	
   3.8940000e+01	   6.6825418e-01	   3.5968976e-01	
   3.8995000e+01	   6.7315604e-01	   3.6192851e-01	
   3.9050000e+01	   6.7901164e-01	   3.6416947e-01	
   3.9105000e+01	   6.8555196e-01	   3.6635914e-01	
   3.9160000e+01	   6.9245633e-01	   3.6841131e-01	
   3.9215000e+01	   6.9939041e-01	   3.7021899e-01	
   3.9270000e+01	   7.0604178e-01	   3.7166820e-01	
   3.9325000e+01	   7.1214634e-01	   3.7265026e-01	
   3.9380000e+01	   7.1750199e-01	   3.7307042e-01	
   3.9435000e+01	   7.2197013e-01	   3.7285203e-01	
   3.9490000e+01	   7.2546852e-01	   3.7193683e-01	
   3.9545000e+01	   7.2795830e-01	   3.7028207e-01	
   3.9600000e+01	   7.2942546e-01	   3.6785502e-01	
   3.9655000e+01	   7.2985794e-01	   3.6462640e-01	
   3.9710000e+01	   7.2922239e-01	   3.6056490e-01	
   3.9765000e+01	   7.2744652e-01	   3.5563503e-01	
   3.9820000e+01	   7.2441258e-01	   3.4979917e-01	
   3.9875000e+01	   7.1996363e-01	   3.4302300e-01	
   3.9930000e+01	   7.1392057e-01	   3.3528291e-01	
   3.9985000e+01	   7.0610549e-01	   3.2657336e-01	
   4.0040000e+01	   6.9636580e-01	   3.1691255e-01	
   4.0095000e+01	   6.8459428e-01	   3.0634530e-01	
   4.0150000e+01	   6.7074322e-01	   2.9494310e-01	
   4.0205000e+01	   6.5483287e-01	   2.8280188e-01	
   4.0260000e+01	   6.3695437e-01	   2.7003761e-01	
   4.0315000e+01	   6.1726632e-01	   2.5677972e-01	
   4.0370000e+01	   5.9598499e-01	   2.4316291e-01	
   4.0425000e+01	   5.7336946e-01	   2.2931854e-01	
   4.0480000e+01	   5.4970443e-01	   2.1536752e-01	
   4.0535000e+01	   5.2528430e-01	   2.0141627e-01	
   4.0590000e+01	   5.0040246e-01	   1.8755674e-01	
   4.0645000e+01	   4.7534787e-01	   1.7386982e-01	
   4.0700000e+01	   4.5040700e-01	   1.6043087e-01	
   4.0755000e+01	   4.2586616e-01	   1.4731562e-01	
   4.0810000e+01	   4.0201007e-01	   1.3460539e-01	
   4.0865000e+01	   3.7911595e-01	   1.2239130e-01	
   4.0920000e+01	   3.5744442e-01	   1.1077670e-01	
   4.0975000e+01	   3.3722867e-01	   9.9876966e-02	
   4.1030000e+01	   3.1866320e-01	   8.9816085e-02	
   4.1085000e+01	   3.0189351e-01	   8.0720714e-02	
   4.1140000e+01	   2.8700921e-01	   7.2713082e-02	
   4.1195000e+01	   2.7404497e-01	   6.5905064e-02	
   4.1250000e+01	   2.6299287e-01	   6.0395900e-02	
   4.1305000e+01	   2.5382486e-01	   5.6274109e-02	
   4.1360000e+01	   2.4651697e-01	   5.3620914e-02	
   4.1415000e+01	   2.4106703e-01	   5.2511819e-02	
   4.1470000e+01	   2.3750315e-01	   5.3015399e-02	
   4.1525000e+01	   2.3588408e-01	   5.5190044e-02	
   4.1580000e+01	   2.3629144e-01	   5.9078488e-02	
   4.1635000e+01	   2.3881353e-01	   6.4699633e-02	
   4.1690000e+01	   2.4352251e-01	   7.2038971e-02	
   4.1745000e+01	   2.5045061e-01	   8.1040196e-02	
   4.1800000e+01	   2.5957093e-01	   9.1600115e-02	
   4.1855000e+01	   2.7078755e-01	   1.0356850e-01	
   4.1910000e+01	   2.8393771e-01	   1.1675434e-01	
   4.1965000e+01	   2.9880504e-01	   1.3093804e-01	
   4.2020000e+01	   3.1513958e-01	   1.4588595e-01	
   4.2075000e+01	   3.3267858e-01	   1.6136349e-01	
   4.2130000e+01	   3.5116398e-01	   1.7714489e-01	
   4.2185000e+01	   3.7035350e-01	   1.9301996e-01	
   4.2240000e+01	   3.9002479e-01	   2.0879814e-01	
   4.2295000e+01	   4.0997370e-01	   2.2430960e-01	
   4.2350000e+01	   4.3000868e-01	   2.3940375e-01	
   4.2405000e+01	   4.4994385e-01	   2.5394592e-01	
   4.2460000e+01	   4.6959308e-01	   2.6781410e-01	
   4.2515000e+01	   4.8876878e-01	   2.8089775e-01	
   4.2570000e+01	   5.0728807e-01	   2.9310081e-01	
   4.2625000e+01	   5.2498578e-01	   3.0434946e-01	
   4.2680000e+01	   5.4172877e-01	   3.1460141e-01	
   4.2735000e+01	   5.5742573e-01	   3.2385251e-01	
   4.2790000e+01	   5.7202903e-01	   3.3213827e-01	
   4.2845000e+01	   5.8552929e-01	   3.3953017e-01	
   4.2900000e+01	   5.9794525e-01	   3.4612788e-01	
   4.2955000e+01	   6.0931168e-01	   3.5204864e-01	
   4.3010000e+01	   6.1966810e-01	   3.5741565e-01	
   4.3065000e+01	   6.2904995e-01	   3.6234634e-01	
   4.3120000e+01	   6.3748245e-01	   3.6694150e-01	
   4.3175000e+01	   6.4497720e-01	   3.7127702e-01	
   4.3230000e+01	   6.5153430e-01	   3.7540127e-01	
   4.3285000e+01	   6.5715234e-01	   3.7934001e-01	
   4.3340000e+01	   6.6184389e-01	   3.8310656e-01	
   4.3395000e+01	   6.6564989e-01	   3.8671224e-01	
   4.3450000e+01	   6.6864800e-01	   3.9017341e-01	
   4.3505000e+01	   6.7095408e-01	   3.9351400e-01	
   4.3560000e+01	   6.7271611e-01	   3.9676435e-01	
   4.3615000e+01	   6.7409927e-01	   3.9995660e-01	
   4.3670000e+01	   6.7526409e-01	   4.0311718e-01	
   4.3725000e+01	   6.7634412e-01	   4.0625740e-01	
   4.3780000e+01	   6.7742897e-01	   4.0936422e-01	
   4.3835000e+01	   6.7855488e-01	   4.1239377e-01	
   4.3890000e+01	   6.7970387e-01	   4.1527071e-01	
   4.3945000e+01	   6.8081182e-01	   4.1789625e-01	
   4.4000000e+01	   6.8178314e-01	   4.2016322e-01	
   4.4055000e+01	   6.8250640e-01	   4.2197307e-01	
   4.4110000e+01	   6.8286703e-01	   4.2325012e-01	
   4.4165000e+01	   6.8275570e-01	   4.2395053e-01	
   4.4220000e+01	   6.8207264e-01	   4.2406523e-01	
   4.4275000e+01	   6.8072830e-01	   4.2361667e-01	
   4.4330000e+01	   6.7864149e-01	   4.2265098e-01	
   4.4385000e+01	   6.7573696e-01	   4.2122766e-01	
   4.4440000e+01	   6.7194459e-01	   4.1940854e-01	
   4.4495000e+01	   6.6720092e-01	   4.1724790e-01	
   4.4550000e+01	   6.6145336e-01	   4.1478500e-01	
   4.4605000e+01	   6.5466753e-01	   4.1204039e-01	
   4.4660000e+01	   6.4683753e-01	   4.0901620e-01	
   4.4715000e+01	   6.3799698e-01	   4.0569941e-01	
   4.4770000e+01	   6.2822721e-01	   4.0206628e-01	
   4.4825000e+01	   6.1765980e-01	   3.9808700e-01	
   4.4880000e+01	   6.0647263e-01	   3.9372980e-01	
   4.4935000e+01	   5.9488015e-01	   3.8896424e-01	
   4.4990000e+01	   5.8311873e-01	   3.8376335e-01	
   4.5045000e+01	   5.7142927e-01	   3.7810445e-01	
   4.5100000e+01	   5.6003912e-01	   3.7196925e-01	
   4.5155000e+01	   5.4914491e-01	   3.6534379e-01	
   4.5210000e+01	   5.3889886e-01	   3.5821902e-01	
   4.5265000e+01	   5.2940196e-01	   3.5059310e-01	
   4.5320000e+01	   5.2070626e-01	   3.4247671e-01	
   4.5375000e+01	   5.1282500e-01	   3.3390139e-01	
   4.5430000e+01	   5.0574726e-01	   3.2492897e-01	
   4.5485000e+01	   4.9945381e-01	   3.1565929e-01	
   4.5540000e+01	   4.9392988e-01	   3.0623356e-01	
   4.5595000e+01	   4.8917159e-01	   2.9683230e-01	
   4.5650000e+01	   4.8518548e-01	   2.8766749e-01	
   4.5705000e+01	   4.8198367e-01	   2.7897019e-01	
   4.5760000e+01	   4.7957767e-01	   2.7097462e-01	
   4.5815000e+01	   4.7797261e-01	   2.6390108e-01	
   4.5870000e+01	   4.7716414e-01	   2.5794081e-01	
   4.5925000e+01	   4.7714028e-01	   2.5324618e-01	
   4.5980000e+01	   4.7788871e-01	   2.4992861e-01	
   4.6035000e+01	   4.7940774e-01	   2.4806357e-01	
   4.6090000e+01	   4.8171666e-01	   2.4769963e-01	
   4.6145000e+01	   4.8486214e-01	   2.4886682e-01	
   4.6200000e+01	   4.8891752e-01	   2.5158091e-01	
   4.6255000e+01	   4.9397387e-01	   2.5584214e-01	
   4.6310000e+01	   5.0012319e-01	   2.6162970e-01	
   4.6365000e+01	   5.0743681e-01	   2.6889367e-01	
   4.6420000e+01	   5.1594245e-01	   2.7754642e-01	
   4.6475000e+01	   5.2560476e-01	   2.8745506e-01	
   4.6530000e+01	   5.3631496e-01	   2.9843695e-01	
   4.6585000e+01	   5.4789320e-01	   3.1026119e-01	
   4.6640000e+01	   5.6010285e-01	   3.2265827e-01	
   4.6695000e+01	   5.7267331e-01	   3.3533726e-01	
   4.6750000e+01	   5.8532721e-01	   3.4800748e-01	
   4.6805000e+01	   5.9780782e-01	   3.6040020e-01	
   4.6860000e+01	   6.0990181e-01	   3.7228619e-01	
   4.6915000e+01	   6.2145297e-01	   3.8348545e-01	
   4.6970000e+01	   6.3236489e-01	   3.9386761e-01	
   4.7025000e+01	   6.4259376e-01	   4.0334433e-01	
   4.7080000e+01	   6.5213327e-01	   4.1185710e-01	
   4.7135000e+01	   6.6099405e-01	   4.1936359e-01	
   4.7190000e+01	   6.6918193e-01	   4.2582567e-01	
   4.7245000e+01	   6.7668116e-01	   4.3120175e-01	
   4.7300000e+01	   6.8344631e-01	   4.3544513e-01	
   4.7355000e+01	   6.8940324e-01	   4.3850840e-01	
   4.7410000e+01	   6.9445828e-01	   4.4035192e-01	
   4.7465000e+01	   6.9851386e-01	   4.4095385e-01	
   4.7520000e+01	   7.0148711e-01	   4.4031842e-01	
   4.7575000e+01	   7.0332639e-01	   4.3848019e-01	
   4.7630000e+01	   7.0402083e-01	   4.3550385e-01	
   4.7685000e+01	   7.0360056e-01	   4.3148058e-01	
   4.7740000e+01	   7.0212768e-01	   4.2652221e-01	
   4.7795000e+01	   6.9967842e-01	   4.2075299e-01	
   4.7850000e+01	   6.9632055e-01	   4.1429905e-01	
   4.7905000e+01	   6.9209172e-01	   4.0727651e-01	
   4.7960000e+01	   6.8698373e-01	   3.9977989e-01	
   4.8015000e+01	   6.8093498e-01	   3.9187254e-01	
   4.8070000e+01	   6.7383358e-01	   3.8358283e-01	
   4.8125000e+01	   6.6553278e-01	   3.7490950e-01	
   4.8180000e+01	   6.5587654e-01	   3.6583486e-01	
   4.8235000e+01	   6.4472883e-01	   3.5634026e-01	
   4.8290000e+01	   6.3199966e-01	   3.4641837e-01	
   4.8345000e+01	   6.1766258e-01	   3.3608025e-01	
   4.8400000e+01	   6.0175959e-01	   3.2535678e-01	
   4.8455000e+01	   5.8439351e-01	   3.1429495e-01	
   4.8510000e+01	   5.6571210e-01	   3.0295065e-01	
   4.8565000e+01	   5.4588930e-01	   2.9138080e-01	
   4.8620000e+01	   5.2510698e-01	   2.7963577e-01	
   4.8675000e+01	   5.0353786e-01	   2.6775218e-01	
   4.8730000e+01	   4.8133068e-01	   2.5574640e-01	
   4.8785000e+01	   4.5860099e-01	   2.4361103e-01	
   4.8840000e+01	   4.3543212e-01	   2.3131637e-01	
   4.8895000e+01	   4.1188797e-01	   2.1881785e-01	
   4.8950000e+01	   3.8803364e-01	   2.0606798e-01	
   4.9005000e+01	   3.6395587e-01	   1.9302927e-01	
   4.9060000e+01	   3.3977733e-01	   1.7968473e-01	
   4.9115000e+01	   3.1566169e-01	   1.6604400e-01	
   4.9170000e+01	   2.9180782e-01	   1.5214462e-01	
   4.9225000e+01	   2.6843419e-01	   1.3804885e-01	
   4.9280000e+01	   2.4575654e-01	   1.2383674e-01	
   4.9335000e+01	   2.2396210e-01	   1.0959661e-01	
   4.9390000e+01	   2.0318380e-01	   9.5414379e-02	
   4.9445000e+01	   1.8347914e-01	   8.1363861e-02	
   4.9500000e+01	   1.6481854e-01	   6.7499891e-02	
   4.9555000e+01	   1.4708564e-01	   5.3855812e-02	
   4.9610000e+01	   1.3009056e-01	   4.0446330e-02	
   4.9665000e+01	   1.1359542e-01	   2.7275213e-02	
   4.9720000e+01	   9.7347075e-02	   1.4345534e-02	
   4.9775000e+01	   8.1108387e-02	   1.6695030e-03	
   4.9830000e+01	   6.4681916e-02	  -1.0724467e-02	
   4.9885000e+01	   4.7925273e-02	  -2.2788462e-02	
   4.9940000e+01	   3.0760330e-02	  -3.4455380e-02	
   4.9995000e+01	   1.3176497e-02	  -4.5642537e-02	
   5.0050000e+01	  -4.7729500e-03	  -5.6258175e-02	
   5.0105000e+01	  -2.2979681e-02	  -6.6209375e-02	
   5.0160000e+01	  -4.1289347e-02	  -7.5408972e-02	
   5.0215000e+01	  -5.9506940e-02	  -8.3779740e-02	
   5.0270000e+01	  -7.7398168e-02	  -9.1255136e-02	
   5.0325000e+01	  -9.4688978e-02	  -9.7776497e-02	
   5.0380000e+01	  -1.1106641e-01	  -1.0328780e-01	
   5.0435000e+01	  -1.2618383e-01	  -1.0773068e-01	
   5.0490000e+01	  -1.3967125e-01	  -1.1104239e-01	
   5.0545000e+01	  -1.5114869e-01	  -1.1315801e-01	
   5.0600000e+01	  -1.6024122e-01	  -1.1401666e-01	
   5.0655000e+01	  -1.6659571e-01	  -1.1357097e-01	
   5.0710000e+01	  -1.6989905e-01	  -1.1179760e-01	
   5.0765000e+01	  -1.6989632e-01	  -1.0870531e-01	
   5.0820000e+01	  -1.6640617e-01	  -1.0433786e-01	
   5.0875000e+01	  -1.5933087e-01	  -9.8771184e-02	
   5.0930000e+01	  -1.4865906e-01	  -9.2105298e-02	
   5.0985000e+01	  -1.3446177e-01	  -8.4452662e-02	
   5.1040000e+01	  -1.1688416e-01	  -7.5925522e-02	
   5.1095000e+01	  -9.6135099e-02	  -6.6625201e-02	
   5.1150000e+01	  -7.2476290e-02	  -5.6634868e-02	
   5.1205000e+01	  -4.6212013e-02	  -4.6015844e-02	
   5.1260000e+01	  -1.7680245e-02	  -3.4807068e-02	
   5.1315000e+01	   1.2754357e-02	  -2.3027759e-02	
   5.1370000e+01	   4.4705375e-02	  -1.0683315e-02	
   5.1425000e+01	   7.7767915e-02	   2.2261062e-03	
   5.1480000e+01	   1.1152113e-01	   1.5695997e-02	
   5.1535000e+01	   1.4553137e-01	   2.9709519e-02	
   5.1590000e+01	   1.7935915e-01	   4.4233802e-02	
   5.1645000e+01	   2.1257357e-01	   5.9221908e-02	
   5.1700000e+01	   2.4477474e-01	   7.4619187e-02	
   5.1755000e+01	   2.7561776e-01	   9.0370146e-02	
   5.1810000e+01	   3.0483032e-01	   1.0642204e-01	
   5.1865000e+01	   3.3222019e-01	   1.2272432e-01	
   5.1920000e+01	   3.5767378e-01	   1.3922567e-01	
   5.1975000e+01	   3.8114769e-01	   1.5587013e-01	
   5.2030000e+01	   4.0265376e-01	   1.7259262e-01	
   5.2085000e+01	   4.2223987e-01	   1.8931396e-01	
   5.2140000e+01	   4.3997106e-01	   2.0593670e-01	
   5.2195000e+01	   4.5591593e-01	   2.2234288e-01	
   5.2250000e+01	   4.7014104e-01	   2.3839449e-01	
   5.2305000e+01	   4.8271482e-01	   2.5393791e-01	
   5.2360000e+01	   4.9372031e-01	   2.6881335e-01	
   5.2415000e+01	   5.0327197e-01	   2.8286802e-01	
   5.2470000e+01	   5.1152879e-01	   2.9596986e-01	
   5.2525000e+01	   5.1869652e-01	   3.0801875e-01	
   5.2580000e+01	   5.2501659e-01	   3.1895292e-01	
   5.2635000e+01	   5.3074348e-01	   3.2874903e-01	
   5.2690000e+01	   5.3611598e-01	   3.3741566e-01	
   5.2745000e+01	   5.4132845e-01	   3.4498262e-01	
   5.2800000e+01	   5.4650708e-01	   3.5148978e-01	
   5.2855000e+01	   5.5169396e-01	   3.5697780e-01	
   5.2910000e+01	   5.5683983e-01	   3.6148135e-01	
   5.2965000e+01	   5.6180681e-01	   3.6502517e-01	
   5.3020000e+01	   5.6638264e-01	   3.6762386e-01	
   5.3075000e+01	   5.7030510e-01	   3.6928647e-01	
   5.3130000e+01	   5.7329094e-01	   3.7002410e-01	
   5.3185000e+01	   5.7506282e-01	   3.6985763e-01	
   5.3240000e+01	   5.7537072e-01	   3.6882298e-01	
   5.3295000e+01	   5.7400644e-01	   3.6697313e-01	
   5.3350000e+01	   5.7081085e-01	   3.6437673e-01	
   5.3405000e+01	   5.6567499e-01	   3.6111410e-01	
   5.3460000e+01	   5.5853675e-01	   3.5727193e-01	
   5.3515000e+01	   5.4937529e-01	   3.5293773e-01	
   5.3570000e+01	   5.3820473e-01	   3.4819463e-01	
   5.3625000e+01	   5.2506876e-01	   3.4311690e-01	
   5.3680000e+01	   5.1003855e-01	   3.3776782e-01	
   5.3735000e+01	   4.9321639e-01	   3.3220114e-01	
   5.3790000e+01	   4.7474386e-01	   3.2646566e-01	
   5.3845000e+01	   4.5481005e-01	   3.2061087e-01	
   5.3900000e+01	   4.3365541e-01	   3.1469172e-01	
   5.3955000e+01	   4.1156942e-01	   3.0877143e-01	
   5.4010000e+01	   3.8888202e-01	   3.0292157e-01	
   5.4065000e+01	   3.6595105e-01	   2.9721961e-01	
   5.4120000e+01	   3.4314830e-01	   2.9174526e-01	
   5.4175000e+01	   3.2084599e-01	   2.8657740e-01	
   5.4230000e+01	   2.9940399e-01	   2.8179259e-01	
   5.4285000e+01	   2.7915920e-01	   2.7746555e-01	
   5.4340000e+01	   2.6042063e-01	   2.7367191e-01	
   5.4395000e+01	   2.4347236e-01	   2.7049312e-01	
   5.4450000e+01	   2.2858050e-01	   2.6802142e-01	
   5.4505000e+01	   2.1599789e-01	   2.6636248e-01	
   5.4560000e+01	   2.0596301e-01	   2.6563504e-01	
   5.4615000e+01	   1.9869316e-01	   2.6596789e-01	
   5.4670000e+01	   1.9437224e-01	   2.6749450e-01	
   5.4725000e+01	   1.9313478e-01	   2.7034492e-01	
   5.4780000e+01	   1.9504971e-01	   2.7463564e-01	
   5.4835000e+01	   2.0010748e-01	   2.8045816e-01	
   5.4890000e+01	   2.0821282e-01	   2.8786821e-01	
   5.4945000e+01	   2.1918609e-01	   2.9687830e-01	
   5.5000000e+01	   2.3277563e-01	   3.0745605e-01	
   5.5055000e+01	   2.4867955e-01	   3.1952857e-01	
   5.5110000e+01	   2.6657086e-01	   3.3298987e-01	
   5.5165000e+01	   2.8611883e-01	   3.4770795e-01	
   5.5220000e+01	   3.0700326e-01	   3.6352936e-01	
   5.5275000e+01	   3.2892066e-01	   3.8028141e-01	
   5.5330000e+01	   3.5158200e-01	   3.9777283e-01	
   5.5385000e+01	   3.7470339e-01	   4.1579390e-01	
   5.5440000e+01	   3.9799463e-01	   4.3411684e-01	
   5.5495000e+01	   4.2115119e-01	   4.5249727e-01	
   5.5550000e+01	   4.4385235e-01	   4.7067734e-01	
   5.5605000e+01	   4.6576625e-01	   4.8839159e-01	
   5.5660000e+01	   4.8656265e-01	   5.0537643e-01	
   5.5715000e+01	   5.0593352e-01	   5.2138291e-01	
   5.5770000e+01	   5.2361777e-01	   5.3619152e-01	
   5.5825000e+01	   5.3942282e-01	   5.4962597e-01	
   5.5880000e+01	   5.5323792e-01	   5.6156313e-01	
   5.5935000e+01	   5.6503764e-01	   5.7193781e-01	
   5.5990000e+01	   5.7487621e-01	   5.8074143e-01	
   5.6045000e+01	   5.8287406e-01	   5.8801486e-01	
   5.6100000e+01	   5.8919926e-01	   5.9383621e-01	
   5.6155000e+01	   5.9404648e-01	   5.9830629e-01	
   5.6210000e+01	   5.9761464e-01	   6.0153474e-01	
   5.6265000e+01	   6.0008613e-01	   6.0362962e-01	
   5.6320000e+01	   6.0161245e-01	   6.0469221e-01	
   5.6375000e+01	   6.0230967e-01	   6.0481703e-01	
   5.6430000e+01	   6.0226312e-01	   6.0409607e-01	
   5.6485000e+01	   6.0153700e-01	   6.0262470e-01	
   5.6540000e+01	   6.0018411e-01	   6.0050676e-01	
   5.6595000e+01	   5.9825198e-01	   5.9785616e-01	
   5.6650000e+01	   5.9578388e-01	   5.9479399e-01	
   5.6705000e+01	   5.9281490e-01	   5.9144157e-01	
   5.6760000e+01	   5.8936485e-01	   5.8791120e-01	
   5.6815000e+01	   5.8543055e-01	   5.8429596e-01	
   5.6870000e+01	   5.8097904e-01	   5.8065943e-01	
   5.6925000e+01	   5.7594300e-01	   5.7702669e-01	
   5.6980000e+01	   5.7021981e-01	   5.7337955e-01	
   5.7035000e+01	   5.6367625e-01	   5.6965840e-01	
   5.7090000e+01	   5.5615884e-01	   5.6577104e-01	
   5.7145000e+01	   5.4750898e-01	   5.6160585e-01	
   5.7200000e+01	   5.3758100e-01	   5.5704619e-01	
   5.7255000e+01	   5.2626097e-01	   5.5198336e-01	
   5.7310000e+01	   5.1348243e-01	   5.4632596e-01	
   5.7365000e+01	   4.9923569e-01	   5.4000471e-01	
   5.7420000e+01	   4.8356904e-01	   5.3297330e-01	
   5.7475000e+01	   4.6658245e-01	   5.2520643e-01	
   5.7530000e+01	   4.4841504e-01	   5.1669617e-01	
   5.7585000e+01	   4.2922927e-01	   5.0744781e-01	
   5.7640000e+01	   4.0919501e-01	   4.9747712e-01	
   5.7695000e+01	   3.8847730e-01	   4.8681081e-01	
   5.7750000e+01	   3.6723115e-01	   4.7549052e-01	
   5.7805000e+01	   3.4560357e-01	   4.6357878e-01	
   5.7860000e+01	   3.2373967e-01	   4.5116407e-01	
   5.7915000e+01	   3.0178856e-01	   4.3836307e-01	
   5.7970000e+01	   2.7990610e-01	   4.2531932e-01	
   5.8025000e+01	   2.5825239e-01	   4.1219852e-01	
   5.8080000e+01	   2.3698381e-01	   3.9918049e-01	
   5.8135000e+01	   2.1624224e-01	   3.8644841e-01	
   5.8190000e+01	   1.9614544e-01	   3.7417658e-01	
   5.8245000e+01	   1.7678170e-01	   3.6251836e-01	
   5.8300000e+01	   1.5821063e-01	   3.5159654e-01	
   5.8355000e+01	   1.4047114e-01	   3.4149879e-01	
   5.8410000e+01	   1.2359539e-01	   3.3227921e-01	
   5.8465000e+01	   1.0762438e-01	   3.2396401e-01	
   5.8520000e+01	   9.2619948e-02	   3.1655827e-01	
   5.8575000e+01	   7.8669688e-02	   3.1005159e-01	
   5.8630000e+01	   6.5884907e-02	   3.0442171e-01	
   5.8685000e+01	   5.4393888e-02	   2.9963560e-01	
   5.8740000e+01	   4.4332372e-02	   2.9564805e-01	
   5.8795000e+01	   3.5832137e-02	   2.9239869e-01	
   5.8850000e+01	   2.9008105e-02	   2.8980875e-01	
   5.8905000e+01	   2.3945685e-02	   2.8777930e-01	
   5.8960000e+01	   2.0692568e-02	   2.8619324e-01	
   5.9015000e+01	   1.9259179e-02	   2.8492252e-01	
   5.9070000e+01	   1.9627882e-02	   2.8384002e-01	
   5.9125000e+01	   2.1766348e-02	   2.8283257e-01	
   5.9180000e+01	   2.5639188e-02	   2.8181086e-01	
   5.9235000e+01	   3.1213965e-02	   2.8071393e-01	
   5.9290000e+01	   3.8460813e-02	   2.7950801e-01	
   5.9345000e+01	   4.7346380e-02	   2.7818138e-01	
   5.9400000e+01	   5.7822885e-02	   2.7673721e-01	
   5.9455000e+01	   6.9814253e-02	   2.7518605e-01	
   5.9510000e+01	   8.3203379e-02	   2.7353928e-01	
   5.9565000e+01	   9.7825197e-02	   2.7180499e-01	
   5.9620000e+01	   1.1346935e-01	   2.6998777e-01	
   5.9675000e+01	   1.2989401e-01	   2.6809289e-01	
   5.9730000e+01	   1.4684762e-01	   2.6613310e-01	
   5.9785000e+01	   1.6409064e-01	   2.6413451e-01	
   5.9840000e+01	   1.8141068e-01	   2.6213886e-01	
   5.9895000e+01	   1.9862931e-01	   2.6020135e-01	
   5.9950000e+01	   2.1560237e-01	   2.5838382e-01	
   6.0005000e+01	   2.3221425e-01	   2.5674462e-01	
   6.0060000e+01	   2.4836582e-01	   2.5532654e-01	
   6.0115000e+01	   2.6395797e-01	   2.5414532e-01	
   6.0170000e+01	   2.7887502e-01	   2.5318095e-01	
   6.0225000e+01	   2.9297324e-01	   2.5237437e-01	
   6.0280000e+01	   3.0607903e-01	   2.5163176e-01	
   6.0335000e+01	   3.1799891e-01	   2.5083695e-01	
   6.0390000e+01	   3.2853924e-01	   2.4986992e-01	
   6.0445000e+01	   3.3752893e-01	   2.4862656e-01	
   6.0500000e+01	   3.4483876e-01	   2.4703445e-01	
   6.0555000e+01	   3.5039347e-01	   2.4506235e-01	
   6.0610000e+01	   3.5417549e-01	   2.4272319e-01	
   6.0665000e+01	   3.5622026e-01	   2.4007080e-01	
   6.0720000e+01	   3.5660498e-01	   2.3719007e-01	
   6.0775000e+01	   3.5543387e-01	   2.3418191e-01	
   6.0830000e+01	   3.5282235e-01	   2.3114626e-01	
   6.0885000e+01	   3.4888193e-01	   2.2816655e-01	
   6.0940000e+01	   3.4370824e-01	   2.2529836e-01	
   6.0995000e+01	   3.3737515e-01	   2.2256403e-01	
   6.1050000e+01	   3.2993751e-01	   2.1995393e-01	
   6.1105000e+01	   3.2144212e-01	   2.1743326e-01	
   6.1160000e+01	   3.1194328e-01	   2.1495250e-01	
   6.1215000e+01	   3.0151807e-01	   2.1245880e-01	
   6.1270000e+01	   2.9027733e-01	   2.0990559e-01	
   6.1325000e+01	   2.7836979e-01	   2.0725834e-01	
   6.1380000e+01	   2.6597927e-01	   2.0449612e-01	
   6.1435000e+01	   2.5331663e-01	   2.0160975e-01	
   6.1490000e+01	   2.4060804e-01	   1.9859774e-01	
   6.1545000e+01	   2.2808134e-01	   1.9546134e-01	
   6.1600000e+01	   2.1595372e-01	   1.9220002e-01	
   6.1655000e+01	   2.0442491e-01	   1.8880868e-01	
   6.1710000e+01	   1.9367703e-01	   1.8527818e-01	
   6.1765000e+01	   1.8387871e-01	   1.8159985e-01	
   6.1820000e+01	   1.7518981e-01	   1.7777341e-01	
   6.1875000e+01	   1.6776419e-01	   1.7381555e-01	
   6.1930000e+01	   1.6174874e-01	   1.6976684e-01	
   6.1985000e+01	   1.5727773e-01	   1.6569445e-01	
   6.2040000e+01	   1.5446335e-01	   1.6168944e-01	
   6.2095000e+01	   1.5338561e-01	   1.5785884e-01	
   6.2150000e+01	   1.5408425e-01	   1.5431526e-01	
   6.2205000e+01	   1.5655390e-01	   1.5116688e-01	
   6.2260000e+01	   1.6074354e-01	   1.4851015e-01	
   6.2315000e+01	   1.6656241e-01	   1.4642702e-01	
   6.2370000e+01	   1.7389288e-01	   1.4498644e-01	
   6.2425000e+01	   1.8260715e-01	   1.4424831e-01	
   6.2480000e+01	   1.9258284e-01	   1.4426678e-01	
   6.2535000e+01	   2.0371366e-01	   1.4509206e-01	
   6.2590000e+01	   2.1591361e-01	   1.4677092e-01	
   6.2645000e+01	   2.2911492e-01	   1.4934515e-01	
   6.2700000e+01	   2.4326099e-01	   1.5284700e-01	
   6.2755000e+01	   2.5829609e-01	   1.5729196e-01	
   6.2810000e+01	   2.7415495e-01	   1.6267103e-01	
   6.2865000e+01	   2.9075572e-01	   1.6894412e-01	
   6.2920000e+01	   3.0799762e-01	   1.7603632e-01	
   6.2975000e+01	   3.2576421e-01	   1.8383883e-01	
   6.3030000e+01	   3.4393291e-01	   1.9221567e-01	
   6.3085000e+01	   3.6238817e-01	   2.0101407e-01	
   6.3140000e+01	   3.8103288e-01	   2.1007544e-01	
   6.3195000e+01	   3.9979485e-01	   2.1924458e-01	
   6.3250000e+01	   4.1862888e-01	   2.2837676e-01	
   6.3305000e+01	   4.3751441e-01	   2.3734150e-01	
   6.3360000e+01	   4.5644735e-01	   2.4602230e-01	
   6.3415000e+01	   4.7542585e-01	   2.5431277e-01	
   6.3470000e+01	   4.9443324e-01	   2.6211120e-01	
   6.3525000e+01	   5.1342223e-01	   2.6931477e-01	
   6.3580000e+01	   5.3230381e-01	   2.7581544e-01	
   6.3635000e+01	   5.5094462e-01	   2.8149989e-01	
   6.3690000e+01	   5.6917490e-01	   2.8625511e-01	
   6.3745000e+01	   5.8680452e-01	   2.8997852e-01	
   6.3800000e+01	   6.0364104e-01	   2.9258983e-01	
   6.3855000e+01	   6.1950477e-01	   2.9404129e-01	
   6.3910000e+01	   6.3423965e-01	   2.9432407e-01	
   6.3965000e+01	   6.4771971e-01	   2.9346872e-01	
   6.4020000e+01	   6.5984922e-01	   2.9153934e-01	
   6.4075000e+01	   6.7055463e-01	   2.8862269e-01	
   6.4130000e+01	   6.7976869e-01	   2.8481473e-01	
   6.4185000e+01	   6.8741124e-01	   2.8020688e-01	
   6.4240000e+01	   6.9337288e-01	   2.7487333e-01	
   6.4295000e+01	   6.9750743e-01	   2.6886109e-01	
   6.4350000e+01	   6.9963631e-01	   2.6218573e-01	
   6.4405000e+01	   6.9956474e-01	   2.5483473e-01	
   6.4460000e+01	   6.9710612e-01	   2.4677784e-01	
   6.4515000e+01	   6.9210853e-01	   2.3798115e-01	
   6.4570000e+01	   6.8447906e-01	   2.2842111e-01	
   6.4625000e+01	   6.7420235e-01	   2.1809612e-01	
   6.4680000e+01	   6.6135002e-01	   2.0703342e-01	
   6.4735000e+01	   6.4607866e-01	   1.9528996e-01	
   6.4790000e+01	   6.2861862e-01	   1.8294701e-01	
   6.4845000e+01	   6.0925761e-01	   1.7010000e-01	
   6.4900000e+01	   5.8832243e-01	   1.5684654e-01	
   6.4955000e+01	   5.6616111e-01	   1.4327604e-01	
   6.5010000e+01	   5.4312713e-01	   1.2946346e-01	
   6.5065000e+01	   5.1956704e-01	   1.1546846e-01	
   6.5120000e+01	   4.9581271e-01	   1.0133990e-01	
   6.5175000e+01	   4.7217945e-01	   8.7124384e-02	
   6.5230000e+01	   4.4896825e-01	   7.2876109e-02	
   6.5285000e+01	   4.2646666e-01	   5.8664641e-02	
   6.5340000e+01	   4.0494303e-01	   4.4578189e-02	
   6.5395000e+01	   3.8463434e-01	   3.0721534e-02	
   6.5450000e+01	   3.6573214e-01	   1.7209335e-02	
   6.5505000e+01	   3.4837046e-01	   4.1565810e-03	
   6.5560000e+01	   3.3261702e-01	  -8.3314598e-03	
   6.5615000e+01	   3.1846838e-01	  -2.0167483e-02	
   6.5670000e+01	   3.0585162e-01	  -3.1286727e-02	
   6.5725000e+01	   2.9463672e-01	  -4.1646769e-02	
   6.5780000e+01	   2.8465948e-01	  -5.1222644e-02	
   6.5835000e+01	   2.7574961e-01	  -5.9999079e-02	
   6.5890000e+01	   2.6775705e-01	  -6.7963000e-02	
   6.5945000e+01	   2.6057210e-01	  -7.5099248e-02	
   6.6000000e+01	   2.5413706e-01	  -8.1390847e-02	
   6.6055000e+01	   2.4844781e-01	  -8.6823529e-02	
   6.6110000e+01	   2.4354636e-01	  -9.1393298e-02	
   6.6165000e+01	   2.3950704e-01	  -9.5115323e-02	
   6.6220000e+01	   2.3641884e-01	  -9.8032241e-02	
   6.6275000e+01	   2.3436694e-01	  -1.0021964e-01	
   6.6330000e+01	   2.3341628e-01	  -1.0178659e-01	
   6.6385000e+01	   2.3359937e-01	  -1.0287025e-01	
   6.6440000e+01	   2.3490989e-01	  -1.0362483e-01	
   6.6495000e+01	   2.3730313e-01	  -1.0420666e-01	
   6.6550000e+01	   2.4070369e-01	  -1.0475774e-01	
   6.6605000e+01	   2.4501934e-01	  -1.0539099e-01	
   6.6660000e+01	   2.5015764e-01	  -1.0618001e-01	
   6.6715000e+01	   2.5604051e-01	  -1.0715556e-01	
   6.6770000e+01	   2.6261338e-01	  -1.0830884e-01	
   6.6825000e+01	   2.6984666e-01	  -1.0960099e-01	
   6.6880000e+01	   2.7772859e-01	  -1.1097756e-01	
   6.6935000e+01	   2.8625105e-01	  -1.1238591e-01	
   6.6990000e+01	   2.9539271e-01	  -1.1379116e-01	
   6.7045000e+01	   3.0510500e-01	  -1.1518695e-01	
   6.7100000e+01	   3.1530502e-01	  -1.1659797e-01	
   6.7155000e+01	   3.2587708e-01	  -1.1807462e-01	
   6.7210000e+01	   3.3668074e-01	  -1.1968176e-01	
   6.7265000e+01	   3.4756128e-01	  -1.2148515e-01	
   6.7320000e+01	   3.5835848e-01	  -1.2353926e-01	
   6.7375000e+01	   3.6891237e-01	  -1.2587791e-01	
   6.7430000e+01	   3.7906765e-01	  -1.2850841e-01	
   6.7485000e+01	   3.8867755e-01	  -1.3140977e-01	
   6.7540000e+01	   3.9760490e-01	  -1.3453574e-01	
   6.7595000e+01	   4.0571881e-01	  -1.3782256e-01	
   6.7650000e+01	   4.1288879e-01	  -1.4119920e-01	
   6.7705000e+01	   4.1897945e-01	  -1.4459828e-01	
   6.7760000e+01	   4.2384715e-01	  -1.4796562e-01	
   6.7815000e+01	   4.2733920e-01	  -1.5126650e-01	
   6.7870000e+01	   4.2929930e-01	  -1.5448599e-01	
   6.7925000e+01	   4.2958154e-01	  -1.5762378e-01	
   6.7980000e+01	   4.2807036e-01	  -1.6068693e-01	
   6.8035000e+01	   4.2469954e-01	  -1.6368381e-01	
   6.8090000e+01	   4.1946401e-01	  -1.6662036e-01	
   6.8145000e+01	   4.1242248e-01	  -1.6949855e-01	
   6.8200000e+01	   4.0369181e-01	  -1.7231682e-01	
   6.8255000e+01	   3.9343543e-01	  -1.7507300e-01	
   6.8310000e+01	   3.8184809e-01	  -1.7776914e-01	
   6.8365000e+01	   3.6913908e-01	  -1.8041682e-01	
   6.8420000e+01	   3.5551630e-01	  -1.8304108e-01	
   6.8475000e+01	   3.4117426e-01	  -1.8568175e-01	
   6.8530000e+01	   3.2628947e-01	  -1.8839113e-01	
   6.8585000e+01	   3.1102506e-01	  -1.9122745e-01	
   6.8640000e+01	   2.9554109e-01	  -1.9424542e-01	
   6.8695000e+01	   2.8000363e-01	  -1.9748708e-01	
   6.8750000e+01	   2.6458845e-01	  -2.0097539e-01	
   6.8805000e+01	   2.4947862e-01	  -2.0471130e-01	
   6.8860000e+01	   2.3485672e-01	  -2.0867385e-01	
   6.8915000e+01	   2.2089273e-01	  -2.1282275e-01	
   6.8970000e+01	   2.0773103e-01	  -2.1710271e-01	
   6.9025000e+01	   1.9548051e-01	  -2.2144900e-01	
   6.9080000e+01	   1.8421032e-01	  -2.2579300e-01	
   6.9135000e+01	   1.7395309e-01	  -2.3006591e-01	
   6.9190000e+01	   1.6471648e-01	  -2.3419842e-01	
   6.9245000e+01	   1.5650139e-01	  -2.3811705e-01	
   6.9300000e+01	   1.4932138e-01	  -2.4174040e-01	
   6.9355000e+01	   1.4321814e-01	  -2.4497788e-01	
   6.9410000e+01	   1.3827083e-01	  -2.4773117e-01	
   6.9465000e+01	   1.3459915e-01	  -2.4989666e-01	
   6.9520000e+01	   1.3235922e-01	  -2.5136903e-01	
   6.9575000e+01	   1.3173100e-01	  -2.5204727e-01	
   6.9630000e+01	   1.3289840e-01	  -2.5184361e-01	
   6.9685000e+01	   1.3602620e-01	  -2.5069298e-01	
   6.9740000e+01	   1.4123775e-01	  -2.4856008e-01	
   6.9795000e+01	   1.4859837e-01	  -2.4544138e-01	
   6.9850000e+01	   1.5810892e-01	  -2.4136107e-01	
   6.9905000e+01	   1.6971047e-01	  -2.3636165e-01	
   6.9960000e+01	   1.8329620e-01	  -2.3049250e-01	
   7.0015000e+01	   1.9872577e-01	  -2.2379976e-01	
   7.0070000e+01	   2.1583900e-01	  -2.1631958e-01	
   7.0125000e+01	   2.3446656e-01	  -2.0807522e-01	
   7.0180000e+01	   2.5443689e-01	  -1.9907913e-01	
   7.0235000e+01	   2.7557986e-01	  -1.8934058e-01	
   7.0290000e+01	   2.9772746e-01	  -1.7887741e-01	
   7.0345000e+01	   3.2071109e-01	  -1.6772865e-01	
   7.0400000e+01	   3.4435563e-01	  -1.5596469e-01	
   7.0455000e+01	   3.6847242e-01	  -1.4369224e-01	
   7.0510000e+01	   3.9285462e-01	  -1.3105255e-01	
   7.0565000e+01	   4.1727907e-01	  -1.1821251e-01	
   7.0620000e+01	   4.4151597e-01	  -1.0535066e-01	
   7.0675000e+01	   4.6534278e-01	  -9.2641928e-02	
   7.0730000e+01	   4.8855510e-01	  -8.0244690e-02	
   7.0785000e+01	   5.1097066e-01	  -6.8292237e-02	
   7.0840000e+01	   5.3242676e-01	  -5.6889516e-02	
   7.0895000e+01	   5.5277310e-01	  -4.6115592e-02	
   7.0950000e+01	   5.7186150e-01	  -3.6031422e-02	
   7.1005000e+01	   5.8953338e-01	  -2.6691422e-02	
   7.1060000e+01	   6.0560679e-01	  -1.8156643e-02	
   7.1115000e+01	   6.1986674e-01	  -1.0506574e-02	
   7.1170000e+01	   6.3206356e-01	  -3.8458465e-03	
   7.1225000e+01	   6.4192201e-01	   1.6970850e-03	
   7.1280000e+01	   6.4915979e-01	   5.9794070e-03	
   7.1335000e+01	   6.5351141e-01	   8.8591641e-03	
   7.1390000e+01	   6.5475276e-01	   1.0213078e-02	
   7.1445000e+01	   6.5272276e-01	   9.9536841e-03	
   7.1500000e+01	   6.4733933e-01	   8.0424927e-03	
   7.1555000e+01	   6.3860845e-01	   4.4969845e-03	
   7.1610000e+01	   6.2662572e-01	  -6.0915006e-04	
   7.1665000e+01	   6.1156965e-01	  -7.1522617e-03	
   7.1720000e+01	   5.9368645e-01	  -1.4970439e-02	
   7.1775000e+01	   5.7326833e-01	  -2.3878414e-02	
   7.1830000e+01	   5.5062936e-01	  -3.3683020e-02	
   7.1885000e+01	   5.2608291e-01	  -4.4197258e-02	
   7.1940000e+01	   4.9992431e-01	  -5.5251207e-02	
   7.1995000e+01	   4.7242192e-01	  -6.6697456e-02	
   7.2050000e+01	   4.4381879e-01	  -7.8409410e-02	
   7.2105000e+01	   4.1434509e-01	  -9.0273859e-02	
   7.2160000e+01	   3.8423772e-01	  -1.0218178e-01	
   7.2215000e+01	   3.5375954e-01	  -1.1402093e-01	
   7.2270000e+01	   3.2321126e-01	  -1.2567174e-01	
   7.2325000e+01	   2.9293291e-01	  -1.3700644e-01	
   7.2380000e+01	   2.6329565e-01	  -1.4789131e-01	
   7.2435000e+01	   2.3468642e-01	  -1.5819140e-01	
   7.2490000e+01	   2.0748757e-01	  -1.6777704e-01	
   7.2545000e+01	   1.8205487e-01	  -1.7653114e-01	
   7.2600000e+01	   1.5869865e-01	  -1.8435572e-01	
   7.2655000e+01	   1.3767223e-01	  -1.9117589e-01	
   7.2710000e+01	   1.1916891e-01	  -1.9694022e-01	
   7.2765000e+01	   1.0332587e-01	  -2.0161734e-01	
   7.2820000e+01	   9.0232300e-02	  -2.0519051e-01	
   7.2875000e+01	   7.9937926e-02	  -2.0765187e-01	
   7.2930000e+01	   7.2456864e-02	  -2.0899820e-01	
   7.2985000e+01	   6.7763978e-02	  -2.0922961e-01	
   7.3040000e+01	   6.5786606e-02	  -2.0835087e-01	
   7.3095000e+01	   6.6396801e-02	  -2.0637411e-01	
   7.3150000e+01	   6.9406728e-02	  -2.0332261e-01	
   7.3205000e+01	   7.4568033e-02	  -1.9923579e-01	
   7.3260000e+01	   8.1576244e-02	  -1.9417427e-01	
   7.3315000e+01	   9.0080833e-02	  -1.8822254e-01	
   7.3370000e+01	   9.9701138e-02	  -1.8148677e-01	
   7.3425000e+01	   1.1004924e-01	  -1.7408687e-01	
   7.3480000e+01	   1.2075958e-01	  -1.6614398e-01	
   7.3535000e+01	   1.3151990e-01	  -1.5776752e-01	
   7.3590000e+01	   1.4209569e-01	  -1.4904584e-01	
   7.3645000e+01	   1.5234391e-01	  -1.4004188e-01	
   7.3700000e+01	   1.6221590e-01	  -1.3079296e-01	
   7.3755000e+01	   1.7175015e-01	  -1.2131438e-01	
   7.3810000e+01	   1.8105499e-01	  -1.1160748e-01	
   7.3865000e+01	   1.9028427e-01	  -1.0167130e-01	
   7.3920000e+01	   1.9961154e-01	  -9.1515569e-02	
   7.3975000e+01	   2.0920734e-01	  -8.1172308e-02	
   7.4030000e+01	   2.1922211e-01	  -7.0702956e-02	
   7.4085000e+01	   2.2977627e-01	  -6.0198236e-02	
   7.4140000e+01	   2.4095709e-01	  -4.9769799e-02	
   7.4195000e+01	   2.5281918e-01	  -3.9536229e-02	
   7.4250000e+01	   2.6538503e-01	  -2.9607897e-02	
   7.4305000e+01	   2.7864410e-01	  -2.0074438e-02	
   7.4360000e+01	   2.9255020e-01	  -1.0997600e-02	
   7.4415000e+01	   3.0701657e-01	  -2.4110287e-03	
   7.4470000e+01	   3.2190865e-01	   5.6736003e-03	
   7.4525000e+01	   3.3703529e-01	   1.3256994e-02	
   7.4580000e+01	   3.5214174e-01	   2.0342336e-02	
   7.4635000e+01	   3.6690904e-01	   2.6927340e-02	
   7.4690000e+01	   3.8096367e-01	   3.3000181e-02	
   7.4745000e+01	   3.9389727e-01	   3.8540727e-02	
   7.4800000e+01	   4.0529309e-01	   4.3526745e-02	
   7.4855000e+01	   4.1475480e-01	   4.7942590e-02	
   7.4910000e+01	   4.2193464e-01	   5.1787284e-02	
   7.4965000e+01	   4.2655779e-01	   5.5079760e-02	
   7.5020000e+01	   4.2844092e-01	   5.7860384e-02	
   7.5075000e+01	   4.2750403e-01	   6.0188934e-02	
   7.5130000e+01	   4.2377505e-01	   6.2139675e-02	
   7.5185000e+01	   4.1738544e-01	   6.3793791e-02	
   7.5240000e+01	   4.0855574e-01	   6.5229121e-02	
   7.5295000e+01	   3.9757395e-01	   6.6508151e-02	
   7.5350000e+01	   3.8477176e-01	   6.7666796e-02	
   7.5405000e+01	   3.7050283e-01	   6.8707017e-02	
   7.5460000e+01	   3.5512595e-01	   6.9595373e-02	
   7.5515000e+01	   3.3899520e-01	   7.0268309e-02	
   7.5570000e+01	   3.2245708e-01	   7.0643324e-02	
   7.5625000e+01	   3.0585095e-01	   7.0633362e-02	
   7.5680000e+01	   2.8950917e-01	   7.0160975e-02	
   7.5735000e+01	   2.7375446e-01	   6.9169354e-02	
   7.5790000e+01	   2.5889265e-01	   6.7628268e-02	
   7.5845000e+01	   2.4520072e-01	   6.5534295e-02	
   7.5900000e+01	   2.3291297e-01	   6.2906678e-02	
   7.5955000e+01	   2.2220887e-01	   5.9781236e-02	
   7.6010000e+01	   2.1320515e-01	   5.6204318e-02	
   7.6065000e+01	   2.0595429e-01	   5.2228316e-02	
   7.6120000e+01	   2.0045146e-01	   4.7910363e-02	
   7.6175000e+01	   1.9664995e-01	   4.3314764e-02	
   7.6230000e+01	   1.9448079e-01	   3.8517550e-02	
   7.6285000e+01	   1.9387056e-01	   3.3610503e-02	
   7.6340000e+01	   1.9475336e-01	   2.8702447e-02	
   7.6395000e+01	   1.9707496e-01	   2.3916518e-02	
   7.6450000e+01	   2.0078945e-01	   1.9383554e-02	
   7.6505000e+01	   2.0585093e-01	   1.5233301e-02	
   7.6560000e+01	   2.1220278e-01	   1.1585289e-02	
   7.6615000e+01	   2.1976625e-01	   8.5399475e-03	
   7.6670000e+01	   2.2843104e-01	   6.1702508e-03	
   7.6725000e+01	   2.3805212e-01	   4.5158645e-03	
   7.6780000e+01	   2.4845535e-01	   3.5827458e-03	
   7.6835000e+01	   2.5945068e-01	   3.3495744e-03	
   7.6890000e+01	   2.7084901e-01	   3.7795286e-03	
   7.6945000e+01	   2.8247905e-01	   4.8339597e-03	
   7.7000000e+01	   2.9420045e-01	   6.4840637e-03	
   7.7055000e+01	   3.0591079e-01	   8.7174399e-03	
   7.7110000e+01	   3.1754606e-01	   1.1538108e-02	
   7.7165000e+01	   3.2907478e-01	   1.4960348e-02	
   7.7220000e+01	   3.4048617e-01	   1.8998148e-02	
   7.7275000e+01	   3.5177410e-01	   2.3653242e-02	
   7.7330000e+01	   3.6292167e-01	   2.8905110e-02	
   7.7385000e+01	   3.7389069e-01	   3.4705262e-02	
   7.7440000e+01	   3.8461752e-01	   4.0976686e-02	
   7.7495000e+01	   3.9501462e-01	   4.7618452e-02	
   7.7550000e+01	   4.0497593e-01	   5.4514277e-02	
   7.7605000e+01	   4.1438396e-01	   6.1542338e-02	
   7.7660000e+01	   4.2311753e-01	   6.8583580e-02	
   7.7715000e+01	   4.3105998e-01	   7.5527265e-02	
   7.7770000e+01	   4.3810728e-01	   8.2273826e-02	
   7.7825000e+01	   4.4417445e-01	   8.8735629e-02	
   7.7880000e+01	   4.4919773e-01	   9.4835971e-02	
   7.7935000e+01	   4.5313010e-01	   1.0050611e-01	
   7.7990000e+01	   4.5592974e-01	   1.0568012e-01	
   7.8045000e+01	   4.5754506e-01	   1.1028861e-01	
   7.8100000e+01	   4.5790309e-01	   1.1425396e-01	
   7.8155000e+01	   4.5690749e-01	   1.1749034e-01	
   7.8210000e+01	   4.5444886e-01	   1.1990970e-01	
   7.8265000e+01	   4.5042601e-01	   1.2143173e-01	
   7.8320000e+01	   4.4477287e-01	   1.2199485e-01	
   7.8375000e+01	   4.3748320e-01	   1.2156559e-01	
   7.8430000e+01	   4.2862600e-01	   1.2014489e-01	
   7.8485000e+01	   4.1834838e-01	   1.1777012e-01	
   7.8540000e+01	   4.0686665e-01	   1.1451180e-01	
   7.8595000e+01	   3.9444757e-01	   1.1046509e-01	
   7.8650000e+01	   3.8138277e-01	   1.0573789e-01	
   7.8705000e+01	   3.6796053e-01	   1.0043794e-01	
   7.8760000e+01	   3.5443977e-01	   9.4661812e-02	
   7.8815000e+01	   3.4103169e-01	   8.8487541e-02	
   7.8870000e+01	   3.2789284e-01	   8.1972431e-02	
   7.8925000e+01	   3.1512961e-01	   7.5155906e-02	
   7.8980000e+01	   3.0280932e-01	   6.8065232e-02	
   7.9035000e+01	   2.9097111e-01	   6.0721288e-02	
   7.9090000e+01	   2.7963355e-01	   5.3143171e-02	
   7.9145000e+01	   2.6879903e-01	   4.5351565e-02	
   7.9200000e+01	   2.5845582e-01	   3.7370478e-02	
   7.9255000e+01	   2.4857813e-01	   2.9227324e-02	
   7.9310000e+01	   2.3912420e-01	   2.0952260e-02	
   7.9365000e+01	   2.3003312e-01	   1.2577367e-02	
   7.9420000e+01	   2.2122217e-01	   4.1357947e-03	
   7.9475000e+01	   2.1258809e-01	  -4.3380645e-03	
   7.9530000e+01	   2.0401602e-01	  -1.2805926e-02	
   7.9585000e+01	   1.9539519e-01	  -2.1220817e-02	
   7.9640000e+01	   1.8663613e-01	  -2.9522023e-02	
   7.9695000e+01	   1.7768419e-01	  -3.7631620e-02	
   7.9750000e+01	   1.6852646e-01	  -4.5453995e-02	
   7.9805000e+01	   1.5919138e-01	  -5.2879010e-02	
   7.9860000e+01	   1.4974259e-01	  -5.9788053e-02	
   7.9915000e+01	   1.4026974e-01	  -6.6061528e-02	
   7.9970000e+01	   1.3087736e-01	  -7.1586788e-02	
   8.0025000e+01	   1.2167276e-01	  -7.6265371e-02	
   8.0080000e+01	   1.1275641e-01	  -8.0017704e-02	
   8.0135000e+01	   1.0421899e-01	  -8.2783772e-02	
   8.0190000e+01	   9.6146327e-02	  -8.4519665e-02	
   8.0245000e+01	   8.8630409e-02	  -8.5191465e-02	
   8.0300000e+01	   8.1781643e-02	  -8.4768850e-02	
   8.0355000e+01	   7.5736223e-02	  -8.3220867e-02	
   8.0410000e+01	   7.0653725e-02	  -8.0515552e-02	
   8.0465000e+01	   6.6703897e-02	  -7.6624049e-02	
   8.0520000e+01	   6.4044722e-02	  -7.1528962e-02	
   8.0575000e+01	   6.2796330e-02	  -6.5235842e-02	
   8.0630000e+01	   6.3018116e-02	  -5.7785284e-02	
   8.0685000e+01	   6.4696443e-02	  -4.9262048e-02	
   8.0740000e+01	   6.7745213e-02	  -3.9798500e-02	
   8.0795000e+01	   7.2016792e-02	  -2.9571229e-02	
   8.0850000e+01	   7.7320870e-02	  -1.8790424e-02	
   8.0905000e+01	   8.3450058e-02	  -7.6831410e-03	
   8.0960000e+01	   9.0209720e-02	   3.5255161e-03	
   8.1015000e+01	   9.7447222e-02	   1.4628436e-02	
   8.1070000e+01	   1.0507479e-01	   2.5447430e-02	
   8.1125000e+01	   1.1308118e-01	   3.5839331e-02	
   8.1180000e+01	   1.2152984e-01	   4.5698144e-02	
   8.1235000e+01	   1.3054354e-01	   5.4953521e-02	
   8.1290000e+01	   1.4027710e-01	   6.3565202e-02	
   8.1345000e+01	   1.5088277e-01	   7.1513031e-02	
   8.1400000e+01	   1.6247486e-01	   7.8783719e-02	
   8.1455000e+01	   1.7510063e-01	   8.5357791e-02	
   8.1510000e+01	   1.8872218e-01	   9.1200844e-02	
   8.1565000e+01	   2.0321220e-01	   9.6262019e-02	
   8.1620000e+01	   2.1836322e-01	   1.0047988e-01	
   8.1675000e+01	   2.3390653e-01	   1.0379274e-01	
   8.1730000e+01	   2.4953401e-01	   1.0614926e-01	
   8.1785000e+01	   2.6491754e-01	   1.0751657e-01	
   8.1840000e+01	   2.7972380e-01	   1.0788526e-01	
   8.1895000e+01	   2.9362482e-01	   1.0727089e-01	
   8.1950000e+01	   3.0630502e-01	   1.0571122e-01	
   8.2005000e+01	   3.1746543e-01	   1.0325915e-01	
   8.2060000e+01	   3.2682548e-01	   9.9972950e-02	
   8.2115000e+01	   3.3412317e-01	   9.5906575e-02	
   8.2170000e+01	   3.3911686e-01	   9.1103154e-02	
   8.2225000e+01	   3.4159206e-01	   8.5594366e-02	
   8.2280000e+01	   3.4137316e-01	   7.9406024e-02	
   8.2335000e+01	   3.3833669e-01	   7.2567759e-02	
   8.2390000e+01	   3.3242248e-01	   6.5123419e-02	
   8.2445000e+01	   3.2364052e-01	   5.7138850e-02	
   8.2500000e+01	   3.1207227e-01	   4.8704794e-02	
   8.2555000e+01	   2.9786683e-01	   3.9934269e-02	
   8.2610000e+01	   2.8123298e-01	   3.0955238e-02	
   8.2665000e+01	   2.6242819e-01	   2.1899914e-02	
   8.2720000e+01	   2.4174628e-01	   1.2892356e-02	
   8.2775000e+01	   2.1950533e-01	   4.0362682e-03	
   8.2830000e+01	   1.9603717e-01	  -4.5949812e-03	
   8.2885000e+01	   1.7167956e-01	  -1.2963800e-02	
   8.2940000e+01	   1.4677360e-01	  -2.1067047e-02	
   8.2995000e+01	   1.2166782e-01	  -2.8927918e-02	
   8.3050000e+01	   9.6724793e-02	  -3.6584411e-02	
   8.3105000e+01	   7.2323122e-02	  -4.4078537e-02	
   8.3160000e+01	   4.8850761e-02	  -5.1448407e-02	
   8.3215000e+01	   2.6689238e-02	  -5.8723491e-02	
   8.3270000e+01	   6.1912516e-03	  -6.5922780e-02	
   8.3325000e+01	  -1.2343790e-02	  -7.3055286e-02	
   8.3380000e+01	  -2.8690458e-02	  -8.0121900e-02	
   8.3435000e+01	  -4.2710235e-02	  -8.7117250e-02	
   8.3490000e+01	  -5.4354413e-02	  -9.4029625e-02	
   8.3545000e+01	  -6.3654944e-02	  -1.0083740e-01	
   8.3600000e+01	  -7.0704542e-02	  -1.0750288e-01	
   8.3655000e+01	  -7.5632484e-02	  -1.1396686e-01	
   8.3710000e+01	  -7.8582915e-02	  -1.2014682e-01	
   8.3765000e+01	  -7.9699012e-02	  -1.2593894e-01	
   8.3820000e+01	  -7.9114516e-02	  -1.3122279e-01	
   8.3875000e+01	  -7.6953199e-02	  -1.3586766e-01	
   8.3930000e+01	  -7.3335278e-02	  -1.3974090e-01	
   8.3985000e+01	  -6.8388229e-02	  -1.4271898e-01	
   8.4040000e+01	  -6.2257809e-02	  -1.4470039e-01	
   8.4095000e+01	  -5.5113870e-02	  -1.4561751e-01	
   8.4150000e+01	  -4.7147309e-02	  -1.4544401e-01	
   8.4205000e+01	  -3.8558336e-02	  -1.4419571e-01	
   8.4260000e+01	  -2.9538756e-02	  -1.4192418e-01	
   8.4315000e+01	  -2.0252496e-02	  -1.3870504e-01	
   8.4370000e+01	  -1.0819423e-02	  -1.3462528e-01	
   8.4425000e+01	  -1.3058257e-03	  -1.2977398e-01	
   8.4480000e+01	   8.2774361e-03	  -1.2423817e-01	
   8.4535000e+01	   1.7969200e-02	  -1.1810306e-01	
   8.4590000e+01	   2.7845987e-02	  -1.1145493e-01	
   8.4645000e+01	   3.8006611e-02	  -1.0438518e-01	
   8.4700000e+01	   4.8556059e-02	  -9.6994478e-02	
   8.4755000e+01	   5.9590175e-02	  -8.9396414e-02	
   8.4810000e+01	   7.1183417e-02	  -8.1719957e-02	
   8.4865000e+01	   8.3382870e-02	  -7.4108539e-02	
   8.4920000e+01	   9.6209002e-02	  -6.6714073e-02	
   8.4975000e+01	   1.0966002e-01	  -5.9686821e-02	
   8.5030000e+01	   1.2371668e-01	  -5.3164388e-02	
   8.5085000e+01	   1.3834619e-01	  -4.7263303e-02	
   8.5140000e+01	   1.5350382e-01	  -4.2075170e-02	
   8.5195000e+01	   1.6913096e-01	  -3.7667479e-02	
   8.5250000e+01	   1.8515029e-01	  -3.4087848e-02	
   8.5305000e+01	   2.0145943e-01	  -3.1369998e-02	
   8.5360000e+01	   2.1792371e-01	  -2.9540019e-02	
   8.5415000e+01	   2.3436885e-01	  -2.8621742e-02	
   8.5470000e+01	   2.5057637e-01	  -2.8639782e-02	
   8.5525000e+01	   2.6628661e-01	  -2.9618523e-02	
   8.5580000e+01	   2.8121178e-01	  -3.1576558e-02	
   8.5635000e+01	   2.9505696e-01	  -3.4518508e-02	
   8.5690000e+01	   3.0754290e-01	  -3.8427821e-02	
   8.5745000e+01	   3.1842413e-01	  -4.3263410e-02	
   8.5800000e+01	   3.2749900e-01	  -4.8961158e-02	
   8.5855000e+01	   3.3461116e-01	  -5.5439578e-02	
   8.5910000e+01	   3.3964380e-01	  -6.2607927e-02	
   8.5965000e+01	   3.4250901e-01	  -7.0374841e-02	
   8.6020000e+01	   3.4313551e-01	  -7.8656313e-02	
   8.6075000e+01	   3.4145738e-01	  -8.7382302e-02	
   8.6130000e+01	   3.3740638e-01	  -9.6500785e-02	
   8.6185000e+01	   3.3091185e-01	  -1.0597739e-01	
   8.6240000e+01	   3.2191083e-01	  -1.1578948e-01	
   8.6295000e+01	   3.1036716e-01	  -1.2591613e-01	
   8.6350000e+01	   2.9629373e-01	  -1.3632745e-01	
   8.6405000e+01	   2.7977148e-01	  -1.4697710e-01	
   8.6460000e+01	   2.6095974e-01	  -1.5779967e-01	
   8.6515000e+01	   2.4009509e-01	  -1.6871267e-01	
   8.6570000e+01	   2.1747913e-01	  -1.7962250e-01	
   8.6625000e+01	   1.9345870e-01	  -1.9043335e-01	
   8.6680000e+01	   1.6840337e-01	  -2.0105762e-01	
   8.6735000e+01	   1.4268548e-01	  -2.1142475e-01	
   8.6790000e+01	   1.1666669e-01	  -2.2148541e-01	
   8.6845000e+01	   9.0692159e-02	  -2.3121031e-01	
   8.6900000e+01	   6.5090736e-02	  -2.4058521e-01	
   8.6955000e+01	   4.0178921e-02	  -2.4960391e-01	
   8.7010000e+01	   1.6264577e-02	  -2.5826186e-01	
   8.7065000e+01	  -6.3538148e-03	  -2.6655265e-01	
   8.7120000e+01	  -2.7393113e-02	  -2.7446754e-01	
   8.7175000e+01	  -4.6594162e-02	  -2.8199665e-01	
   8.7230000e+01	  -6.3731168e-02	  -2.8913057e-01	
   8.7285000e+01	  -7.8621410e-02	  -2.9586132e-01	
   8.7340000e+01	  -9.1134136e-02	  -3.0218254e-01	
   8.7395000e+01	  -1.0119627e-01	  -3.0808882e-01	
   8.7450000e+01	  -1.0879334e-01	  -3.1357480e-01	
   8.7505000e+01	  -1.1396544e-01	  -3.1863344e-01	
   8.7560000e+01	  -1.1679870e-01	  -3.2325298e-01	
   8.7615000e+01	  -1.1741383e-01	  -3.2741340e-01	
   8.7670000e+01	  -1.1595326e-01	  -3.3108386e-01	
   8.7725000e+01	  -1.1256907e-01	  -3.3422161e-01	
   8.7780000e+01	  -1.0741490e-01	  -3.3677298e-01	
   8.7835000e+01	  -1.0064545e-01	  -3.3867837e-01	
   8.7890000e+01	  -9.2423700e-02	  -3.3988101e-01	
   8.7945000e+01	  -8.2931345e-02	  -3.4033742e-01	
   8.8000000e+01	  -7.2377225e-02	  -3.4002710e-01	
   8.8055000e+01	  -6.0999541e-02	  -3.3895937e-01	
   8.8110000e+01	  -4.9059649e-02	  -3.3717532e-01	
   8.8165000e+01	  -3.6828018e-02	  -3.3474448e-01	
   8.8220000e+01	  -2.4566893e-02	  -3.3175803e-01	
   8.8275000e+01	  -1.2515357e-02	  -3.2832109e-01	
   8.8330000e+01	  -8.8010237e-04	  -3.2454526e-01	
   8.8385000e+01	   1.0168018e-02	  -3.2054201e-01	
   8.8440000e+01	   2.0493560e-02	  -3.1641762e-01	
   8.8495000e+01	   2.9993635e-02	  -3.1227018e-01	
   8.8550000e+01	   3.8592488e-02	  -3.0818914e-01	
   8.8605000e+01	   4.6233672e-02	  -3.0425791e-01	
   8.8660000e+01	   5.2872725e-02	  -3.0055779e-01	
   8.8715000e+01	   5.8475190e-02	  -2.9717044e-01	
   8.8770000e+01	   6.3022854e-02	  -2.9417701e-01	
   8.8825000e+01	   6.6526442e-02	  -2.9165339e-01	
   8.8880000e+01	   6.9039226e-02	  -2.8966349e-01	
   8.8935000e+01	   7.0665548e-02	  -2.8825331e-01	
   8.8990000e+01	   7.1560795e-02	  -2.8744731e-01	
   8.9045000e+01	   7.1922252e-02	  -2.8724766e-01	
   8.9100000e+01	   7.1971882e-02	  -2.8763616e-01	
   8.9155000e+01	   7.1933287e-02	  -2.8857968e-01	
   8.9210000e+01	   7.2007095e-02	  -2.9003855e-01	
   8.9265000e+01	   7.2349800e-02	  -2.9197578e-01	
   8.9320000e+01	   7.3059164e-02	  -2.9436488e-01	
   8.9375000e+01	   7.4167428e-02	  -2.9719437e-01	
   8.9430000e+01	   7.5643547e-02	  -3.0046675e-01	
   8.9485000e+01	   7.7404891e-02	  -3.0419194e-01	
   8.9540000e+01	   7.9335538e-02	  -3.0837749e-01	
   8.9595000e+01	   8.1305391e-02	  -3.1301967e-01	
   8.9650000e+01	   8.3184498e-02	  -3.1809809e-01	
   8.9705000e+01	   8.4849609e-02	  -3.2357476e-01	
   8.9760000e+01	   8.6183258e-02	  -3.2939707e-01	
   8.9815000e+01	   8.7067746e-02	  -3.3550326e-01	
   8.9870000e+01	   8.7377124e-02	  -3.4182954e-01	
   8.9925000e+01	   8.6969590e-02	  -3.4831810e-01	
   8.9980000e+01	   8.5681766e-02	  -3.5492481e-01	
   9.0035000e+01	   8.3326798e-02	  -3.6162488e-01	
   9.0090000e+01	   7.9699350e-02	  -3.6841548e-01	
   9.0145000e+01	   7.4589793e-02	  -3.7531398e-01	
   9.0200000e+01	   6.7805835e-02	  -3.8235205e-01	
   9.0255000e+01	   5.9195068e-02	  -3.8956690e-01	
   9.0310000e+01	   4.8661039e-02	  -3.9699287e-01	
   9.0365000e+01	   3.6169637e-02	  -4.0465492e-01	
   9.0420000e+01	   2.1747240e-02	  -4.1256431e-01	
   9.0475000e+01	   5.4733548e-03	  -4.2071635e-01	
   9.0530000e+01	  -1.2529901e-02	  -4.2909045e-01	
   9.0585000e+01	  -3.2109501e-02	  -4.3765243e-01	
   9.0640000e+01	  -5.3093295e-02	  -4.4635871e-01	
   9.0695000e+01	  -7.5301347e-02	  -4.5516149e-01	
   9.0750000e+01	  -9.8555508e-02	  -4.6401314e-01	
   9.0805000e+01	  -1.2268498e-01	  -4.7286835e-01	
   9.0860000e+01	  -1.4752625e-01	  -4.8168317e-01	
   9.0915000e+01	  -1.7291760e-01	  -4.9041154e-01	
   9.0970000e+01	  -1.9868998e-01	  -4.9900026e-01	
   9.1025000e+01	  -2.2465734e-01	  -5.0738496e-01	
   9.1080000e+01	  -2.5061016e-01	  -5.1548890e-01	
   9.1135000e+01	  -2.7631468e-01	  -5.2322514e-01	
   9.1190000e+01	  -3.0151851e-01	  -5.3050186e-01	
   9.1245000e+01	  -3.2596160e-01	  -5.3723037e-01	
   9.1300000e+01	  -3.4938957e-01	  -5.4333492e-01	
   9.1355000e+01	  -3.7156574e-01	  -5.4876113e-01	
   9.1410000e+01	  -3.9227928e-01	  -5.5347987e-01	
   9.1465000e+01	  -4.1134747e-01	  -5.5748468e-01	
   9.1520000e+01	  -4.2861179e-01	  -5.6078331e-01	
   9.1575000e+01	  -4.4393028e-01	  -5.6338602e-01	
   9.1630000e+01	  -4.5717096e-01	  -5.6529453e-01	
   9.1685000e+01	  -4.6820888e-01	  -5.6649477e-01	
   9.1740000e+01	  -4.7692705e-01	  -5.6695469e-01	
   9.1795000e+01	  -4.8322111e-01	  -5.6662699e-01	
   9.1850000e+01	  -4.8700880e-01	  -5.6545656e-01	
   9.1905000e+01	  -4.8824467e-01	  -5.6339157e-01	
   9.1960000e+01	  -4.8693843e-01	  -5.6039690e-01	
   9.2015000e+01	  -4.8317403e-01	  -5.5646790e-01	
   9.2070000e+01	  -4.7712421e-01	  -5.5164160e-01	
   9.2125000e+01	  -4.6905481e-01	  -5.4600120e-01	
   9.2180000e+01	  -4.5931628e-01	  -5.3967159e-01	
   9.2235000e+01	  -4.4832476e-01	  -5.3280770e-01	
   9.2290000e+01	  -4.3653740e-01	  -5.2557961e-01	
   9.2345000e+01	  -4.2442655e-01	  -5.1815818e-01	
   9.2400000e+01	  -4.1245672e-01	  -5.1070395e-01	
   9.2455000e+01	  -4.0106793e-01	  -5.0336073e-01	
   9.2510000e+01	  -3.9066763e-01	  -4.9625411e-01	
   9.2565000e+01	  -3.8163043e-01	  -4.8949462e-01	
   9.2620000e+01	  -3.7430277e-01	  -4.8318432e-01	
   9.2675000e+01	  -3.6900853e-01	  -4.7742489e-01	
   9.2730000e+01	  -3.6605187e-01	  -4.7232361e-01	
   9.2785000e+01	  -3.6571457e-01	  -4.6799402e-01	
   9.2840000e+01	  -3.6824559e-01	  -4.6454928e-01	
   9.2895000e+01	  -3.7384211e-01	  -4.6208842e-01	
   9.2950000e+01	  -3.8262470e-01	  -4.6067874e-01	
   9.3005000e+01	  -3.9461339e-01	  -4.6034024e-01	
   9.3060000e+01	  -4.0971138e-01	  -4.6103725e-01	
   9.3115000e+01	  -4.2769950e-01	  -4.6267881e-01	
   9.3170000e+01	  -4.4824208e-01	  -4.6512650e-01	
   9.3225000e+01	  -4.7090448e-01	  -4.6820761e-01	
   9.3280000e+01	  -4.9518057e-01	  -4.7173193e-01	
   9.3335000e+01	  -5.2052642e-01	  -4.7550946e-01	
   9.3390000e+01	  -5.4639453e-01	  -4.7936651e-01	
   9.3445000e+01	  -5.7226278e-01	  -4.8315828e-01	
   9.3500000e+01	  -5.9765396e-01	  -4.8677591e-01	
   9.3555000e+01	  -6.2214498e-01	  -4.9014670e-01	
   9.3610000e+01	  -6.4536870e-01	  -4.9322816e-01	
   9.3665000e+01	  -6.6701205e-01	  -4.9599874e-01	
   9.3720000e+01	  -6.8681421e-01	  -4.9844857e-01	
   9.3775000e+01	  -7.0456705e-01	  -5.0057252e-01	
   9.3830000e+01	  -7.2011865e-01	  -5.0236654e-01	
   9.3885000e+01	  -7.3337905e-01	  -5.0382700e-01	
   9.3940000e+01	  -7.4432656e-01	  -5.0495244e-01	
   9.3995000e+01	  -7.5301306e-01	  -5.0574719e-01	
   9.4050000e+01	  -7.5956642e-01	  -5.0622576e-01	
   9.4105000e+01	  -7.6418728e-01	  -5.0641596e-01	
   9.4160000e+01	  -7.6713801e-01	  -5.0635828e-01	
   9.4215000e+01	  -7.6872351e-01	  -5.0610058e-01	
   9.4270000e+01	  -7.6926632e-01	  -5.0568938e-01	
   9.4325000e+01	  -7.6908057e-01	  -5.0516091e-01	
   9.4380000e+01	  -7.6844876e-01	  -5.0453498e-01	
   9.4435000e+01	  -7.6760488e-01	  -5.0381257e-01	
   9.4490000e+01	  -7.6672544e-01	  -5.0297706e-01	
   9.4545000e+01	  -7.6592889e-01	  -5.0199830e-01	
   9.4600000e+01	  -7.6528288e-01	  -5.0083916e-01	
   9.4655000e+01	  -7.6481517e-01	  -4.9946254e-01	
   9.4710000e+01	  -7.6452291e-01	  -4.9783654e-01	
   9.4765000e+01	  -7.6437676e-01	  -4.9593566e-01	
   9.4820000e+01	  -7.6431928e-01	  -4.9373758e-01	
   9.4875000e+01	  -7.6425920e-01	  -4.9121668e-01	
   9.4930000e+01	  -7.6406539e-01	  -4.8833811e-01	
   9.4985000e+01	  -7.6356582e-01	  -4.8505522e-01	
   9.5040000e+01	  -7.6255376e-01	  -4.8131057e-01	
   9.5095000e+01	  -7.6079909e-01	  -4.7703843e-01	
   9.5150000e+01	  -7.5806313e-01	  -4.7216848e-01	
   9.5205000e+01	  -7.5411712e-01	  -4.6663147e-01	
   9.5260000e+01	  -7.4876367e-01	  -4.6036697e-01	
   9.5315000e+01	  -7.4185887e-01	  -4.5333224e-01	
   9.5370000e+01	  -7.3333027e-01	  -4.4550936e-01	
   9.5425000e+01	  -7.2318533e-01	  -4.3690775e-01	
   9.5480000e+01	  -7.1150679e-01	  -4.2756050e-01	
   9.5535000e+01	  -6.9843657e-01	  -4.1751621e-01	
   9.5590000e+01	  -6.8415395e-01	  -4.0682976e-01	
   9.5645000e+01	  -6.6885392e-01	  -3.9555508e-01	
   9.5700000e+01	  -6.5272947e-01	  -3.8374173e-01	
   9.5755000e+01	  -6.3596021e-01	  -3.7143575e-01	
   9.5810000e+01	  -6.1870804e-01	  -3.5868331e-01	
   9.5865000e+01	  -6.0111932e-01	  -3.4553573e-01	
   9.5920000e+01	  -5.8333216e-01	  -3.3205486e-01	
   9.5975000e+01	  -5.6548724e-01	  -3.1831773e-01	
   9.6030000e+01	  -5.4773987e-01	  -3.0441811e-01	
   9.6085000e+01	  -5.3026914e-01	  -2.9046281e-01	
   9.6140000e+01	  -5.1328048e-01	  -2.7656271e-01	
   9.6195000e+01	  -4.9700051e-01	  -2.6282077e-01	
   9.6250000e+01	  -4.8166605e-01	  -2.4932050e-01	
   9.6305000e+01	  -4.6751182e-01	  -2.3611740e-01	
   9.6360000e+01	  -4.5476193e-01	  -2.2323532e-01	
   9.6415000e+01	  -4.4362721e-01	  -2.1066783e-01	
   9.6470000e+01	  -4.3430684e-01	  -1.9838414e-01	
   9.6525000e+01	  -4.2699115e-01	  -1.8633826e-01	
   9.6580000e+01	  -4.2186339e-01	  -1.7447986e-01	
   9.6635000e+01	  -4.1909882e-01	  -1.6276557e-01	
   9.6690000e+01	  -4.1885972e-01	  -1.5116890e-01	
   9.6745000e+01	  -4.2128596e-01	  -1.3968675e-01	
   9.6800000e+01	  -4.2648138e-01	  -1.2834019e-01	
   9.6855000e+01	  -4.3449723e-01	  -1.1716934e-01	
   9.6910000e+01	  -4.4531631e-01	  -1.0622490e-01	
   9.6965000e+01	  -4.5884306e-01	  -9.5559764e-02	
   9.7020000e+01	  -4.7490319e-01	  -8.5223390e-02	
   9.7075000e+01	  -4.9325282e-01	  -7.5259639e-02	
   9.7130000e+01	  -5.1359486e-01	  -6.5708474e-02	
   9.7185000e+01	  -5.3559977e-01	  -5.6610791e-02	
   9.7240000e+01	  -5.5892758e-01	  -4.8015195e-02	
   9.7295000e+01	  -5.8324747e-01	  -3.9984840e-02	
   9.7350000e+01	  -6.0825176e-01	  -3.2601910e-02	
   9.7405000e+01	  -6.3366174e-01	  -2.5967136e-02	
   9.7460000e+01	  -6.5922441e-01	  -2.0192962e-02	
   9.7515000e+01	  -6.8470222e-01	  -1.5391711e-02	
   9.7570000e+01	  -7.0986150e-01	  -1.1662555e-02	
   9.7625000e+01	  -7.3446631e-01	  -9.0811426e-03	
   9.7680000e+01	  -7.5828075e-01	  -7.6938861e-03	
   9.7735000e+01	  -7.8107923e-01	  -7.5169681e-03	
   9.7790000e+01	  -8.0266202e-01	  -8.5392136e-03	
   9.7845000e+01	  -8.2287295e-01	  -1.0727798e-02	
   9.7900000e+01	  -8.4161464e-01	  -1.4035441e-02	
   9.7955000e+01	  -8.5885648e-01	  -1.8407113e-02	
   9.8010000e+01	  -8.7463244e-01	  -2.3784292e-02	
   9.8065000e+01	  -8.8902965e-01	  -3.0105500e-02	
   9.8120000e+01	  -9.0217133e-01	  -3.7302925e-02	
   9.8175000e+01	  -9.1420016e-01	  -4.5296373e-02	
   9.8230000e+01	  -9.2526647e-01	  -5.3987124e-02	
   9.8285000e+01	  -9.3552239e-01	  -6.3254554e-02	
   9.8340000e+01	  -9.4512074e-01	  -7.2957331e-02	
   9.8395000e+01	  -9.5421628e-01	  -8.2938896e-02	
   9.8450000e+01	  -9.6296761e-01	  -9.3035094e-02	
   9.8505000e+01	  -9.7153872e-01	  -1.0308209e-01	
   9.8560000e+01	  -9.8009936e-01	  -1.1292370e-01	
   9.8615000e+01	  -9.8882344e-01	  -1.2241735e-01	
   9.8670000e+01	  -9.9788373e-01	  -1.3143737e-01	
   9.8725000e+01	  -1.0074421e+00	  -1.3987535e-01	
   9.8780000e+01	  -1.0176354e+00	  -1.4763842e-01	
   9.8835000e+01	  -1.0285603e+00	  -1.5464716e-01	
   9.8890000e+01	  -1.0402603e+00	  -1.6083374e-01	
   9.8945000e+01	  -1.0527186e+00	  -1.6614096e-01	
   9.9000000e+01	  -1.0658571e+00	  -1.7052182e-01	
   9.9055000e+01	  -1.0795408e+00	  -1.7393990e-01	
   9.9110000e+01	  -1.0935838e+00	  -1.7637098e-01	
   9.9165000e+01	  -1.1077595e+00	  -1.7780566e-01	
   9.9220000e+01	  -1.1218096e+00	  -1.7825093e-01	
   9.9275000e+01	  -1.1354490e+00	  -1.7772766e-01	
   9.9330000e+01	  -1.1483648e+00	  -1.7626399e-01	
   9.9385000e+01	  -1.1602142e+00	  -1.7388688e-01	
   9.9440000e+01	  -1.1706263e+00	  -1.7061499e-01	
   9.9495000e+01	  -1.1792080e+00	  -1.6645396e-01	
   9.9550000e+01	  -1.1855560e+00	  -1.6139433e-01	
   9.9605000e+01	  -1.1892747e+00	  -1.5541214e-01	
   9.9660000e+01	  -1.1899991e+00	  -1.4847308e-01	
   9.9715000e+01	  -1.1874200e+00	  -1.4054039e-01	
   9.9770000e+01	  -1.1813079e+00	  -1.3158450e-01	
   9.9825000e+01	  -1.1715280e+00	  -1.2159115e-01	
   9.9880000e+01	  -1.1580419e+00	  -1.1056445e-01	
   9.9935000e+01	  -1.1408942e+00	  -9.8524485e-02	
   9.9990000e+01	  -1.1201926e+00	  -8.5501037e-02	
   1.0004500e+02	  -1.0960887e+00	  -7.1527002e-02	
   1.0010000e+02	  -1.0687693e+00	  -5.6634091e-02	
   1.0015500e+02	  -1.0384543e+00	  -4.0852277e-02	
   1.0021000e+02	  -1.0054011e+00	  -2.4212806e-02	
   1.0026500e+02	  -9.6990909e-01	  -6.7535844e-03	
   1.0032000e+02	  -9.3232255e-01	   1.1474619e-02	
   1.0037500e+02	  -8.9303139e-01	   3.0402721e-02	
   1.0043000e+02	  -8.5246588e-01	   4.9940051e-02	
   1.0048500e+02	  -8.1108412e-01	   6.9974242e-02	
   1.0054000e+02	  -7.6935428e-01	   9.0374214e-02	
   1.0059500e+02	  -7.2773632e-01	   1.1099505e-01	
   1.0065000e+02	  -6.8666608e-01	   1.3168334e-01	
   1.0070500e+02	  -6.4654243e-01	   1.5228184e-01	
   1.0076000e+02	  -6.0771935e-01	   1.7263198e-01	
   1.0081500e+02	  -5.7050485e-01	   1.9257389e-01	
   1.0087000e+02	  -5.3516615e-01	   2.1194499e-01	
   1.0092500e+02	  -5.0193802e-01	   2.3057929e-01	
   1.0098000e+02	  -4.7102980e-01	   2.4830856e-01	
   1.0103500e+02	  -4.4262573e-01	   2.6496614e-01	
   1.0109000e+02	  -4.1687525e-01	   2.8039408e-01	
   1.0114500e+02	  -3.9387534e-01	   2.9445307e-01	
   1.0120000e+02	  -3.7365240e-01	   3.0703236e-01	
   1.0125500e+02	  -3.5615040e-01	   3.1805663e-01	
   1.0131000e+02	  -3.4122775e-01	   3.2748861e-01	
   1.0136500e+02	  -3.2866355e-01	   3.3532782e-01	
   1.0142000e+02	  -3.1817281e-01	   3.4160615e-01	
   1.0147500e+02	  -3.0942911e-01	   3.4638088e-01	
   1.0153000e+02	  -3.0209150e-01	   3.4972634e-01	
   1.0158500e+02	  -2.9583255e-01	   3.5172569e-01	
   1.0164000e+02	  -2.9036292e-01	   3.5246371e-01	
   1.0169500e+02	  -2.8544688e-01	   3.5202206e-01	
   1.0175000e+02	  -2.8090457e-01	   3.5047768e-01	
   1.0180500e+02	  -2.7660263e-01	   3.4790371e-01	
   1.0186000e+02	  -2.7243986e-01	   3.4437107e-01	
   1.0191500e+02	  -2.6833566e-01	   3.3994959e-01	
   1.0197000e+02	  -2.6422519e-01	   3.3470849e-01	
   1.0202500e+02	  -2.6006121e-01	   3.2871582e-01	
   1.0208000e+02	  -2.5582109e-01	   3.2203644e-01	
   1.0213500e+02	  -2.5151722e-01	   3.1472864e-01	
   1.0219000e+02	  -2.4720819e-01	   3.0684029e-01	
   1.0224500e+02	  -2.4300738e-01	   2.9840598e-01	
   1.0230000e+02	  -2.3908504e-01	   2.8944646e-01	
   1.0235500e+02	  -2.3566212e-01	   2.7997120e-01	
   1.0241000e+02	  -2.3299586e-01	   2.6998372e-01	
   1.0246500e+02	  -2.3135893e-01	   2.5948831e-01	
   1.0252000e+02	  -2.3101511e-01	   2.4849631e-01	
   1.0257500e+02	  -2.3219615e-01	   2.3703106e-01	
   1.0263000e+02	  -2.3508359e-01	   2.2513144e-01	
   1.0268500e+02	  -2.3979684e-01	   2.1285400e-01	
   1.0274000e+02	  -2.4638685e-01	   2.0027316e-01	
   1.0279500e+02	  -2.5483473e-01	   1.8747830e-01	
   1.0285000e+02	  -2.6505411e-01	   1.7456797e-01	
   1.0290500e+02	  -2.7689524e-01	   1.6164295e-01	
   1.0296000e+02	  -2.9014840e-01	   1.4880136e-01	
   1.0301500e+02	  -3.0454532e-01	   1.3613724e-01	
   1.0307000e+02	  -3.1976023e-01	   1.2374226e-01	
   1.0312500e+02	  -3.3541368e-01	   1.1170888e-01	
   1.0318000e+02	  -3.5108199e-01	   1.0013332e-01	
   1.0323500e+02	  -3.6631217e-01	   8.9116932e-02	
   1.0329000e+02	  -3.8063979e-01	   7.8765076e-02	
   1.0334500e+02	  -3.9360662e-01	   6.9183193e-02	
   1.0340000e+02	  -4.0477735e-01	   6.0470720e-02	
   1.0345500e+02	  -4.1375738e-01	   5.2713520e-02	
   1.0351000e+02	  -4.2021161e-01	   4.5976133e-02	
   1.0356500e+02	  -4.2388011e-01	   4.0296043e-02	
   1.0362000e+02	  -4.2458577e-01	   3.5682027e-02	
   1.0367500e+02	  -4.2223302e-01	   3.2117362e-02	
   1.0373000e+02	  -4.1680036e-01	   2.9567055e-02	
   1.0378500e+02	  -4.0833058e-01	   2.7986705e-02	
   1.0384000e+02	  -3.9692134e-01	   2.7329927e-02	
   1.0389500e+02	  -3.8271734e-01	   2.7552030e-02	
   1.0395000e+02	  -3.6590460e-01	   2.8609662e-02	
   1.0400500e+02	  -3.4670808e-01	   3.0457535e-02	
   1.0406000e+02	  -3.2539447e-01	   3.3043552e-02	
   1.0411500e+02	  -3.0227908e-01	   3.6303618e-02	
   1.0417000e+02	  -2.7773167e-01	   4.0157791e-02	
   1.0422500e+02	  -2.5217468e-01	   4.4509308e-02	
   1.0428000e+02	  -2.2607042e-01	   4.9247228e-02	
   1.0433500e+02	  -1.9989812e-01	   5.4252579e-02	
   1.0439000e+02	  -1.7412523e-01	   5.9406434e-02	
   1.0444500e+02	  -1.4918007e-01	   6.4596954e-02	
   1.0450000e+02	  -1.2543099e-01	   6.9722954e-02	
   1.0455500e+02	  -1.0317348e-01	   7.4693981e-02	
   1.0461000e+02	  -8.2624891e-02	   7.9427972e-02	
   1.0466500e+02	  -6.3928427e-02	   8.3846307e-02	
   1.0472000e+02	  -4.7167354e-02	   8.7865620e-02	
   1.0477500e+02	  -3.2385587e-02	   9.1387900e-02	
   1.0483000e+02	  -1.9607060e-02	   9.4292493e-02	
   1.0488500e+02	  -8.8476652e-03	   9.6433336e-02	
   1.0494000e+02	  -1.1765981e-04	   9.7643462e-02	
   1.0499500e+02	   6.5844716e-03	   9.7747070e-02	
   1.0505000e+02	   1.1282619e-02	   9.6576812e-02	
   1.0510500e+02	   1.4031805e-02	   9.3991771e-02	
   1.0516000e+02	   1.4920742e-02	   8.9892231e-02	
   1.0521500e+02	   1.4067894e-02	   8.4229264e-02	
   1.0527000e+02	   1.1612551e-02	   7.7008170e-02	
   1.0532500e+02	   7.7021324e-03	   6.8285715e-02	
   1.0538000e+02	   2.4766749e-03	   5.8162421e-02	
   1.0543500e+02	  -3.9480879e-03	   4.6771591e-02	
   1.0549000e+02	  -1.1496416e-02	   3.4266351e-02	
   1.0554500e+02	  -2.0142913e-02	   2.0806592e-02	
   1.0560000e+02	  -2.9912872e-02	   6.5491182e-03	
   1.0565500e+02	  -4.0870246e-02	  -8.3559367e-03	
   1.0571000e+02	  -5.3095709e-02	  -2.3762714e-02	
   1.0576500e+02	  -6.6660289e-02	  -3.9525040e-02	
   1.0582000e+02	  -8.1598914e-02	  -5.5493203e-02	
   1.0587500e+02	  -9.7887206e-02	  -7.1513141e-02	
   1.0593000e+02	  -1.1542629e-01	  -8.7428052e-02	
   1.0598500e+02	  -1.3403981e-01	  -1.0308275e-01	
   1.0604000e+02	  -1.5348327e-01	  -1.1833041e-01	
   1.0609500e+02	  -1.7346248e-01	  -1.3304042e-01	
   1.0615000e+02	  -1.9365742e-01	  -1.4710591e-01	
   1.0620500e+02	  -2.1374701e-01	  -1.6044926e-01	
   1.0626000e+02	  -2.3342971e-01	  -1.7302348e-01	
   1.0631500e+02	  -2.5243662e-01	  -1.8480784e-01	
   1.0637000e+02	  -2.7053642e-01	  -1.9579915e-01	
   1.0642500e+02	  -2.8753311e-01	  -2.0600169e-01	
   1.0648000e+02	  -3.0325983e-01	  -2.1541892e-01	
   1.0653500e+02	  -3.1757349e-01	  -2.2404827e-01	
   1.0659000e+02	  -3.3035451e-01	  -2.3187945e-01	
   1.0664500e+02	  -3.4151265e-01	  -2.3889608e-01	
   1.0670000e+02	  -3.5099682e-01	  -2.4508062e-01	
   1.0675500e+02	  -3.5880576e-01	  -2.5042083e-01	
   1.0681000e+02	  -3.6499595e-01	  -2.5491562e-01	
   1.0686500e+02	  -3.6968289e-01	  -2.5857749e-01	
   1.0692000e+02	  -3.7303383e-01	  -2.6143036e-01	
   1.0697500e+02	  -3.7525327e-01	  -2.6350317e-01	
   1.0703000e+02	  -3.7656527e-01	  -2.6482181e-01	
   1.0708500e+02	  -3.7719662e-01	  -2.6540230e-01	
   1.0714000e+02	  -3.7736381e-01	  -2.6524718e-01	
   1.0719500e+02	  -3.7726437e-01	  -2.6434538e-01	
   1.0725000e+02	  -3.7707207e-01	  -2.6267500e-01	
   1.0730500e+02	  -3.7693488e-01	  -2.6020901e-01	
   1.0736000e+02	  -3.7697609e-01	  -2.5692364e-01	
   1.0741500e+02	  -3.7729844e-01	  -2.5280923e-01	
   1.0747000e+02	  -3.7798973e-01	  -2.4788155e-01	
   1.0752500e+02	  -3.7912613e-01	  -2.4219051e-01	
   1.0758000e+02	  -3.8077078e-01	  -2.3582219e-01	
   1.0763500e+02	  -3.8296698e-01	  -2.2889174e-01	
   1.0769000e+02	  -3.8572604e-01	  -2.2152774e-01	
   1.0774500e+02	  -3.8901136e-01	  -2.1385275e-01	
   1.0780000e+02	  -3.9272462e-01	  -2.0596644e-01	
   1.0785500e+02	  -3.9670075e-01	  -1.9793600e-01	
   1.0791000e+02	  -4.0071455e-01	  -1.8979486e-01	
   1.0796500e+02	  -4.0449764e-01	  -1.8154789e-01	
   1.0802000e+02	  -4.0776308e-01	  -1.7318087e-01	
   1.0807500e+02	  -4.1023481e-01	  -1.6467254e-01	
   1.0813000e+02	  -4.1167868e-01	  -1.5600750e-01	
   1.0818500e+02	  -4.1193038e-01	  -1.4718892e-01	
   1.0824000e+02	  -4.1091521e-01	  -1.3824972e-01	
   1.0829500e+02	  -4.0865449e-01	  -1.2925945e-01	
   1.0835000e+02	  -4.0525436e-01	  -1.2032359e-01	
   1.0840500e+02	  -4.0087812e-01	  -1.1157378e-01	
   1.0846000e+02	  -3.9571142e-01	  -1.0315190e-01	
   1.0851500e+02	  -3.8993167e-01	  -9.5192323e-02	
   1.0857000e+02	  -3.8368805e-01	  -8.7806048e-02	
   1.0862500e+02	  -3.7709258e-01	  -8.1069564e-02	
   1.0868000e+02	  -3.7022095e-01	  -7.5020673e-02	
   1.0873500e+02	  -3.6312142e-01	  -6.9661695e-02	
   1.0879000e+02	  -3.5582848e-01	  -6.4968269e-02	
   1.0884500e+02	  -3.4837775e-01	  -6.0901166e-02	
   1.0890000e+02	  -3.4081998e-01	  -5.7419077e-02	
   1.0895500e+02	  -3.3323211e-01	  -5.4490439e-02	
   1.0901000e+02	  -3.2572089e-01	  -5.2101479e-02	
   1.0906500e+02	  -3.1841551e-01	  -5.0257711e-02	
   1.0912000e+02	  -3.1145124e-01	  -4.8978174e-02	
   1.0917500e+02	  -3.0495102e-01	  -4.8284662e-02	
   1.0923000e+02	  -2.9901090e-01	  -4.8189932e-02	
   1.0928500e+02	  -2.9369144e-01	  -4.8688325e-02	
   1.0934000e+02	  -2.8901503e-01	  -4.9750724e-02	
   1.0939500e+02	  -2.8496814e-01	  -5.1324585e-02	
   1.0945000e+02	  -2.8150811e-01	  -5.3339059e-02	
   1.0950500e+02	  -2.7857374e-01	  -5.5714426e-02	
   1.0956000e+02	  -2.7609922e-01	  -5.8373848e-02	
   1.0961500e+02	  -2.7402915e-01	  -6.1254605e-02	
   1.0967000e+02	  -2.7233217e-01	  -6.4316388e-02	
   1.0972500e+02	  -2.7101078e-01	  -6.7545174e-02	
   1.0978000e+02	  -2.7010406e-01	  -7.0951306e-02	
   1.0983500e+02	  -2.6968174e-01	  -7.4560768e-02	
   1.0989000e+02	  -2.6983191e-01	  -7.8401401e-02	
   1.0994500e+02	  -2.7064865e-01	  -8.2488586e-02	
   1.1000000e+02	  -2.7222307e-01	  -8.6814600e-02	
   1.1005500e+02	  -2.7463736e-01	  -9.1343319e-02	
   1.1011000e+02	  -2.7796002e-01	  -9.6010036e-02	
   1.1016500e+02	  -2.8224216e-01	  -1.0072540e-01	
   1.1022000e+02	  -2.8751419e-01	  -1.0538201e-01	
   1.1027500e+02	  -2.9378197e-01	  -1.0986206e-01	
   1.1033000e+02	  -3.0102214e-01	  -1.1404537e-01	
   1.1038500e+02	  -3.0917676e-01	  -1.1781665e-01	
   1.1044000e+02	  -3.1814676e-01	  -1.2107032e-01	
   1.1049500e+02	  -3.2778435e-01	  -1.2371112e-01	
   1.1055000e+02	  -3.3788567e-01	  -1.2565011e-01	
   1.1060500e+02	  -3.4818632e-01	  -1.2679844e-01	
   1.1066000e+02	  -3.5836251e-01	  -1.2706140e-01	
   1.1071500e+02	  -3.6803982e-01	  -1.2633517e-01	
   1.1077000e+02	  -3.7681055e-01	  -1.2450772e-01	
   1.1082500e+02	  -3.8425909e-01	  -1.2146498e-01	
   1.1088000e+02	  -3.8999282e-01	  -1.1710248e-01	
   1.1093500e+02	  -3.9367418e-01	  -1.1134098e-01	
   1.1099000e+02	  -3.9504912e-01	  -1.0414286e-01	
   1.1104500e+02	  -3.9396891e-01	  -9.5525148e-02	
   1.1110000e+02	  -3.9040162e-01	  -8.5565567e-02	
   1.1115500e+02	  -3.8442924e-01	  -7.4399163e-02	
   1.1121000e+02	  -3.7622867e-01	  -6.2206524e-02	
   1.1126500e+02	  -3.6604130e-01	  -4.9197297e-02	
   1.1132000e+02	  -3.5413901e-01	  -3.5593483e-02	
   1.1137500e+02	  -3.4079335e-01	  -2.1615240e-02	
   1.1143000e+02	  -3.2625244e-01	  -7.4699795e-03	
   1.1148500e+02	  -3.1072816e-01	   6.6553828e-03	
   1.1154000e+02	  -2.9439389e-01	   2.0599299e-02	
   1.1159500e+02	  -2.7739113e-01	   3.4226920e-02	
   1.1165000e+02	  -2.5984269e-01	   4.7426813e-02	
   1.1170500e+02	  -2.4186864e-01	   6.0103603e-02	
   1.1176000e+02	  -2.2360101e-01	   7.2168991e-02	
   1.1181500e+02	  -2.0519332e-01	   8.3533956e-02	
   1.1187000e+02	  -1.8682262e-01	   9.4104524e-02	
   1.1192500e+02	  -1.6868291e-01	   1.0378357e-01	
   1.1198000e+02	  -1.5097114e-01	   1.1247968e-01	
   1.1203500e+02	  -1.3387087e-01	   1.2012071e-01	
   1.1209000e+02	  -1.1753892e-01	   1.2666794e-01	
   1.1214500e+02	  -1.0209776e-01	   1.3212695e-01	
   1.1220000e+02	  -8.7634573e-02	   1.3655305e-01	
   1.1225500e+02	  -7.4207231e-02	   1.4004966e-01	
   1.1231000e+02	  -6.1855824e-02	   1.4275978e-01	
   1.1236500e+02	  -5.0616097e-02	   1.4485210e-01	
   1.1242000e+02	  -4.0531467e-02	   1.4650365e-01	
   1.1247500e+02	  -3.1662493e-02	   1.4788128e-01	
   1.1253000e+02	  -2.4092916e-02	   1.4912469e-01	
   1.1258500e+02	  -1.7929489e-02	   1.5033519e-01	
   1.1264000e+02	  -1.3292812e-02	   1.5157319e-01	
   1.1269500e+02	  -1.0300199e-02	   1.5286417e-01	
   1.1275000e+02	  -9.0456695e-03	   1.5421061e-01	
   1.1280500e+02	  -9.5824318e-03	   1.5560594e-01	
   1.1286000e+02	  -1.1910676e-02	   1.5704728e-01	
   1.1291500e+02	  -1.5971742e-02	   1.5854356e-01	
   1.1297000e+02	  -2.1648768e-02	   1.6011765e-01	
   1.1302500e+02	  -2.8772617e-02	   1.6180316e-01	
   1.1308000e+02	  -3.7131598e-02	   1.6363796e-01	
   1.1313500e+02	  -4.6484114e-02	   1.6565593e-01	
   1.1319000e+02	  -5.6572846e-02	   1.6787861e-01	
   1.1324500e+02	  -6.7137532e-02	   1.7030909e-01	
   1.1330000e+02	  -7.7923147e-02	   1.7293076e-01	
   1.1335500e+02	  -8.8681994e-02	   1.7571280e-01	
   1.1341000e+02	  -9.9171321e-02	   1.7862094e-01	
   1.1346500e+02	  -1.0915029e-01	   1.8162950e-01	
   1.1352000e+02	  -1.1837938e-01	   1.8473020e-01	
   1.1357500e+02	  -1.2662311e-01	   1.8793575e-01	
   1.1363000e+02	  -1.3365518e-01	   1.9127844e-01	
   1.1368500e+02	  -1.3926545e-01	   1.9480548e-01	
   1.1374000e+02	  -1.4326881e-01	   1.9857208e-01	
   1.1379500e+02	  -1.4551601e-01	   2.0263319e-01	
   1.1385000e+02	  -1.4590487e-01	   2.0703503e-01	
   1.1390500e+02	  -1.4438884e-01	   2.1180813e-01	
   1.1396000e+02	  -1.4098058e-01	   2.1696383e-01	
   1.1401500e+02	  -1.3574987e-01	   2.2249618e-01	
   1.1407000e+02	  -1.2881599e-01	   2.2838889e-01	
   1.1412500e+02	  -1.2033455e-01	   2.3462464e-01	
   1.1418000e+02	  -1.1048015e-01	   2.4119336e-01	
   1.1423500e+02	  -9.9427828e-02	   2.4809780e-01	
   1.1429000e+02	  -8.7338497e-02	   2.5535583e-01	
   1.1434500e+02	  -7.4352852e-02	   2.6299809e-01	
   1.1440000e+02	  -6.0594799e-02	   2.7106027e-01	
   1.1445500e+02	  -4.6181129e-02	   2.7957170e-01	
   1.1451000e+02	  -3.1231660e-02	   2.8854459e-01	
   1.1456500e+02	  -1.5874203e-02	   2.9796804e-01	
   1.1462000e+02	  -2.4076045e-04	   3.0780932e-01	
   1.1467500e+02	   1.5544705e-02	   3.1802169e-01	
   1.1473000e+02	   3.1382440e-02	   3.2855592e-01	
   1.1478500e+02	   4.7211019e-02	   3.3937128e-01	
   1.1484000e+02	   6.3015492e-02	   3.5044255e-01	
   1.1489500e+02	   7.8828530e-02	   3.6176143e-01	
   1.1495000e+02	   9.4724686e-02	   3.7333304e-01	
   1.1500500e+02	   1.1080752e-01	   3.8516801e-01	
   1.1506000e+02	   1.2719001e-01	   3.9727147e-01	
   1.1511500e+02	   1.4397123e-01	   4.0963127e-01	
   1.1517000e+02	   1.6121447e-01	   4.2220956e-01	
   1.1522500e+02	   1.7893161e-01	   4.3494000e-01	
   1.1528000e+02	   1.9707734e-01	   4.4773139e-01	
   1.1533500e+02	   2.1555690e-01	   4.6047783e-01	
   1.1539000e+02	   2.3424732e-01	   4.7307364e-01	
   1.1544500e+02	   2.5302480e-01	   4.8542807e-01	
   1.1550000e+02	   2.7178837e-01	   4.9747505e-01	
   1.1555500e+02	   2.9047385e-01	   5.0917701e-01	
   1.1561000e+02	   3.0905684e-01	   5.2052482e-01	
   1.1566500e+02	   3.2754529e-01	   5.3153462e-01	
   1.1572000e+02	   3.4596414e-01	   5.4224063e-01	
   1.1577500e+02	   3.6433704e-01	   5.5268387e-01	
   1.1583000e+02	   3.8266894e-01	   5.6289796e-01	
   1.1588500e+02	   4.0093087e-01	   5.7289523e-01	
   1.1594000e+02	   4.1904799e-01	   5.8265594e-01	
   1.1599500e+02	   4.3689480e-01	   5.9212402e-01	
   1.1605000e+02	   4.5430120e-01	   6.0121056e-01	
   1.1610500e+02	   4.7106859e-01	   6.0980449e-01	
   1.1616000e+02	   4.8699127e-01	   6.1778710e-01	
   1.1621500e+02	   5.0187751e-01	   6.2504591e-01	
   1.1627000e+02	   5.1556685e-01	   6.3148518e-01	
   1.1632500e+02	   5.2793990e-01	   6.3703118e-01	
   1.1638000e+02	   5.3891779e-01	   6.4163241e-01	
   1.1643500e+02	   5.4845136e-01	   6.4525542e-01	
   1.1649000e+02	   5.5650503e-01	   6.4787799e-01	
   1.1654500e+02	   5.6304108e-01	   6.4948167e-01	
   1.1660000e+02	   5.6800847e-01	   6.5004662e-01	
   1.1665500e+02	   5.7133843e-01	   6.4955067e-01	
   1.1671000e+02	   5.7294838e-01	   6.4797342e-01	
   1.1676500e+02	   5.7275501e-01	   6.4530443e-01	
   1.1682000e+02	   5.7069390e-01	   6.4155300e-01	
   1.1687500e+02	   5.6673993e-01	   6.3675630e-01	
   1.1693000e+02	   5.6092143e-01	   6.3098234e-01	
   1.1698500e+02	   5.5332354e-01	   6.2432680e-01	
   1.1704000e+02	   5.4408119e-01	   6.1690512e-01	
   1.1709500e+02	   5.3336558e-01	   6.0884257e-01	
   1.1715000e+02	   5.2136824e-01	   6.0026429e-01	
   1.1720500e+02	   5.0828589e-01	   5.9128631e-01	
   1.1726000e+02	   4.9430944e-01	   5.8200841e-01	
   1.1731500e+02	   4.7961902e-01	   5.7250987e-01	
   1.1737000e+02	   4.6438536e-01	   5.6284916e-01	
   1.1742500e+02	   4.4877606e-01	   5.5306862e-01	
   1.1748000e+02	   4.3296451e-01	   5.4320336e-01	
   1.1753500e+02	   4.1713753e-01	   5.3329182e-01	
   1.1759000e+02	   4.0149767e-01	   5.2338456e-01	
   1.1764500e+02	   3.8625826e-01	   5.1354904e-01	
   1.1770000e+02	   3.7163244e-01	   5.0387000e-01	
   1.1775500e+02	   3.5781976e-01	   4.9444646e-01	
   1.1781000e+02	   3.4499379e-01	   4.8538561e-01	
   1.1786500e+02	   3.3329234e-01	   4.7679371e-01	
   1.1792000e+02	   3.2281060e-01	   4.6876606e-01	
   1.1797500e+02	   3.1359745e-01	   4.6137926e-01	
   1.1803000e+02	   3.0565562e-01	   4.5468845e-01	
   1.1808500e+02	   2.9894664e-01	   4.4872977e-01	
   1.1814000e+02	   2.9340077e-01	   4.4352652e-01	
   1.1819500e+02	   2.8893077e-01	   4.3909645e-01	
   1.1825000e+02	   2.8544737e-01	   4.3545782e-01	
   1.1830500e+02	   2.8287422e-01	   4.3263229e-01	
   1.1836000e+02	   2.8116015e-01	   4.3064432e-01	
   1.1841500e+02	   2.8028520e-01	   4.2951741e-01	
   1.1847000e+02	   2.8025773e-01	   4.2926794e-01	
   1.1852500e+02	   2.8110382e-01	   4.2989766e-01	
   1.1858000e+02	   2.8285404e-01	   4.3138644e-01	
   1.1863500e+02	   2.8553230e-01	   4.3368695e-01	
   1.1869000e+02	   2.8915014e-01	   4.3672288e-01	
   1.1874500e+02	   2.9370795e-01	   4.4039190e-01	
   1.1880000e+02	   2.9920250e-01	   4.4457346e-01	
   1.1885500e+02	   3.0563708e-01	   4.4913983e-01	
   1.1891000e+02	   3.1302926e-01	   4.5396711e-01	
   1.1896500e+02	   3.2141350e-01	   4.5894354e-01	
   1.1902000e+02	   3.3083732e-01	   4.6397386e-01	
   1.1907500e+02	   3.4135137e-01	   4.6897949e-01	
   1.1913000e+02	   3.5299510e-01	   4.7389490e-01	
   1.1918500e+02	   3.6578138e-01	   4.7866130e-01	
   1.1924000e+02	   3.7968322e-01	   4.8321936e-01	
   1.1929500e+02	   3.9462361e-01	   4.8750270e-01	
   1.1935000e+02	   4.1046857e-01	   4.9143363e-01	
   1.1940500e+02	   4.2702680e-01	   4.9492325e-01	
   1.1946000e+02	   4.4406113e-01	   4.9787745e-01	
   1.1951500e+02	   4.6131095e-01	   5.0020714e-01	
   1.1957000e+02	   4.7851832e-01	   5.0183853e-01	
   1.1962500e+02	   4.9544881e-01	   5.0272018e-01	
   1.1968000e+02	   5.1190362e-01	   5.0282634e-01	
   1.1973500e+02	   5.2772287e-01	   5.0215647e-01	
   1.1979000e+02	   5.4278129e-01	   5.0073077e-01	
   1.1984500e+02	   5.5697798e-01	   4.9858227e-01	
   1.1990000e+02	   5.7022267e-01	   4.9574732e-01	
   1.1995500e+02	   5.8242088e-01	   4.9225621e-01	
   1.2001000e+02	   5.9346048e-01	   4.8812552e-01	
   1.2006500e+02	   6.0320310e-01	   4.8335438e-01	
   1.2012000e+02	   6.1148338e-01	   4.7792616e-01	
   1.2017500e+02	   6.1811678e-01	   4.7181507e-01	
   1.2023000e+02	   6.2291405e-01	   4.6499594e-01	
   1.2028500e+02	   6.2569890e-01	   4.5745467e-01	
   1.2034000e+02	   6.2632441e-01	   4.4919683e-01	
   1.2039500e+02	   6.2468424e-01	   4.4025231e-01	
   1.2045000e+02	   6.2071826e-01	   4.3067552e-01	
   1.2050500e+02	   6.1441410e-01	   4.2054216e-01	
   1.2056000e+02	   6.0580501e-01	   4.0994397e-01	
   1.2061500e+02	   5.9496225e-01	   3.9898150e-01	
   1.2067000e+02	   5.8198187e-01	   3.8775430e-01	
   1.2072500e+02	   5.6697001e-01	   3.7635014e-01	
   1.2078000e+02	   5.5003256e-01	   3.6483672e-01	
   1.2083500e+02	   5.3127357e-01	   3.5325860e-01	
   1.2089000e+02	   5.1080206e-01	   3.4164049e-01	
   1.2094500e+02	   4.8874374e-01	   3.2999497e-01	
   1.2100000e+02	   4.6525301e-01	   3.1833154e-01	
   1.2105500e+02	   4.4052116e-01	   3.0666384e-01	
   1.2111000e+02	   4.1477897e-01	   2.9501380e-01	
   1.2116500e+02	   3.8829489e-01	   2.8341317e-01	
   1.2122000e+02	   3.6137025e-01	   2.7190355e-01	
   1.2127500e+02	   3.3433028e-01	   2.6053490e-01	
   1.2133000e+02	   3.0751042e-01	   2.4936180e-01	
   1.2138500e+02	   2.8124081e-01	   2.3843820e-01	
   1.2144000e+02	   2.5583282e-01	   2.2781278e-01	
   1.2149500e+02	   2.3157010e-01	   2.1752728e-01	
   1.2155000e+02	   2.0870434e-01	   2.0761872e-01	
   1.2160500e+02	   1.8745470e-01	   1.9812408e-01	
   1.2166000e+02	   1.6800860e-01	   1.8908463e-01	
   1.2171500e+02	   1.5052216e-01	   1.8054796e-01	
   1.2177000e+02	   1.3511980e-01	   1.7256778e-01	
   1.2182500e+02	   1.2189314e-01	   1.6520192e-01	
   1.2188000e+02	   1.1089964e-01	   1.5850883e-01	
   1.2193500e+02	   1.0216130e-01	   1.5254233e-01	
   1.2199000e+02	   9.5663440e-02	   1.4734546e-01	
   1.2204500e+02	   9.1353122e-02	   1.4294532e-01	
   1.2210000e+02	   8.9138502e-02	   1.3935121e-01	
   1.2215500e+02	   8.8891748e-02	   1.3655635e-01	
   1.2221000e+02	   9.0457080e-02	   1.3454249e-01	
   1.2226500e+02	   9.3661808e-02	   1.3328577e-01	
   1.2232000e+02	   9.8326670e-02	   1.3276165e-01	
   1.2237500e+02	   1.0427398e-01	   1.3294709e-01	
   1.2243000e+02	   1.1133440e-01	   1.3381976e-01	
   1.2248500e+02	   1.1935199e-01	   1.3535542e-01	
   1.2254000e+02	   1.2818416e-01	   1.3752393e-01	
   1.2259500e+02	   1.3769381e-01	   1.4028334e-01	
   1.2265000e+02	   1.4773624e-01	   1.4357270e-01	
   1.2270500e+02	   1.5814730e-01	   1.4730590e-01	
   1.2276000e+02	   1.6873884e-01	   1.5136957e-01	
   1.2281500e+02	   1.7930474e-01	   1.5562656e-01	
   1.2287000e+02	   1.8963718e-01	   1.5992535e-01	
   1.2292500e+02	   1.9954734e-01	   1.6411401e-01	
   1.2298000e+02	   2.0888122e-01	   1.6805467e-01	
   1.2303500e+02	   2.1752574e-01	   1.7163508e-01	
   1.2309000e+02	   2.2540673e-01	   1.7477569e-01	
   1.2314500e+02	   2.3248265e-01	   1.7743182e-01	
   1.2320000e+02	   2.3873451e-01	   1.7959038e-01	
   1.2325500e+02	   2.4415253e-01	   1.8126198e-01	
   1.2331000e+02	   2.4872190e-01	   1.8247027e-01	
   1.2336500e+02	   2.5241112e-01	   1.8324097e-01	
   1.2342000e+02	   2.5516505e-01	   1.8359174e-01	
   1.2347500e+02	   2.5690500e-01	   1.8352415e-01	
   1.2353000e+02	   2.5753817e-01	   1.8302038e-01	
   1.2358500e+02	   2.5697575e-01	   1.8204656e-01	
   1.2364000e+02	   2.5515424e-01	   1.8056185e-01	
   1.2369500e+02	   2.5205229e-01	   1.7852946e-01	
   1.2375000e+02	   2.4769830e-01	   1.7592576e-01	
   1.2380500e+02	   2.4216896e-01	   1.7274566e-01	
   1.2386000e+02	   2.3558116e-01	   1.6900398e-01	
   1.2391500e+02	   2.2807952e-01	   1.6473316e-01	
   1.2397000e+02	   2.1982172e-01	   1.5997827e-01	
   1.2402500e+02	   2.1096309e-01	   1.5479034e-01	
   1.2408000e+02	   2.0164174e-01	   1.4921907e-01	
   1.2413500e+02	   1.9196557e-01	   1.4330621e-01	
   1.2419000e+02	   1.8200399e-01	   1.3708159e-01	
   1.2424500e+02	   1.7178574e-01	   1.3056386e-01	
   1.2430000e+02	   1.6130296e-01	   1.2376602e-01	
   1.2435500e+02	   1.5052012e-01	   1.1670370e-01	
   1.2441000e+02	   1.3938664e-01	   1.0940300e-01	
   1.2446500e+02	   1.2785112e-01	   1.0190536e-01	
   1.2452000e+02	   1.1587433e-01	   9.4268187e-02	
   1.2457500e+02	   1.0343839e-01	   8.6561408e-02	
   1.2463000e+02	   9.0552736e-02	   7.8861055e-02	
   1.2468500e+02	   7.7258403e-02	   7.1241558e-02	
   1.2474000e+02	   6.3630165e-02	   6.3768329e-02	
   1.2479500e+02	   4.9776805e-02	   5.6492459e-02	
   1.2485000e+02	   3.5842307e-02	   4.9449081e-02	
   1.2490500e+02	   2.2010030e-02	   4.2659214e-02	
   1.2496000e+02	   8.5069636e-03	   3.6133005e-02	
   1.2501500e+02	  -4.3971200e-03	   2.9872849e-02	
   1.2507000e+02	  -1.6397544e-02	   2.3876755e-02	
   1.2512500e+02	  -2.7168221e-02	   1.8142217e-02	
   1.2518000e+02	  -3.6379390e-02	   1.2669542e-02	
   1.2523500e+02	  -4.3719038e-02	   7.4635571e-03	
   1.2529000e+02	  -4.8916472e-02	   2.5336309e-03	
   1.2534500e+02	  -5.1764597e-02	  -2.1077192e-03	
   1.2540000e+02	  -5.2136500e-02	  -6.4466995e-03	
   1.2545500e+02	  -4.9992635e-02	  -1.0468346e-02	
   1.2551000e+02	  -4.5377387e-02	  -1.4152859e-02	
   1.2556500e+02	  -3.8407565e-02	  -1.7469128e-02	
   1.2562000e+02	  -2.9258358e-02	  -2.0369232e-02	
   1.2567500e+02	  -1.8151100e-02	  -2.2787308e-02	
   1.2573000e+02	  -5.3431644e-03	  -2.4643745e-02	
   1.2578500e+02	   8.8811337e-03	  -2.5853813e-02	
   1.2584000e+02	   2.4217872e-02	  -2.6339331e-02	
   1.2589500e+02	   4.0347766e-02	  -2.6041417e-02	
   1.2595000e+02	   5.6937778e-02	  -2.4932026e-02	
   1.2600500e+02	   7.3641454e-02	  -2.3022597e-02	
   1.2606000e+02	   9.0100430e-02	  -2.0368462e-02	
   1.2611500e+02	   1.0595149e-01	  -1.7067229e-02	
   1.2617000e+02	   1.2084235e-01	  -1.3250183e-02	
   1.2622500e+02	   1.3445397e-01	  -9.0682488e-03	
   1.2628000e+02	   1.4652327e-01	  -4.6757027e-03	
   1.2633500e+02	   1.5685958e-01	  -2.1457458e-04	
   1.2639000e+02	   1.6535169e-01	   4.1979587e-03	
   1.2644500e+02	   1.7196470e-01	   8.4770553e-03	
   1.2650000e+02	   1.7672805e-01	   1.2571078e-02	
   1.2655500e+02	   1.7971641e-01	   1.6455938e-02	
   1.2661000e+02	   1.8102637e-01	   2.0124483e-02	
   1.2666500e+02	   1.8075290e-01	   2.3573228e-02	
   1.2672000e+02	   1.7896978e-01	   2.6788938e-02	
   1.2677500e+02	   1.7571819e-01	   2.9737685e-02	
   1.2683000e+02	   1.7100626e-01	   3.2359027e-02	
