
0   3   6
   0.0000000e+00	   8.8209135e-01	  -1.2859597e-01	
   5.5000000e-02	   9.1311267e-01	  -1.4615929e-01	
   1.1000000e-01	   9.4391375e-01	  -1.6335697e-01	
   1.6500000e-01	   9.7460640e-01	  -1.7986531e-01	
   2.2000000e-01	   1.0053249e+00	  -1.9540138e-01	
   2.7500000e-01	   1.0362131e+00	  -2.0973574e-01	
   3.3000000e-01	   1.0674092e+00	  -2.2270026e-01	
   3.8500000e-01	   1.0990308e+00	  -2.3419036e-01	
   4.4000000e-01	   1.1311640e+00	  -2.4416145e-01	
   4.9500000e-01	   1.1638556e+00	  -2.5261970e-01	
   5.5000000e-01	   1.1971064e+00	  -2.5960875e-01	
   6.0500000e-01	   1.2308645e+00	  -2.6519493e-01	
   6.6000000e-01	   1.2650162e+00	  -2.6945356e-01	
   7.1500000e-01	   1.2993792e+00	  -2.7245765e-01	
   7.7000000e-01	   1.3337011e+00	  -2.7426897e-01	
   8.2500000e-01	   1.3676630e+00	  -2.7493167e-01	
   8.8000000e-01	   1.4008839e+00	  -2.7446978e-01	
   9.3500000e-01	   1.4329249e+00	  -2.7288952e-01	
   9.9000000e-01	   1.4632936e+00	  -2.7018539e-01	
   1.0450000e+00	   1.4914526e+00	  -2.6634704e-01	
   1.1000000e+00	   1.5168355e+00	  -2.6136409e-01	
   1.1550000e+00	   1.5388703e+00	  -2.5522763e-01	
   1.2100000e+00	   1.5570066e+00	  -2.4792934e-01	
   1.2650000e+00	   1.5707424e+00	  -2.3946015e-01	
   1.3200000e+00	   1.5796470e+00	  -2.2981019e-01	
   1.3750000e+00	   1.5833814e+00	  -2.1897068e-01	
   1.4300000e+00	   1.5817158e+00	  -2.0693788e-01	
   1.4850000e+00	   1.5745453e+00	  -1.9371853e-01	
   1.5400000e+00	   1.5618994e+00	  -1.7933700e-01	
   1.5950000e+00	   1.5439471e+00	  -1.6384327e-01	
   1.6500000e+00	   1.5209994e+00	  -1.4732027e-01	
   1.7050000e+00	   1.4935096e+00	  -1.2988857e-01	
   1.7600000e+00	   1.4620718e+00	  -1.1170704e-01	
   1.8150000e+00	   1.4274214e+00	  -9.2969892e-02	
   1.8700000e+00	   1.3904374e+00	  -7.3900793e-02	
   1.9250000e+00	   1.3521437e+00	  -5.4745630e-02	
   1.9800000e+00	   1.3137029e+00	  -3.5765327e-02	
   2.0350000e+00	   1.2763943e+00	  -1.7229717e-02	
   2.0900000e+00	   1.2415766e+00	   5.8760274e-04	
   2.1450000e+00	   1.2106322e+00	   1.7414124e-02	
   2.2000000e+00	   1.1848970e+00	   3.2984188e-02	
   2.2550000e+00	   1.1655735e+00	   4.7047117e-02	
   2.3100000e+00	   1.1536325e+00	   5.9378792e-02	
   2.3650000e+00	   1.1497135e+00	   6.9796490e-02	
   2.4200000e+00	   1.1540408e+00	   7.8175153e-02	
   2.4750000e+00	   1.1663804e+00	   8.4461838e-02	
   2.5300000e+00	   1.1860459e+00	   8.8684498e-02	
   2.5850000e+00	   1.2119552e+00	   9.0951935e-02	
   2.6400000e+00	   1.2427236e+00	   9.1444268e-02	
   2.6950000e+00	   1.2767759e+00	   9.0396553e-02	
   2.7500000e+00	   1.3124584e+00	   8.8079367e-02	
   2.8050000e+00	   1.3481360e+00	   8.4779028e-02	
   2.8600000e+00	   1.3822739e+00	   8.0779046e-02	
   2.9150000e+00	   1.4135049e+00	   7.6343646e-02	
   2.9700000e+00	   1.4406845e+00	   7.1702807e-02	
   3.0250000e+00	   1.4629332e+00	   6.7038437e-02	
   3.0800000e+00	   1.4796688e+00	   6.2473168e-02	
   3.1350000e+00	   1.4906305e+00	   5.8064229e-02	
   3.1900000e+00	   1.4958951e+00	   5.3804059e-02	
   3.2450000e+00	   1.4958809e+00	   4.9627876e-02	
   3.3000000e+00	   1.4913395e+00	   4.5427171e-02	
   3.3550000e+00	   1.4833302e+00	   4.1066807e-02	
   3.4100000e+00	   1.4731764e+00	   3.6402475e-02	
   3.4650000e+00	   1.4623987e+00	   3.1295917e-02	
   3.5200000e+00	   1.4526272e+00	   2.5627608e-02	
   3.5750000e+00	   1.4454920e+00	   1.9307920e-02	
   3.6300000e+00	   1.4424985e+00	   1.2287161e-02	
   3.6850000e+00	   1.4449035e+00	   4.5634629e-03	
   3.7400000e+00	   1.4536135e+00	  -3.8132645e-03	
   3.7950000e+00	   1.4691255e+00	  -1.2743196e-02	
   3.8500000e+00	   1.4915157e+00	  -2.2085525e-02	
   3.9050000e+00	   1.5204711e+00	  -3.1674105e-02	
   3.9600000e+00	   1.5553490e+00	  -4.1337012e-02	
   4.0150000e+00	   1.5952470e+00	  -5.0915883e-02	
   4.0700000e+00	   1.6390724e+00	  -6.0281573e-02	
   4.1250000e+00	   1.6856117e+00	  -6.9343991e-02	
   4.1800000e+00	   1.7335966e+00	  -7.8055176e-02	
   4.2350000e+00	   1.7817666e+00	  -8.6406264e-02	
   4.2900000e+00	   1.8289228e+00	  -9.4420484e-02	
   4.3450000e+00	   1.8739719e+00	  -1.0214460e-01	
   4.4000000e+00	   1.9159588e+00	  -1.0964079e-01	
   4.4550000e+00	   1.9540871e+00	  -1.1698040e-01	
   4.5100000e+00	   1.9877280e+00	  -1.2423982e-01	
   4.5650000e+00	   2.0164188e+00	  -1.3149748e-01	
   4.6200000e+00	   2.0398518e+00	  -1.3883107e-01	
   4.6750000e+00	   2.0578542e+00	  -1.4631549e-01	
   4.7300000e+00	   2.0703606e+00	  -1.5402151e-01	
   4.7850000e+00	   2.0773826e+00	  -1.6201373e-01	
   4.8400000e+00	   2.0789836e+00	  -1.7034680e-01	
   4.8950000e+00	   2.0752606e+00	  -1.7906015e-01	
   4.9500000e+00	   2.0663357e+00	  -1.8817178e-01	
   5.0050000e+00	   2.0523549e+00	  -1.9767157e-01	
   5.0600000e+00	   2.0334927e+00	  -2.0751519e-01	
   5.1150000e+00	   2.0099547e+00	  -2.1762033e-01	
   5.1700000e+00	   1.9819783e+00	  -2.2786732e-01	
   5.2250000e+00	   1.9498309e+00	  -2.3810514e-01	
   5.2800000e+00	   1.9138072e+00	  -2.4816260e-01	
   5.3350000e+00	   1.8742261e+00	  -2.5786241e-01	
   5.3900000e+00	   1.8314276e+00	  -2.6703522e-01	
   5.4450000e+00	   1.7857717e+00	  -2.7553098e-01	
   5.5000000e+00	   1.7376401e+00	  -2.8322626e-01	
   5.5550000e+00	   1.6874422e+00	  -2.9002727e-01	
   5.6100000e+00	   1.6356258e+00	  -2.9586926e-01	
   5.6650000e+00	   1.5826912e+00	  -3.0071414e-01	
   5.7200000e+00	   1.5292041e+00	  -3.0454773e-01	
   5.7750000e+00	   1.4758017e+00	  -3.0737765e-01	
   5.8300000e+00	   1.4231915e+00	  -3.0923214e-01	
   5.8850000e+00	   1.3721416e+00	  -3.1015952e-01	
   5.9400000e+00	   1.3234639e+00	  -3.1022825e-01	
   5.9950000e+00	   1.2779860e+00	  -3.0952693e-01	
   6.0500000e+00	   1.2365134e+00	  -3.0816260e-01	
   6.1050000e+00	   1.1997812e+00	  -3.0625614e-01	
   6.1600000e+00	   1.1683995e+00	  -3.0393438e-01	
   6.2150000e+00	   1.1427940e+00	  -3.0131915e-01	
   6.2700000e+00	   1.1231504e+00	  -2.9851343e-01	
   6.3250000e+00	   1.1093735e+00	  -2.9558632e-01	
   6.3800000e+00	   1.1010767e+00	  -2.9256100e-01	
   6.4350000e+00	   1.0976038e+00	  -2.8941063e-01	
   6.4900000e+00	   1.0980795e+00	  -2.8606355e-01	
   6.5450000e+00	   1.1014757e+00	  -2.8241540e-01	
   6.6000000e+00	   1.1066801e+00	  -2.7834481e-01	
   6.6550000e+00	   1.1125601e+00	  -2.7373053e-01	
   6.7100000e+00	   1.1180192e+00	  -2.6846845e-01	
   6.7650000e+00	   1.1220463e+00	  -2.6248746e-01	
   6.8200000e+00	   1.1237565e+00	  -2.5576275e-01	
   6.8750000e+00	   1.1224233e+00	  -2.4832596e-01	
   6.9300000e+00	   1.1175024e+00	  -2.4027092e-01	
   6.9850000e+00	   1.1086491e+00	  -2.3175416e-01	
   7.0400000e+00	   1.0957308e+00	  -2.2298864e-01	
   7.0950000e+00	   1.0788335e+00	  -2.1423049e-01	
   7.1500000e+00	   1.0582589e+00	  -2.0576036e-01	
   7.2050000e+00	   1.0345042e+00	  -1.9786216e-01	
   7.2600000e+00	   1.0082216e+00	  -1.9080177e-01	
   7.3150000e+00	   9.8015927e-01	  -1.8480678e-01	
   7.3700000e+00	   9.5108796e-01	  -1.8004822e-01	
   7.4250000e+00	   9.2172765e-01	  -1.7662658e-01	
   7.4800000e+00	   8.9268875e-01	  -1.7456490e-01	
   7.5350000e+00	   8.6444359e-01	  -1.7381124e-01	
   7.5900000e+00	   8.3733117e-01	  -1.7425071e-01	
   7.6450000e+00	   8.1158521e-01	  -1.7572514e-01	
   7.7000000e+00	   7.8736940e-01	  -1.7805675e-01	
   7.7550000e+00	   7.6480942e-01	  -1.8107052e-01	
   7.8100000e+00	   7.4401723e-01	  -1.8461150e-01	
   7.8650000e+00	   7.2510498e-01	  -1.8855460e-01	
   7.9200000e+00	   7.0818611e-01	  -1.9280571e-01	
   7.9750000e+00	   6.9336221e-01	  -1.9729560e-01	
   8.0300000e+00	   6.8069370e-01	  -2.0196960e-01	
   8.0850000e+00	   6.7015254e-01	  -2.0677663e-01	
   8.1400000e+00	   6.6156140e-01	  -2.1165779e-01	
   8.1950000e+00	   6.5453416e-01	  -2.1653329e-01	
   8.2500000e+00	   6.4843527e-01	  -2.2128862e-01	
   8.3050000e+00	   6.4236992e-01	  -2.2576415e-01	
   8.3600000e+00	   6.3521009e-01	  -2.2975252e-01	
   8.4150000e+00	   6.2565726e-01	  -2.3300545e-01	
   8.4700000e+00	   6.1233408e-01	  -2.3524961e-01	
   8.5250000e+00	   5.9388691e-01	  -2.3620872e-01	
   8.5800000e+00	   5.6908077e-01	  -2.3562706e-01	
   8.6350000e+00	   5.3687940e-01	  -2.3328954e-01	
   8.6900000e+00	   4.9651012e-01	  -2.2903641e-01	
   8.7450000e+00	   4.4751375e-01	  -2.2277231e-01	
   8.8000000e+00	   3.8977873e-01	  -2.1447071e-01	
   8.8550000e+00	   3.2355896e-01	  -2.0417433e-01	
   8.9100000e+00	   2.4947319e-01	  -1.9199249e-01	
   8.9650000e+00	   1.6848256e-01	  -1.7809585e-01	
   9.0200000e+00	   8.1845074e-02	  -1.6270816e-01	
   9.0750000e+00	  -8.9517558e-03	  -1.4609493e-01	
   9.1300000e+00	  -1.0227505e-01	  -1.2854968e-01	
   9.1850000e+00	  -1.9643660e-01	  -1.1037863e-01	
   9.2400000e+00	  -2.8977591e-01	  -9.1885184e-02	
   9.2950000e+00	  -3.8072887e-01	  -7.3356361e-02	
   9.3500000e+00	  -4.6788116e-01	  -5.5053237e-02	
   9.4050000e+00	  -5.5000690e-01	  -3.7205350e-02	
   9.4600000e+00	  -6.2609427e-01	  -2.0007430e-02	
   9.5150000e+00	  -6.9536082e-01	  -3.6167876e-03	
   9.5700000e+00	  -7.5725976e-01	   1.1848950e-02	
   9.6250000e+00	  -8.1147528e-01	   2.6312597e-02	
   9.6800000e+00	  -8.5790726e-01	   3.9735177e-02	
   9.7350000e+00	  -8.9664931e-01	   5.2110284e-02	
   9.7900000e+00	  -9.2796500e-01	   6.3456290e-02	
   9.8450000e+00	  -9.5226329e-01	   7.3808331e-02	
   9.9000000e+00	  -9.7007278e-01	   8.3211334e-02	
   9.9550000e+00	  -9.8201600e-01	   9.1714533e-02	
   1.0010000e+01	  -9.8878487e-01	   9.9368120e-02	
   1.0065000e+01	  -9.9111787e-01	   1.0622318e-01	
   1.0120000e+01	  -9.8977818e-01	   1.1233504e-01	
   1.0175000e+01	  -9.8553375e-01	   1.1776797e-01	
   1.0230000e+01	  -9.7913950e-01	   1.2259871e-01	
   1.0285000e+01	  -9.7132095e-01	   1.2691808e-01	
   1.0340000e+01	  -9.6275823e-01	   1.3083069e-01	
   1.0395000e+01	  -9.5407197e-01	   1.3445248e-01	
   1.0450000e+01	  -9.4581356e-01	   1.3790553e-01	
   1.0505000e+01	  -9.3846058e-01	   1.4131071e-01	
   1.0560000e+01	  -9.3241701e-01	   1.4477845e-01	
   1.0615000e+01	  -9.2801895e-01	   1.4839905e-01	
   1.0670000e+01	  -9.2554409e-01	   1.5223449e-01	
   1.0725000e+01	  -9.2522116e-01	   1.5631477e-01	
   1.0780000e+01	  -9.2723534e-01	   1.6063971e-01	
   1.0835000e+01	  -9.3172929e-01	   1.6518543e-01	
   1.0890000e+01	  -9.3880121e-01	   1.6991370e-01	
   1.0945000e+01	  -9.4850168e-01	   1.7478101e-01	
   1.1000000e+01	  -9.6083064e-01	   1.7974467e-01	
   1.1055000e+01	  -9.7573567e-01	   1.8476525e-01	
   1.1110000e+01	  -9.9311158e-01	   1.8980665e-01	
   1.1165000e+01	  -1.0128018e+00	   1.9483554e-01	
   1.1220000e+01	  -1.0346016e+00	   1.9982042e-01	
   1.1275000e+01	  -1.0582635e+00	   2.0473010e-01	
   1.1330000e+01	  -1.0835029e+00	   2.0953138e-01	
   1.1385000e+01	  -1.1100039e+00	   2.1418653e-01	
   1.1440000e+01	  -1.1374245e+00	   2.1865108e-01	
   1.1495000e+01	  -1.1654013e+00	   2.2287280e-01	
   1.1550000e+01	  -1.1935517e+00	   2.2679303e-01	
   1.1605000e+01	  -1.2214741e+00	   2.3035121e-01	
   1.1660000e+01	  -1.2487465e+00	   2.3349236e-01	
   1.1715000e+01	  -1.2749277e+00	   2.3617575e-01	
   1.1770000e+01	  -1.2995642e+00	   2.3838258e-01	
   1.1825000e+01	  -1.3222005e+00	   2.4012027e-01	
   1.1880000e+01	  -1.3423944e+00	   2.4142193e-01	
   1.1935000e+01	  -1.3597321e+00	   2.4234108e-01	
   1.1990000e+01	  -1.3738447e+00	   2.4294380e-01	
   1.2045000e+01	  -1.3844254e+00	   2.4330057e-01	
   1.2100000e+01	  -1.3912477e+00	   2.4347988e-01	
   1.2155000e+01	  -1.3941820e+00	   2.4354413e-01	
   1.2210000e+01	  -1.3932062e+00	   2.4354758e-01	
   1.2265000e+01	  -1.3884071e+00	   2.4353550e-01	
   1.2320000e+01	  -1.3799724e+00	   2.4354434e-01	
   1.2375000e+01	  -1.3681752e+00	   2.4360283e-01	
   1.2430000e+01	  -1.3533546e+00	   2.4373317e-01	
   1.2485000e+01	  -1.3358954e+00	   2.4395124e-01	
   1.2540000e+01	  -1.3162068e+00	   2.4426539e-01	
   1.2595000e+01	  -1.2947016e+00	   2.4467459e-01	
   1.2650000e+01	  -1.2717770e+00	   2.4516593e-01	
   1.2705000e+01	  -1.2478035e+00	   2.4571119e-01	
   1.2760000e+01	  -1.2231199e+00	   2.4626287e-01	
   1.2815000e+01	  -1.1980368e+00	   2.4675151e-01	
   1.2870000e+01	  -1.1728447e+00	   2.4708561e-01	
   1.2925000e+01	  -1.1478197e+00	   2.4715497e-01	
   1.2980000e+01	  -1.1232245e+00	   2.4683742e-01	
   1.3035000e+01	  -1.0993018e+00	   2.4600803e-01	
   1.3090000e+01	  -1.0762647e+00	   2.4454848e-01	
   1.3145000e+01	  -1.0542856e+00	   2.4235490e-01	
   1.3200000e+01	  -1.0334858e+00	   2.3934340e-01	
   1.3255000e+01	  -1.0139297e+00	   2.3545317e-01	
   1.3310000e+01	  -9.9562717e-01	   2.3064712e-01	
   1.3365000e+01	  -9.7854345e-01	   2.2491045e-01	
   1.3420000e+01	  -9.6261587e-01	   2.1824805e-01	
   1.3475000e+01	  -9.4777050e-01	   2.1068076e-01	
   1.3530000e+01	  -9.3393568e-01	   2.0224043e-01	
   1.3585000e+01	  -9.2105136e-01	   1.9296450e-01	
   1.3640000e+01	  -9.0907450e-01	   1.8289211e-01	
   1.3695000e+01	  -8.9798095e-01	   1.7206340e-01	
   1.3750000e+01	  -8.8776477e-01	   1.6052207e-01	
   1.3805000e+01	  -8.7843666e-01	   1.4831951e-01	
   1.3860000e+01	  -8.7002274e-01	   1.3551872e-01	
   1.3915000e+01	  -8.6256359e-01	   1.2219684e-01	
   1.3970000e+01	  -8.5611235e-01	   1.0844481e-01	
   1.4025000e+01	  -8.5073059e-01	   9.4364615e-02	
   1.4080000e+01	  -8.4648280e-01	   8.0065009e-02	
   1.4135000e+01	  -8.4343158e-01	   6.5656240e-02	
   1.4190000e+01	  -8.4163596e-01	   5.1243672e-02	
   1.4245000e+01	  -8.4115247e-01	   3.6920964e-02	
   1.4300000e+01	  -8.4203717e-01	   2.2764040e-02	
   1.4355000e+01	  -8.4434657e-01	   8.8270584e-03	
   1.4410000e+01	  -8.4813545e-01	  -4.8584964e-03	
   1.4465000e+01	  -8.5344931e-01	  -1.8281253e-02	
   1.4520000e+01	  -8.6031166e-01	  -3.1445118e-02	
   1.4575000e+01	  -8.6871023e-01	  -4.4364252e-02	
   1.4630000e+01	  -8.7858681e-01	  -5.7059323e-02	
   1.4685000e+01	  -8.8983331e-01	  -6.9555417e-02	
   1.4740000e+01	  -9.0229444e-01	  -8.1881204e-02	
   1.4795000e+01	  -9.1577622e-01	  -9.4068715e-02	
   1.4850000e+01	  -9.3005861e-01	  -1.0615321e-01	
   1.4905000e+01	  -9.4490963e-01	  -1.1817277e-01	
   1.4960000e+01	  -9.6009872e-01	  -1.3016727e-01	
   1.5015000e+01	  -9.7540799e-01	  -1.4217722e-01	
   1.5070000e+01	  -9.9064135e-01	  -1.5424289e-01	
   1.5125000e+01	  -1.0056299e+00	  -1.6640326e-01	
   1.5180000e+01	  -1.0202329e+00	  -1.7869408e-01	
   1.5235000e+01	  -1.0343330e+00	  -1.9114473e-01	
   1.5290000e+01	  -1.0478297e+00	  -2.0377388e-01	
   1.5345000e+01	  -1.0606295e+00	  -2.1658441e-01	
   1.5400000e+01	  -1.0726392e+00	  -2.2955964e-01	
   1.5455000e+01	  -1.0837627e+00	  -2.4266266e-01	
   1.5510000e+01	  -1.0939037e+00	  -2.5583929e-01	
   1.5565000e+01	  -1.1029730e+00	  -2.6902286e-01	
   1.5620000e+01	  -1.1108985e+00	  -2.8213967e-01	
   1.5675000e+01	  -1.1176378e+00	  -2.9511510e-01	
   1.5730000e+01	  -1.1231897e+00	  -3.0788105e-01	
   1.5785000e+01	  -1.1276029e+00	  -3.2038424e-01	
   1.5840000e+01	  -1.1309816e+00	  -3.3259453e-01	
   1.5895000e+01	  -1.1334849e+00	  -3.4451133e-01	
   1.5950000e+01	  -1.1353193e+00	  -3.5616622e-01	
   1.6005000e+01	  -1.1367249e+00	  -3.6762053e-01	
   1.6060000e+01	  -1.1379578e+00	  -3.7895913e-01	
   1.6115000e+01	  -1.1392752e+00	  -3.9028241e-01	
   1.6170000e+01	  -1.1409229e+00	  -4.0169788e-01	
   1.6225000e+01	  -1.1431276e+00	  -4.1331257e-01	
   1.6280000e+01	  -1.1460930e+00	  -4.2522783e-01	
   1.6335000e+01	  -1.1500012e+00	  -4.3753661e-01	
   1.6390000e+01	  -1.1550159e+00	  -4.5032206e-01	
   1.6445000e+01	  -1.1612883e+00	  -4.6365643e-01	
   1.6500000e+01	  -1.1689609e+00	  -4.7760095e-01	
   1.6555000e+01	  -1.1781693e+00	  -4.9220672e-01	
   1.6610000e+01	  -1.1890400e+00	  -5.0751547e-01	
   1.6665000e+01	  -1.2016868e+00	  -5.2355847e-01	
   1.6720000e+01	  -1.2162014e+00	  -5.4035219e-01	
   1.6775000e+01	  -1.2326427e+00	  -5.5789064e-01	
   1.6830000e+01	  -1.2510246e+00	  -5.7613651e-01	
   1.6885000e+01	  -1.2713088e+00	  -5.9501485e-01	
   1.6940000e+01	  -1.2934022e+00	  -6.1441183e-01	
   1.6995000e+01	  -1.3171575e+00	  -6.3417891e-01	
   1.7050000e+01	  -1.3423752e+00	  -6.5414124e-01	
   1.7105000e+01	  -1.3688059e+00	  -6.7410858e-01	
   1.7160000e+01	  -1.3961556e+00	  -6.9388637e-01	
   1.7215000e+01	  -1.4240952e+00	  -7.1328583e-01	
   1.7270000e+01	  -1.4522738e+00	  -7.3213246e-01	
   1.7325000e+01	  -1.4803330e+00	  -7.5027314e-01	
   1.7380000e+01	  -1.5079189e+00	  -7.6758063e-01	
   1.7435000e+01	  -1.5346868e+00	  -7.8395391e-01	
   1.7490000e+01	  -1.5603001e+00	  -7.9931481e-01	
   1.7545000e+01	  -1.5844280e+00	  -8.1360289e-01	
   1.7600000e+01	  -1.6067455e+00	  -8.2677039e-01	
   1.7655000e+01	  -1.6269385e+00	  -8.3877848e-01	
   1.7710000e+01	  -1.6447124e+00	  -8.4959560e-01	
   1.7765000e+01	  -1.6598051e+00	  -8.5919773e-01	
   1.7820000e+01	  -1.6720034e+00	  -8.6756960e-01	
   1.7875000e+01	  -1.6811601e+00	  -8.7470523e-01	
   1.7930000e+01	  -1.6872084e+00	  -8.8060862e-01	
   1.7985000e+01	  -1.6901712e+00	  -8.8529511e-01	
   1.8040000e+01	  -1.6901635e+00	  -8.8879230e-01	
   1.8095000e+01	  -1.6873880e+00	  -8.9113874e-01	
   1.8150000e+01	  -1.6821242e+00	  -8.9237967e-01	
   1.8205000e+01	  -1.6747106e+00	  -8.9256131e-01	
   1.8260000e+01	  -1.6655234e+00	  -8.9172541e-01	
   1.8315000e+01	  -1.6549533e+00	  -8.8990499e-01	
   1.8370000e+01	  -1.6433843e+00	  -8.8712228e-01	
   1.8425000e+01	  -1.6311758e+00	  -8.8338897e-01	
   1.8480000e+01	  -1.6186496e+00	  -8.7870847e-01	
   1.8535000e+01	  -1.6060804e+00	  -8.7307946e-01	
   1.8590000e+01	  -1.5936910e+00	  -8.6650021e-01	
   1.8645000e+01	  -1.5816480e+00	  -8.5897236e-01	
   1.8700000e+01	  -1.5700574e+00	  -8.5050250e-01	
   1.8755000e+01	  -1.5589574e+00	  -8.4110023e-01	
   1.8810000e+01	  -1.5483103e+00	  -8.3077385e-01	
   1.8865000e+01	  -1.5380004e+00	  -8.1952554e-01	
   1.8920000e+01	  -1.5278381e+00	  -8.0734729e-01	
   1.8975000e+01	  -1.5175706e+00	  -7.9421919e-01	
   1.9030000e+01	  -1.5068983e+00	  -7.8011096e-01	
   1.9085000e+01	  -1.4954925e+00	  -7.6498690e-01	
   1.9140000e+01	  -1.4830144e+00	  -7.4881278e-01	
   1.9195000e+01	  -1.4691328e+00	  -7.3156350e-01	
   1.9250000e+01	  -1.4535414e+00	  -7.1323104e-01	
   1.9305000e+01	  -1.4359754e+00	  -6.9383155e-01	
   1.9360000e+01	  -1.4162265e+00	  -6.7341026e-01	
   1.9415000e+01	  -1.3941534e+00	  -6.5204247e-01	
   1.9470000e+01	  -1.3696887e+00	  -6.2983020e-01	
   1.9525000e+01	  -1.3428393e+00	  -6.0689496e-01	
   1.9580000e+01	  -1.3136848e+00	  -5.8336904e-01	
   1.9635000e+01	  -1.2823760e+00	  -5.5938852e-01	
   1.9690000e+01	  -1.2491332e+00	  -5.3508926e-01	
   1.9745000e+01	  -1.2142403e+00	  -5.1060509e-01	
   1.9800000e+01	  -1.1780326e+00	  -4.8606691e-01	
   1.9855000e+01	  -1.1408812e+00	  -4.6160253e-01	
   1.9910000e+01	  -1.1031756e+00	  -4.3733789e-01	
   1.9965000e+01	  -1.0653072e+00	  -4.1339898e-01	
   2.0020000e+01	  -1.0276523e+00	  -3.8991346e-01	
   2.0075000e+01	  -9.9055742e-01	  -3.6701049e-01	
   2.0130000e+01	  -9.5432561e-01	  -3.4481790e-01	
   2.0185000e+01	  -9.1920351e-01	  -3.2345640e-01	
   2.0240000e+01	  -8.8536903e-01	  -3.0303157e-01	
   2.0295000e+01	  -8.5292603e-01	  -2.8362614e-01	
   2.0350000e+01	  -8.2190942e-01	  -2.6529475e-01	
   2.0405000e+01	  -7.9230001e-01	  -2.4806240e-01	
   2.0460000e+01	  -7.6404553e-01	  -2.3192613e-01	
   2.0515000e+01	  -7.3708307e-01	  -2.1685890e-01	
   2.0570000e+01	  -7.1135839e-01	  -2.0281385e-01	
   2.0625000e+01	  -6.8684023e-01	  -1.8972846e-01	
   2.0680000e+01	  -6.6352988e-01	  -1.7752901e-01	
   2.0735000e+01	  -6.4146620e-01	  -1.6613587e-01	
   2.0790000e+01	  -6.2072453e-01	  -1.5546891e-01	
   2.0845000e+01	  -6.0140940e-01	  -1.4545208e-01	
   2.0900000e+01	  -5.8364236e-01	  -1.3601657e-01	
   2.0955000e+01	  -5.6754638e-01	  -1.2710224e-01	
   2.1010000e+01	  -5.5322843e-01	  -1.1865653e-01	
   2.1065000e+01	  -5.4076412e-01	  -1.1063049e-01	
   2.1120000e+01	  -5.3018841e-01	  -1.0297343e-01	
   2.1175000e+01	  -5.2149400e-01	  -9.5628166e-02	
   2.1230000e+01	  -5.1463519e-01	  -8.8528690e-02	
   2.1285000e+01	  -5.0953486e-01	  -8.1600741e-02	
   2.1340000e+01	  -5.0609356e-01	  -7.4765233e-02	
   2.1395000e+01	  -5.0419985e-01	  -6.7943242e-02	
   2.1450000e+01	  -5.0374024e-01	  -6.1061242e-02	
   2.1505000e+01	  -5.0460729e-01	  -5.4056288e-02	
   2.1560000e+01	  -5.0670517e-01	  -4.6880943e-02	
   2.1615000e+01	  -5.0995132e-01	  -3.9506911e-02	
   2.1670000e+01	  -5.1427298e-01	  -3.1926206e-02	
   2.1725000e+01	  -5.1959901e-01	  -2.4149704e-02	
   2.1780000e+01	  -5.2584938e-01	  -1.6204053e-02	
   2.1835000e+01	  -5.3292559e-01	  -8.1283285e-03	
   2.1890000e+01	  -5.4070396e-01	   2.8740917e-05	
   2.1945000e+01	  -5.4903255e-01	   8.2106731e-03	
   2.2000000e+01	  -5.5773222e-01	   1.6354141e-02	
   2.2055000e+01	  -5.6660259e-01	   2.4388876e-02	
   2.2110000e+01	  -5.7543189e-01	   3.2236675e-02	
   2.2165000e+01	  -5.8400976e-01	   3.9809680e-02	
   2.2220000e+01	  -5.9214244e-01	   4.7008602e-02	
   2.2275000e+01	  -5.9966942e-01	   5.3722179e-02	
   2.2330000e+01	  -6.0647815e-01	   5.9829054e-02	
   2.2385000e+01	  -6.1251282e-01	   6.5202834e-02	
   2.2440000e+01	  -6.1777508e-01	   6.9720550e-02	
   2.2495000e+01	  -6.2231809e-01	   7.3273706e-02	
   2.2550000e+01	  -6.2623730e-01	   7.5779735e-02	
   2.2605000e+01	  -6.2966102e-01	   7.7191264e-02	
   2.2660000e+01	  -6.3274141e-01	   7.7501162e-02	
   2.2715000e+01	  -6.3564464e-01	   7.6742686e-02	
   2.2770000e+01	  -6.3854062e-01	   7.4985397e-02	
   2.2825000e+01	  -6.4159414e-01	   7.2328108e-02	
   2.2880000e+01	  -6.4495842e-01	   6.8890010e-02	
   2.2935000e+01	  -6.4876942e-01	   6.4801103e-02	
   2.2990000e+01	  -6.5314000e-01	   6.0193332e-02	
   2.3045000e+01	  -6.5815422e-01	   5.5193645e-02	
   2.3100000e+01	  -6.6386188e-01	   4.9920066e-02	
   2.3155000e+01	  -6.7027211e-01	   4.4481731e-02	
   2.3210000e+01	  -6.7734608e-01	   3.8982633e-02	
   2.3265000e+01	  -6.8499112e-01	   3.3526875e-02	
   2.3320000e+01	  -6.9305859e-01	   2.8222424e-02	
   2.3375000e+01	  -7.0134710e-01	   2.3181551e-02	
   2.3430000e+01	  -7.0961120e-01	   1.8517837e-02	
   2.3485000e+01	  -7.1757483e-01	   1.4340742e-02	
   2.3540000e+01	  -7.2494777e-01	   1.0749648e-02	
   2.3595000e+01	  -7.3144269e-01	   7.8294573e-03	
   2.3650000e+01	  -7.3679008e-01	   5.6487304e-03	
   2.3705000e+01	  -7.4074887e-01	   4.2597497e-03	
   2.3760000e+01	  -7.4311095e-01	   3.6996846e-03	
   2.3815000e+01	  -7.4370009e-01	   3.9927645e-03	
   2.3870000e+01	  -7.4236827e-01	   5.1538540e-03	
   2.3925000e+01	  -7.3899330e-01	   7.1933158e-03	
   2.3980000e+01	  -7.3347984e-01	   1.0121862e-02	
   2.4035000e+01	  -7.2576345e-01	   1.3953496e-02	
   2.4090000e+01	  -7.1581667e-01	   1.8705130e-02	
   2.4145000e+01	  -7.0365675e-01	   2.4392302e-02	
   2.4200000e+01	  -6.8935406e-01	   3.1021395e-02	
   2.4255000e+01	  -6.7303893e-01	   3.8579883e-02	
   2.4310000e+01	  -6.5490438e-01	   4.7027029e-02	
   2.4365000e+01	  -6.3520287e-01	   5.6287797e-02	
   2.4420000e+01	  -6.1423648e-01	   6.6252214e-02	
   2.4475000e+01	  -5.9234141e-01	   7.6780593e-02	
   2.4530000e+01	  -5.6986984e-01	   8.7713068e-02	
   2.4585000e+01	  -5.4717144e-01	   9.8881122e-02	
   2.4640000e+01	  -5.2457569e-01	   1.1011900e-01	
   2.4695000e+01	  -5.0237615e-01	   1.2127308e-01	
   2.4750000e+01	  -4.8081899e-01	   1.3220778e-01	
   2.4805000e+01	  -4.6009799e-01	   1.4280816e-01	
   2.4860000e+01	  -4.4035666e-01	   1.5297973e-01	
   2.4915000e+01	  -4.2169634e-01	   1.6264585e-01	
   2.4970000e+01	  -4.0418857e-01	   1.7174275e-01	
   2.5025000e+01	  -3.8788993e-01	   1.8021386e-01	
   2.5080000e+01	  -3.7285706e-01	   1.8800557e-01	
   2.5135000e+01	  -3.5915882e-01	   1.9506541e-01	
   2.5190000e+01	  -3.4688223e-01	   2.0134327e-01	
   2.5245000e+01	  -3.3613045e-01	   2.0679587e-01	
   2.5300000e+01	  -3.2701404e-01	   2.1139386e-01	
   2.5355000e+01	  -3.1963898e-01	   2.1512957e-01	
   2.5410000e+01	  -3.1409425e-01	   2.1802361e-01	
   2.5465000e+01	  -3.1043860e-01	   2.2012919e-01	
   2.5520000e+01	  -3.0868751e-01	   2.2153290e-01	
   2.5575000e+01	  -3.0880377e-01	   2.2235047e-01	
   2.5630000e+01	  -3.1069412e-01	   2.2271709e-01	
   2.5685000e+01	  -3.1421166e-01	   2.2277461e-01	
   2.5740000e+01	  -3.1916341e-01	   2.2265813e-01	
   2.5795000e+01	  -3.2532183e-01	   2.2248467e-01	
   2.5850000e+01	  -3.3243748e-01	   2.2234562e-01	
   2.5905000e+01	  -3.4024888e-01	   2.2230424e-01	
   2.5960000e+01	  -3.4848859e-01	   2.2239820e-01	
   2.6015000e+01	  -3.5688786e-01	   2.2264663e-01	
   2.6070000e+01	  -3.6518271e-01	   2.2305944e-01	
   2.6125000e+01	  -3.7312163e-01	   2.2364616e-01	
   2.6180000e+01	  -3.8047294e-01	   2.2442183e-01	
   2.6235000e+01	  -3.8703037e-01	   2.2540906e-01	
   2.6290000e+01	  -3.9261753e-01	   2.2663654e-01	
   2.6345000e+01	  -3.9709297e-01	   2.2813474e-01	
   2.6400000e+01	  -4.0035719e-01	   2.2992949e-01	
   2.6455000e+01	  -4.0236099e-01	   2.3203444e-01	
   2.6510000e+01	  -4.0311219e-01	   2.3444444e-01	
   2.6565000e+01	  -4.0267753e-01	   2.3713161e-01	
   2.6620000e+01	  -4.0117860e-01	   2.4004544e-01	
   2.6675000e+01	  -3.9878293e-01	   2.4311683e-01	
   2.6730000e+01	  -3.9569175e-01	   2.4626517e-01	
   2.6785000e+01	  -3.9212567e-01	   2.4940706e-01	
   2.6840000e+01	  -3.8830992e-01	   2.5246443e-01	
   2.6895000e+01	  -3.8446082e-01	   2.5537048e-01	
   2.6950000e+01	  -3.8077410e-01	   2.5807263e-01	
   2.7005000e+01	  -3.7741633e-01	   2.6053252e-01	
   2.7060000e+01	  -3.7452126e-01	   2.6272313e-01	
   2.7115000e+01	  -3.7219241e-01	   2.6462412e-01	
   2.7170000e+01	  -3.7050947e-01	   2.6621700e-01	
   2.7225000e+01	  -3.6953499e-01	   2.6748123e-01	
   2.7280000e+01	  -3.6932027e-01	   2.6839091e-01	
   2.7335000e+01	  -3.6991058e-01	   2.6891146e-01	
   2.7390000e+01	  -3.7134873e-01	   2.6899734e-01	
   2.7445000e+01	  -3.7367586e-01	   2.6859274e-01	
   2.7500000e+01	  -3.7693058e-01	   2.6763695e-01	
   2.7555000e+01	  -3.8114808e-01	   2.6607325e-01	
   2.7610000e+01	  -3.8635850e-01	   2.6385869e-01	
   2.7665000e+01	  -3.9258366e-01	   2.6097185e-01	
   2.7720000e+01	  -3.9983246e-01	   2.5741687e-01	
   2.7775000e+01	  -4.0809719e-01	   2.5322358e-01	
   2.7830000e+01	  -4.1735188e-01	   2.4844415e-01	
   2.7885000e+01	  -4.2755252e-01	   2.4314715e-01	
   2.7940000e+01	  -4.3863760e-01	   2.3740963e-01	
   2.7995000e+01	  -4.5052860e-01	   2.3130841e-01	
   2.8050000e+01	  -4.6313075e-01	   2.2491274e-01	
   2.8105000e+01	  -4.7633507e-01	   2.1828000e-01	
   2.8160000e+01	  -4.9002016e-01	   2.1145535e-01	
   2.8215000e+01	  -5.0405016e-01	   2.0447472e-01	
   2.8270000e+01	  -5.1826796e-01	   1.9736929e-01	
   2.8325000e+01	  -5.3248822e-01	   1.9016907e-01	
   2.8380000e+01	  -5.4649638e-01	   1.8290398e-01	
   2.8435000e+01	  -5.6005492e-01	   1.7560338e-01	
   2.8490000e+01	  -5.7291438e-01	   1.6829483e-01	
   2.8545000e+01	  -5.8482810e-01	   1.6100180e-01	
   2.8600000e+01	  -5.9556978e-01	   1.5374002e-01	
   2.8655000e+01	  -6.0495144e-01	   1.4651417e-01	
   2.8710000e+01	  -6.1283873e-01	   1.3931624e-01	
   2.8765000e+01	  -6.1916210e-01	   1.3212624e-01	
   2.8820000e+01	  -6.2392269e-01	   1.2491531e-01	
   2.8875000e+01	  -6.2719112e-01	   1.1765208e-01	
   2.8930000e+01	  -6.2909972e-01	   1.1031143e-01	
   2.8985000e+01	  -6.2983042e-01	   1.0288273e-01	
   2.9040000e+01	  -6.2960040e-01	   9.5375015e-02	
   2.9095000e+01	  -6.2864634e-01	   8.7818632e-02	
   2.9150000e+01	  -6.2720872e-01	   8.0263620e-02	
   2.9205000e+01	  -6.2551942e-01	   7.2775382e-02	
   2.9260000e+01	  -6.2379383e-01	   6.5428223e-02	
   2.9315000e+01	  -6.2222550e-01	   5.8297650e-02	
   2.9370000e+01	  -6.2098039e-01	   5.1452249e-02	
   2.9425000e+01	  -6.2019093e-01	   4.4945852e-02	
   2.9480000e+01	  -6.1995097e-01	   3.8811271e-02	
   2.9535000e+01	  -6.2031205e-01	   3.3057429e-02	
   2.9590000e+01	  -6.2128010e-01	   2.7670873e-02	
   2.9645000e+01	  -6.2281308e-01	   2.2620728e-02	
   2.9700000e+01	  -6.2482103e-01	   1.7865302e-02	
   2.9755000e+01	  -6.2716968e-01	   1.3359386e-02	
   2.9810000e+01	  -6.2968736e-01	   9.0616247e-03	
   2.9865000e+01	  -6.3217459e-01	   4.9406095e-03	
   2.9920000e+01	  -6.3441615e-01	   9.7825492e-04	
   2.9975000e+01	  -6.3619481e-01	  -2.8301360e-03	
   3.0030000e+01	  -6.3730736e-01	  -6.4790791e-03	
   3.0085000e+01	  -6.3758255e-01	  -9.9588480e-03	
   3.0140000e+01	  -6.3689771e-01	  -1.3262348e-02	
   3.0195000e+01	  -6.3518964e-01	  -1.6390425e-02	
   3.0250000e+01	  -6.3245692e-01	  -1.9354154e-02	
   3.0305000e+01	  -6.2875380e-01	  -2.2174117e-02	
   3.0360000e+01	  -6.2417857e-01	  -2.4877435e-02	
   3.0415000e+01	  -6.1885958e-01	  -2.7493785e-02	
   3.0470000e+01	  -6.1294182e-01	  -3.0051831e-02	
   3.0525000e+01	  -6.0657545e-01	  -3.2577026e-02	
   3.0580000e+01	  -5.9990681e-01	  -3.5090754e-02	
   3.0635000e+01	  -5.9307233e-01	  -3.7610509e-02	
   3.0690000e+01	  -5.8619677e-01	  -4.0151344e-02	
   3.0745000e+01	  -5.7939673e-01	  -4.2728872e-02	
   3.0800000e+01	  -5.7278746e-01	  -4.5362396e-02	
   3.0855000e+01	  -5.6648752e-01	  -4.8075476e-02	
   3.0910000e+01	  -5.6061742e-01	  -5.0892180e-02	
   3.0965000e+01	  -5.5529190e-01	  -5.3829277e-02	
   3.1020000e+01	  -5.5060821e-01	  -5.6886160e-02	
   3.1075000e+01	  -5.4663385e-01	  -6.0035194e-02	
   3.1130000e+01	  -5.4339734e-01	  -6.3215313e-02	
   3.1185000e+01	  -5.4088326e-01	  -6.6330572e-02	
   3.1240000e+01	  -5.3903056e-01	  -6.9253966e-02	
   3.1295000e+01	  -5.3773298e-01	  -7.1836225e-02	
   3.1350000e+01	  -5.3684205e-01	  -7.3919160e-02	
   3.1405000e+01	  -5.3617380e-01	  -7.5352244e-02	
   3.1460000e+01	  -5.3551984e-01	  -7.6010099e-02	
   3.1515000e+01	  -5.3466125e-01	  -7.5808383e-02	
   3.1570000e+01	  -5.3338239e-01	  -7.4715932e-02	
   3.1625000e+01	  -5.3148123e-01	  -7.2761171e-02	
   3.1680000e+01	  -5.2877490e-01	  -7.0031166e-02	
   3.1735000e+01	  -5.2510013e-01	  -6.6662916e-02	
   3.1790000e+01	  -5.2031062e-01	  -6.2828487e-02	
   3.1845000e+01	  -5.1427527e-01	  -5.8717260e-02	
   3.1900000e+01	  -5.0688052e-01	  -5.4518963e-02	
   3.1955000e+01	  -4.9803672e-01	  -5.0410002e-02	
   3.2010000e+01	  -4.8768609e-01	  -4.6544087e-02	
   3.2065000e+01	  -4.7581023e-01	  -4.3047200e-02	
   3.2120000e+01	  -4.6243798e-01	  -4.0016764e-02	
   3.2175000e+01	  -4.4765518e-01	  -3.7524758e-02	
   3.2230000e+01	  -4.3161534e-01	  -3.5624075e-02	
   3.2285000e+01	  -4.1454629e-01	  -3.4356669e-02	
   3.2340000e+01	  -3.9674780e-01	  -3.3761469e-02	
   3.2395000e+01	  -3.7857904e-01	  -3.3880244e-02	
   3.2450000e+01	  -3.6043865e-01	  -3.4760301e-02	
   3.2505000e+01	  -3.4274084e-01	  -3.6453524e-02	
   3.2560000e+01	  -3.2589109e-01	  -3.9012272e-02	
   3.2615000e+01	  -3.1026465e-01	  -4.2483932e-02	
   3.2670000e+01	  -2.9618991e-01	  -4.6906159e-02	
   3.2725000e+01	  -2.8393677e-01	  -5.2303730e-02	
   3.2780000e+01	  -2.7370976e-01	  -5.8687057e-02	
   3.2835000e+01	  -2.6564626e-01	  -6.6052287e-02	
   3.2890000e+01	  -2.5981974e-01	  -7.4382577e-02	
   3.2945000e+01	  -2.5624637e-01	  -8.3649672e-02	
   3.3000000e+01	  -2.5489197e-01	  -9.3815103e-02	
   3.3055000e+01	  -2.5567804e-01	  -1.0483086e-01	
   3.3110000e+01	  -2.5848770e-01	  -1.1663987e-01	
   3.3165000e+01	  -2.6317186e-01	  -1.2917628e-01	
   3.3220000e+01	  -2.6955396e-01	  -1.4236517e-01	
   3.3275000e+01	  -2.7743299e-01	  -1.5612146e-01	
   3.3330000e+01	  -2.8658773e-01	  -1.7034894e-01	
   3.3385000e+01	  -2.9678580e-01	  -1.8494063e-01	
   3.3440000e+01	  -3.0779638e-01	  -1.9978108e-01	
   3.3495000e+01	  -3.1940266e-01	  -2.1475043e-01	
   3.3550000e+01	  -3.3141075e-01	  -2.2972909e-01	
   3.3605000e+01	  -3.4365359e-01	  -2.4460192e-01	
   3.3660000e+01	  -3.5598886e-01	  -2.5926081e-01	
   3.3715000e+01	  -3.6829184e-01	  -2.7360579e-01	
   3.3770000e+01	  -3.8044618e-01	  -2.8754536e-01	
   3.3825000e+01	  -3.9233561e-01	  -3.0099689e-01	
   3.3880000e+01	  -4.0383785e-01	  -3.1388777e-01	
   3.3935000e+01	  -4.1482109e-01	  -3.2615736e-01	
   3.3990000e+01	  -4.2514374e-01	  -3.3775929e-01	
   3.4045000e+01	  -4.3465795e-01	  -3.4866359e-01	
   3.4100000e+01	  -4.4321612e-01	  -3.5885785e-01	
   3.4155000e+01	  -4.5067928e-01	  -3.6834742e-01	
   3.4210000e+01	  -4.5692805e-01	  -3.7715506e-01	
   3.4265000e+01	  -4.6187687e-01	  -3.8532021e-01	
   3.4320000e+01	  -4.6549018e-01	  -3.9289795e-01	
   3.4375000e+01	  -4.6779830e-01	  -3.9995733e-01	
   3.4430000e+01	  -4.6890899e-01	  -4.0657920e-01	
   3.4485000e+01	  -4.6901042e-01	  -4.1285297e-01	
   3.4540000e+01	  -4.6836344e-01	  -4.1887177e-01	
   3.4595000e+01	  -4.6728571e-01	  -4.2472640e-01	
   3.4650000e+01	  -4.6613249e-01	  -4.3049893e-01	
   3.4705000e+01	  -4.6527713e-01	  -4.3625798e-01	
   3.4760000e+01	  -4.6509234e-01	  -4.4205628e-01	
   3.4815000e+01	  -4.6593180e-01	  -4.4793011e-01	
   3.4870000e+01	  -4.6811222e-01	  -4.5389926e-01	
   3.4925000e+01	  -4.7189728e-01	  -4.5996690e-01	
   3.4980000e+01	  -4.7748613e-01	  -4.6611951e-01	
   3.5035000e+01	  -4.8500713e-01	  -4.7232740e-01	
   3.5090000e+01	  -4.9451536e-01	  -4.7854621e-01	
   3.5145000e+01	  -5.0599185e-01	  -4.8471882e-01	
   3.5200000e+01	  -5.1934397e-01	  -4.9077710e-01	
   3.5255000e+01	  -5.3440639e-01	  -4.9664301e-01	
   3.5310000e+01	  -5.5094261e-01	  -5.0222870e-01	
   3.5365000e+01	  -5.6864813e-01	  -5.0743571e-01	
   3.5420000e+01	  -5.8715739e-01	  -5.1215373e-01	
   3.5475000e+01	  -6.0605462e-01	  -5.1625958e-01	
   3.5530000e+01	  -6.2488736e-01	  -5.1961745e-01	
   3.5585000e+01	  -6.4318076e-01	  -5.2208111e-01	
   3.5640000e+01	  -6.6045182e-01	  -5.2349792e-01	
   3.5695000e+01	  -6.7622255e-01	  -5.2371427e-01	
   3.5750000e+01	  -6.9003111e-01	  -5.2258124e-01	
   3.5805000e+01	  -7.0144037e-01	  -5.1995912e-01	
   3.5860000e+01	  -7.1004476e-01	  -5.1572053e-01	
   3.5915000e+01	  -7.1547798e-01	  -5.0975379e-01	
   3.5970000e+01	  -7.1742246e-01	  -5.0196743e-01	
   3.6025000e+01	  -7.1561861e-01	  -4.9229523e-01	
   3.6080000e+01	  -7.0987198e-01	  -4.8070048e-01	
   3.6135000e+01	  -7.0005832e-01	  -4.6717946e-01	
   3.6190000e+01	  -6.8612705e-01	  -4.5176423e-01	
   3.6245000e+01	  -6.6810266e-01	  -4.3452409e-01	
   3.6300000e+01	  -6.4608265e-01	  -4.1556512e-01	
   3.6355000e+01	  -6.2023160e-01	  -3.9502756e-01	
   3.6410000e+01	  -5.9077129e-01	  -3.7308095e-01	
   3.6465000e+01	  -5.5796812e-01	  -3.4991690e-01	
   3.6520000e+01	  -5.2211966e-01	  -3.2574066e-01	
   3.6575000e+01	  -4.8354373e-01	  -3.0076345e-01	
   3.6630000e+01	  -4.4257200e-01	  -2.7519628e-01	
   3.6685000e+01	  -3.9954753e-01	  -2.4924505e-01	
   3.6740000e+01	  -3.5482474e-01	  -2.2310672e-01	
   3.6795000e+01	  -3.0876943e-01	  -1.9696732e-01	
   3.6850000e+01	  -2.6175547e-01	  -1.7100077e-01	
   3.6905000e+01	  -2.1415553e-01	  -1.4536712e-01	
   3.6960000e+01	  -1.6632711e-01	  -1.2020977e-01	
   3.7015000e+01	  -1.1859830e-01	  -9.5652529e-02	
   3.7070000e+01	  -7.1256975e-02	  -7.1797789e-02	
   3.7125000e+01	  -2.4544733e-02	  -4.8725427e-02	
   3.7180000e+01	   2.1343591e-02	  -2.6492639e-02	
   3.7235000e+01	   6.6253809e-02	  -5.1350273e-03	
   3.7290000e+01	   1.1006028e-01	   1.5331075e-02	
   3.7345000e+01	   1.5265079e-01	   3.4905470e-02	
   3.7400000e+01	   1.9391101e-01	   5.3599891e-02	
   3.7455000e+01	   2.3371020e-01	   7.1432383e-02	
   3.7510000e+01	   2.7189070e-01	   8.8421474e-02	
   3.7565000e+01	   3.0826434e-01	   1.0458236e-01	
   3.7620000e+01	   3.4261714e-01	   1.1992633e-01	
   3.7675000e+01	   3.7472166e-01	   1.3446315e-01	
   3.7730000e+01	   4.0435486e-01	   1.4820524e-01	
   3.7785000e+01	   4.3131838e-01	   1.6117220e-01	
   3.7840000e+01	   4.5545842e-01	   1.7339404e-01	
   3.7895000e+01	   4.7668273e-01	   1.8491213e-01	
   3.7950000e+01	   4.9497366e-01	   1.9577804e-01	
   3.8005000e+01	   5.1039676e-01	   2.0605104e-01	
   3.8060000e+01	   5.2310386e-01	   2.1579413e-01	
   3.8115000e+01	   5.3332720e-01	   2.2506846e-01	
   3.8170000e+01	   5.4136310e-01	   2.3392691e-01	
   3.8225000e+01	   5.4754850e-01	   2.4240857e-01	
   3.8280000e+01	   5.5223730e-01	   2.5053600e-01	
   3.8335000e+01	   5.5578208e-01	   2.5831614e-01	
   3.8390000e+01	   5.5852300e-01	   2.6574439e-01	
   3.8445000e+01	   5.6078258e-01	   2.7281055e-01	
   3.8500000e+01	   5.6286246e-01	   2.7950456e-01	
   3.8555000e+01	   5.6503899e-01	   2.8582063e-01	
   3.8610000e+01	   5.6755642e-01	   2.9175941e-01	
   3.8665000e+01	   5.7061912e-01	   2.9732897e-01	
   3.8720000e+01	   5.7438415e-01	   3.0254488e-01	
   3.8775000e+01	   5.7895521e-01	   3.0742863e-01	
   3.8830000e+01	   5.8437862e-01	   3.1200394e-01	
   3.8885000e+01	   5.9064030e-01	   3.1629147e-01	
   3.8940000e+01	   5.9766278e-01	   3.2030251e-01	
   3.8995000e+01	   6.0530332e-01	   3.2403289e-01	
   3.9050000e+01	   6.1335813e-01	   3.2745915e-01	
   3.9105000e+01	   6.2157721e-01	   3.3053831e-01	
   3.9160000e+01	   6.2968903e-01	   3.3321149e-01	
   3.9215000e+01	   6.3742832e-01	   3.3541028e-01	
   3.9270000e+01	   6.4456015e-01	   3.3706412e-01	
   3.9325000e+01	   6.5089620e-01	   3.3810703e-01	
   3.9380000e+01	   6.5630174e-01	   3.3848250e-01	
   3.9435000e+01	   6.6069427e-01	   3.3814607e-01	
   3.9490000e+01	   6.6403736e-01	   3.3706614e-01	
   3.9545000e+01	   6.6633134e-01	   3.3522309e-01	
   3.9600000e+01	   6.6760029e-01	   3.3260679e-01	
   3.9655000e+01	   6.6787525e-01	   3.2921335e-01	
   3.9710000e+01	   6.6717641e-01	   3.2504264e-01	
   3.9765000e+01	   6.6549908e-01	   3.2009802e-01	
   3.9820000e+01	   6.6280744e-01	   3.1438853e-01	
   3.9875000e+01	   6.5903676e-01	   3.0793205e-01	
   3.9930000e+01	   6.5410217e-01	   3.0075808e-01	
   3.9985000e+01	   6.4791076e-01	   2.9290886e-01	
   4.0040000e+01	   6.4037467e-01	   2.8443892e-01	
   4.0095000e+01	   6.3142258e-01	   2.7541319e-01	
   4.0150000e+01	   6.2100933e-01	   2.6590456e-01	
   4.0205000e+01	   6.0912420e-01	   2.5599152e-01	
   4.0260000e+01	   5.9579768e-01	   2.4575587e-01	
   4.0315000e+01	   5.8110528e-01	   2.3528019e-01	
   4.0370000e+01	   5.6516713e-01	   2.2464489e-01	
   4.0425000e+01	   5.4814297e-01	   2.1392504e-01	
   4.0480000e+01	   5.3022368e-01	   2.0318816e-01	
   4.0535000e+01	   5.1162131e-01	   1.9249355e-01	
   4.0590000e+01	   4.9256053e-01	   1.8189354e-01	
   4.0645000e+01	   4.7327301e-01	   1.7143576e-01	
   4.0700000e+01	   4.5399431e-01	   1.6116593e-01	
   4.0755000e+01	   4.3496047e-01	   1.5113068e-01	
   4.0810000e+01	   4.1640245e-01	   1.4138051e-01	
   4.0865000e+01	   3.9853883e-01	   1.3197326e-01	
   4.0920000e+01	   3.8156790e-01	   1.2297723e-01	
   4.0975000e+01	   3.6566013e-01	   1.1447280e-01	
   4.1030000e+01	   3.5095155e-01	   1.0655154e-01	
   4.1085000e+01	   3.3753840e-01	   9.9312948e-02	
   4.1140000e+01	   3.2547407e-01	   9.2859480e-02	
   4.1195000e+01	   3.1477145e-01	   8.7291320e-02	
   4.1250000e+01	   3.0541324e-01	   8.2702942e-02	
   4.1305000e+01	   2.9736907e-01	   7.9182052e-02	
   4.1360000e+01	   2.9061286e-01	   7.6809195e-02	
   4.1415000e+01	   2.8513469e-01	   7.5656080e-02	
   4.1470000e+01	   2.8094635e-01	   7.5782745e-02	
   4.1525000e+01	   2.7808235e-01	   7.7234669e-02	
   4.1580000e+01	   2.7659625e-01	   8.0039483e-02	
   4.1635000e+01	   2.7655074e-01	   8.4202347e-02	
   4.1690000e+01	   2.7800278e-01	   8.9700677e-02	
   4.1745000e+01	   2.8098733e-01	   9.6479968e-02	
   4.1800000e+01	   2.8550369e-01	   1.0445176e-01	
   4.1855000e+01	   2.9150725e-01	   1.1349437e-01	
   4.1910000e+01	   2.9890822e-01	   1.2345732e-01	
   4.1965000e+01	   3.0757691e-01	   1.3416902e-01	
   4.2020000e+01	   3.1735330e-01	   1.4544567e-01	
   4.2075000e+01	   3.2805824e-01	   1.5709896e-01	
   4.2130000e+01	   3.3950433e-01	   1.6894232e-01	
   4.2185000e+01	   3.5150468e-01	   1.8079623e-01	
   4.2240000e+01	   3.6387857e-01	   1.9249317e-01	
   4.2295000e+01	   3.7645431e-01	   2.0388133e-01	
   4.2350000e+01	   3.8907026e-01	   2.1482662e-01	
   4.2405000e+01	   4.0157483e-01	   2.2521325e-01	
   4.2460000e+01	   4.1382637e-01	   2.3494373e-01	
   4.2515000e+01	   4.2569461e-01	   2.4393911e-01	
   4.2570000e+01	   4.3706524e-01	   2.5214114e-01	
   4.2625000e+01	   4.4784660e-01	   2.5951658e-01	
   4.2680000e+01	   4.5797529e-01	   2.6606164e-01	
   4.2735000e+01	   4.6741733e-01	   2.7180398e-01	
   4.2790000e+01	   4.7616441e-01	   2.7680097e-01	
   4.2845000e+01	   4.8422663e-01	   2.8113518e-01	
   4.2900000e+01	   4.9162463e-01	   2.8490770e-01	
   4.2955000e+01	   4.9838293e-01	   2.8823062e-01	
   4.3010000e+01	   5.0452593e-01	   2.9121926e-01	
   4.3065000e+01	   5.1007663e-01	   2.9398477e-01	
   4.3120000e+01	   5.1505679e-01	   2.9662659e-01	
   4.3175000e+01	   5.1948709e-01	   2.9922611e-01	
   4.3230000e+01	   5.2338881e-01	   3.0184388e-01	
   4.3285000e+01	   5.2678915e-01	   3.0452188e-01	
   4.3340000e+01	   5.2972885e-01	   3.0728932e-01	
   4.3395000e+01	   5.3226797e-01	   3.1016835e-01	
   4.3450000e+01	   5.3448768e-01	   3.1317746e-01	
   4.3505000e+01	   5.3648866e-01	   3.1633238e-01	
   4.3560000e+01	   5.3838587e-01	   3.1964531e-01	
   4.3615000e+01	   5.4029784e-01	   3.2312270e-01	
   4.3670000e+01	   5.4233157e-01	   3.2676141e-01	
   4.3725000e+01	   5.4456795e-01	   3.3054364e-01	
   4.3780000e+01	   5.4705208e-01	   3.3443170e-01	
   4.3835000e+01	   5.4978897e-01	   3.3836428e-01	
   4.3890000e+01	   5.5274417e-01	   3.4225675e-01	
   4.3945000e+01	   5.5584897e-01	   3.4600746e-01	
   4.4000000e+01	   5.5900817e-01	   3.4950902e-01	
   4.4055000e+01	   5.6210724e-01	   3.5266066e-01	
   4.4110000e+01	   5.6501753e-01	   3.5537829e-01	
   4.4165000e+01	   5.6760027e-01	   3.5760112e-01	
   4.4220000e+01	   5.6971011e-01	   3.5929413e-01	
   4.4275000e+01	   5.7119846e-01	   3.6044636e-01	
   4.4330000e+01	   5.7191717e-01	   3.6106615e-01	
   4.4385000e+01	   5.7172363e-01	   3.6117495e-01	
   4.4440000e+01	   5.7048789e-01	   3.6080077e-01	
   4.4495000e+01	   5.6810159e-01	   3.5997232e-01	
   4.4550000e+01	   5.6448730e-01	   3.5871445e-01	
   4.4605000e+01	   5.5960757e-01	   3.5704542e-01	
   4.4660000e+01	   5.5347270e-01	   3.5497585e-01	
   4.4715000e+01	   5.4614547e-01	   3.5250843e-01	
   4.4770000e+01	   5.3774120e-01	   3.4963803e-01	
   4.4825000e+01	   5.2842308e-01	   3.4635227e-01	
   4.4880000e+01	   5.1839353e-01	   3.4263304e-01	
   4.4935000e+01	   5.0788294e-01	   3.3845904e-01	
   4.4990000e+01	   4.9713648e-01	   3.3380869e-01	
   4.5045000e+01	   4.8640046e-01	   3.2866299e-01	
   4.5100000e+01	   4.7590920e-01	   3.2300837e-01	
   4.5155000e+01	   4.6587282e-01	   3.1683935e-01	
   4.5210000e+01	   4.5646706e-01	   3.1016103e-01	
   4.5265000e+01	   4.4782736e-01	   3.0299185e-01	
   4.5320000e+01	   4.4004854e-01	   2.9536734e-01	
   4.5375000e+01	   4.3318874e-01	   2.8734506e-01	
   4.5430000e+01	   4.2727602e-01	   2.7900945e-01	
   4.5485000e+01	   4.2231642e-01	   2.7047527e-01	
   4.5540000e+01	   4.1830131e-01	   2.6188788e-01	
   4.5595000e+01	   4.1521150e-01	   2.5341985e-01	
   4.5650000e+01	   4.1301741e-01	   2.4526354e-01	
   4.5705000e+01	   4.1167761e-01	   2.3762040e-01	
   4.5760000e+01	   4.1113766e-01	   2.3068798e-01	
   4.5815000e+01	   4.1133028e-01	   2.2464608e-01	
   4.5870000e+01	   4.1217759e-01	   2.1964449e-01	
   4.5925000e+01	   4.1359604e-01	   2.1579502e-01	
   4.5980000e+01	   4.1550387e-01	   2.1316948e-01	
   4.6035000e+01	   4.1782922e-01	   2.1180318e-01	
   4.6090000e+01	   4.2051686e-01	   2.1170195e-01	
   4.6145000e+01	   4.2353220e-01	   2.1284938e-01	
   4.6200000e+01	   4.2686138e-01	   2.1521148e-01	
   4.6255000e+01	   4.3050625e-01	   2.1873772e-01	
   4.6310000e+01	   4.3447443e-01	   2.2335929e-01	
   4.6365000e+01	   4.3876620e-01	   2.2898580e-01	
   4.6420000e+01	   4.4336083e-01	   2.3550182e-01	
   4.6475000e+01	   4.4820568e-01	   2.4276412e-01	
   4.6530000e+01	   4.5321211e-01	   2.5060067e-01	
   4.6585000e+01	   4.5826032e-01	   2.5881346e-01	
   4.6640000e+01	   4.6321117e-01	   2.6718680e-01	
   4.6695000e+01	   4.6792130e-01	   2.7550032e-01	
   4.6750000e+01	   4.7225927e-01	   2.8354447e-01	
   4.6805000e+01	   4.7612119e-01	   2.9113572e-01	
   4.6860000e+01	   4.7944361e-01	   2.9812860e-01	
   4.6915000e+01	   4.8221078e-01	   3.0442188e-01	
   4.6970000e+01	   4.8445431e-01	   3.0995722e-01	
   4.7025000e+01	   4.8624624e-01	   3.1471170e-01	
   4.7080000e+01	   4.8768672e-01	   3.1868708e-01	
   4.7135000e+01	   4.8888736e-01	   3.2189828e-01	
   4.7190000e+01	   4.8995337e-01	   3.2436353e-01	
   4.7245000e+01	   4.9096906e-01	   3.2609782e-01	
   4.7300000e+01	   4.9198885e-01	   3.2711090e-01	
   4.7355000e+01	   4.9303389e-01	   3.2740907e-01	
   4.7410000e+01	   4.9409350e-01	   3.2699948e-01	
   4.7465000e+01	   4.9513187e-01	   3.2589519e-01	
   4.7520000e+01	   4.9609907e-01	   3.2411919e-01	
   4.7575000e+01	   4.9694319e-01	   3.2170636e-01	
   4.7630000e+01	   4.9761979e-01	   3.1870312e-01	
   4.7685000e+01	   4.9809620e-01	   3.1516612e-01	
   4.7740000e+01	   4.9835001e-01	   3.1116054e-01	
   4.7795000e+01	   4.9836140e-01	   3.0675750e-01	
   4.7850000e+01	   4.9810209e-01	   3.0202995e-01	
   4.7905000e+01	   4.9752519e-01	   2.9704712e-01	
   4.7960000e+01	   4.9655926e-01	   2.9186839e-01	
   4.8015000e+01	   4.9510725e-01	   2.8653730e-01	
   4.8070000e+01	   4.9305110e-01	   2.8107859e-01	
   4.8125000e+01	   4.9026302e-01	   2.7550127e-01	
   4.8180000e+01	   4.8662180e-01	   2.6980672e-01	
   4.8235000e+01	   4.8203035e-01	   2.6399760e-01	
   4.8290000e+01	   4.7643059e-01	   2.5808400e-01	
   4.8345000e+01	   4.6981242e-01	   2.5208578e-01	
   4.8400000e+01	   4.6221376e-01	   2.4603132e-01	
   4.8455000e+01	   4.5371193e-01	   2.3995310e-01	
   4.8510000e+01	   4.4441009e-01	   2.3388193e-01	
   4.8565000e+01	   4.3442388e-01	   2.2784186e-01	
   4.8620000e+01	   4.2387018e-01	   2.2184662e-01	
   4.8675000e+01	   4.1285755e-01	   2.1589650e-01	
   4.8730000e+01	   4.0147794e-01	   2.0997548e-01	
   4.8785000e+01	   3.8980167e-01	   2.0405006e-01	
   4.8840000e+01	   3.7787864e-01	   1.9807093e-01	
   4.8895000e+01	   3.6574715e-01	   1.9197815e-01	
   4.8950000e+01	   3.5344655e-01	   1.8570877e-01	
   4.9005000e+01	   3.4102840e-01	   1.7920468e-01	
   4.9060000e+01	   3.2856292e-01	   1.7241873e-01	
   4.9115000e+01	   3.1613950e-01	   1.6531846e-01	
   4.9170000e+01	   3.0386067e-01	   1.5788722e-01	
   4.9225000e+01	   2.9183002e-01	   1.5012294e-01	
   4.9280000e+01	   2.8013673e-01	   1.4203508e-01	
   4.9335000e+01	   2.6883893e-01	   1.3364005e-01	
   4.9390000e+01	   2.5794799e-01	   1.2495626e-01	
   4.9445000e+01	   2.4741718e-01	   1.1599970e-01	
   4.9500000e+01	   2.3713773e-01	   1.0678142e-01	
   4.9555000e+01	   2.2694343e-01	   9.7307367e-02	
   4.9610000e+01	   2.1662350e-01	   8.7581009e-02	
   4.9665000e+01	   2.0594298e-01	   7.7608210e-02	
   4.9720000e+01	   1.9466694e-01	   6.7402764e-02	
   4.9775000e+01	   1.8258265e-01	   5.6991139e-02	
   4.9830000e+01	   1.6951575e-01	   4.6415376e-02	
   4.9885000e+01	   1.5534081e-01	   3.5733721e-02	
   4.9940000e+01	   1.3998870e-01	   2.5019203e-02	
   4.9995000e+01	   1.2345037e-01	   1.4356309e-02	
   5.0050000e+01	   1.0577573e-01	   3.8358128e-03	
   5.0105000e+01	   8.7068259e-02	  -6.4512735e-03	
   5.0160000e+01	   6.7478987e-02	  -1.6418957e-02	
   5.0215000e+01	   4.7202422e-02	  -2.5989764e-02	
   5.0270000e+01	   2.6473752e-02	  -3.5096260e-02	
   5.0325000e+01	   5.5655600e-03	  -4.3680311e-02	
   5.0380000e+01	  -1.5217504e-02	  -5.1690292e-02	
   5.0435000e+01	  -3.5547081e-02	  -5.9077780e-02	
   5.0490000e+01	  -5.5081811e-02	  -6.5795764e-02	
   5.0545000e+01	  -7.3478113e-02	  -7.1799342e-02	
   5.0600000e+01	  -9.0399762e-02	  -7.7048951e-02	
   5.0655000e+01	  -1.0552703e-01	  -8.1515620e-02	
   5.0710000e+01	  -1.1856622e-01	  -8.5186664e-02	
   5.0765000e+01	  -1.2925937e-01	  -8.8069087e-02	
   5.0820000e+01	  -1.3739315e-01	  -9.0188909e-02	
   5.0875000e+01	  -1.4280587e-01	  -9.1586594e-02	
   5.0930000e+01	  -1.4539194e-01	  -9.2309979e-02	
   5.0985000e+01	  -1.4510464e-01	  -9.2406302e-02	
   5.1040000e+01	  -1.4195788e-01	  -9.1915111e-02	
   5.1095000e+01	  -1.3602636e-01	  -9.0863398e-02	
   5.1150000e+01	  -1.2744321e-01	  -8.9263107e-02	
   5.1205000e+01	  -1.1639494e-01	  -8.7110290e-02	
   5.1260000e+01	  -1.0311408e-01	  -8.4385443e-02	
   5.1315000e+01	  -8.7870543e-02	  -8.1055278e-02	
   5.1370000e+01	  -7.0962824e-02	  -7.7076489e-02	
   5.1425000e+01	  -5.2709922e-02	  -7.2401679e-02	
   5.1480000e+01	  -3.3444598e-02	  -6.6986619e-02	
   5.1535000e+01	  -1.3508115e-02	  -6.0797071e-02	
   5.1590000e+01	   6.7553478e-03	  -5.3813218e-02	
   5.1645000e+01	   2.7007905e-02	  -4.6030639e-02	
   5.1700000e+01	   4.6931986e-02	  -3.7458544e-02	
   5.1755000e+01	   6.6245541e-02	  -2.8117789e-02	
   5.1810000e+01	   8.4712943e-02	  -1.8040956e-02	
   5.1865000e+01	   1.0214966e-01	  -7.2744570e-03	
   5.1920000e+01	   1.1842240e-01	   4.1193827e-03	
   5.1975000e+01	   1.3344611e-01	   1.6061533e-02	
   5.2030000e+01	   1.4717758e-01	   2.8456437e-02	
   5.2085000e+01	   1.5960628e-01	   4.1192670e-02	
   5.2140000e+01	   1.7074573e-01	   5.4144414e-02	
   5.2195000e+01	   1.8062846e-01	   6.7173968e-02	
   5.2250000e+01	   1.8930600e-01	   8.0135275e-02	
   5.2305000e+01	   1.9685374e-01	   9.2878918e-02	
   5.2360000e+01	   2.0337974e-01	   1.0525935e-01	
   5.2415000e+01	   2.0903374e-01	   1.1714377e-01	
   5.2470000e+01	   2.1401108e-01	   1.2842075e-01	
   5.2525000e+01	   2.1854722e-01	   1.3900712e-01	
   5.2580000e+01	   2.2290155e-01	   1.4885163e-01	
   5.2635000e+01	   2.2733320e-01	   1.5793405e-01	
   5.2690000e+01	   2.3207375e-01	   1.6625945e-01	
   5.2745000e+01	   2.3730237e-01	   1.7384968e-01	
   5.2800000e+01	   2.4312772e-01	   1.8073520e-01	
   5.2855000e+01	   2.4957809e-01	   1.8694925e-01	
   5.2910000e+01	   2.5659969e-01	   1.9252405e-01	
   5.2965000e+01	   2.6406279e-01	   1.9748878e-01	
   5.3020000e+01	   2.7177616e-01	   2.0186952e-01	
   5.3075000e+01	   2.7950747e-01	   2.0569156e-01	
   5.3130000e+01	   2.8700470e-01	   2.0898291e-01	
   5.3185000e+01	   2.9401428e-01	   2.1177715e-01	
   5.3240000e+01	   3.0029482e-01	   2.1411449e-01	
   5.3295000e+01	   3.0562681e-01	   2.1604111e-01	
   5.3350000e+01	   3.0981846e-01	   2.1760703e-01	
   5.3405000e+01	   3.1270869e-01	   2.1886320e-01	
   5.3460000e+01	   3.1416851e-01	   2.1985870e-01	
   5.3515000e+01	   3.1410173e-01	   2.2063879e-01	
   5.3570000e+01	   3.1244564e-01	   2.2124351e-01	
   5.3625000e+01	   3.0917162e-01	   2.2170656e-01	
   5.3680000e+01	   3.0428672e-01	   2.2205523e-01	
   5.3735000e+01	   2.9783711e-01	   2.2231172e-01	
   5.3790000e+01	   2.8991228e-01	   2.2249561e-01	
   5.3845000e+01	   2.8064704e-01	   2.2262601e-01	
   5.3900000e+01	   2.7021923e-01	   2.2272296e-01	
   5.3955000e+01	   2.5884321e-01	   2.2280791e-01	
   5.4010000e+01	   2.4675981e-01	   2.2290295e-01	
   5.4065000e+01	   2.3422488e-01	   2.2302898e-01	
   5.4120000e+01	   2.2149855e-01	   2.2320374e-01	
   5.4175000e+01	   2.0883622e-01	   2.2344125e-01	
   5.4230000e+01	   1.9648087e-01	   2.2375312e-01	
   5.4285000e+01	   1.8465649e-01	   2.2415127e-01	
   5.4340000e+01	   1.7356532e-01	   2.2465186e-01	
   5.4395000e+01	   1.6339016e-01	   2.2527990e-01	
   5.4450000e+01	   1.5429890e-01	   2.2607288e-01	
   5.4505000e+01	   1.4644671e-01	   2.2708205e-01	
   5.4560000e+01	   1.3997434e-01	   2.2837178e-01	
   5.4615000e+01	   1.3500331e-01	   2.3001761e-01	
   5.4670000e+01	   1.3162829e-01	   2.3210340e-01	
   5.4725000e+01	   1.2990770e-01	   2.3471696e-01	
   5.4780000e+01	   1.2985514e-01	   2.3794404e-01	
   5.4835000e+01	   1.3143407e-01	   2.4186111e-01	
   5.4890000e+01	   1.3455655e-01	   2.4652789e-01	
   5.4945000e+01	   1.3908755e-01	   2.5198154e-01	
   5.5000000e+01	   1.4485569e-01	   2.5823415e-01	
   5.5055000e+01	   1.5166887e-01	   2.6527361e-01	
   5.5110000e+01	   1.5932986e-01	   2.7306591e-01	
   5.5165000e+01	   1.6764774e-01	   2.8155662e-01	
   5.5220000e+01	   1.7644428e-01	   2.9067119e-01	
   5.5275000e+01	   1.8555555e-01	   3.0031455e-01	
   5.5330000e+01	   1.9482834e-01	   3.1037112e-01	
   5.5385000e+01	   2.0411253e-01	   3.2070579e-01	
   5.5440000e+01	   2.1325338e-01	   3.3116642e-01	
   5.5495000e+01	   2.2208798e-01	   3.4158771e-01	
   5.5550000e+01	   2.3044697e-01	   3.5179631e-01	
   5.5605000e+01	   2.3816054e-01	   3.6161718e-01	
   5.5660000e+01	   2.4506789e-01	   3.7088122e-01	
   5.5715000e+01	   2.5103032e-01	   3.7943387e-01	
   5.5770000e+01	   2.5594533e-01	   3.8714402e-01	
   5.5825000e+01	   2.5975763e-01	   3.9391193e-01	
   5.5880000e+01	   2.6246429e-01	   3.9967471e-01	
   5.5935000e+01	   2.6411436e-01	   4.0440881e-01	
   5.5990000e+01	   2.6480373e-01	   4.0812913e-01	
   5.6045000e+01	   2.6466627e-01	   4.1088428e-01	
   5.6100000e+01	   2.6386285e-01	   4.1274862e-01	
   5.6155000e+01	   2.6256935e-01	   4.1381273e-01	
   5.6210000e+01	   2.6096316e-01	   4.1417443e-01	
   5.6265000e+01	   2.5920962e-01	   4.1393239e-01	
   5.6320000e+01	   2.5745128e-01	   4.1318296e-01	
   5.6375000e+01	   2.5580246e-01	   4.1201970e-01	
   5.6430000e+01	   2.5434855e-01	   4.1053464e-01	
   5.6485000e+01	   2.5314812e-01	   4.0882006e-01	
   5.6540000e+01	   2.5223587e-01	   4.0696982e-01	
   5.6595000e+01	   2.5162469e-01	   4.0507875e-01	
   5.6650000e+01	   2.5130623e-01	   4.0323944e-01	
   5.6705000e+01	   2.5124989e-01	   4.0153694e-01	
   5.6760000e+01	   2.5140159e-01	   4.0004270e-01	
   5.6815000e+01	   2.5168342e-01	   3.9880851e-01	
   5.6870000e+01	   2.5199502e-01	   3.9786060e-01	
   5.6925000e+01	   2.5221591e-01	   3.9719462e-01	
   5.6980000e+01	   2.5220878e-01	   3.9677303e-01	
   5.7035000e+01	   2.5182390e-01	   3.9652698e-01	
   5.7090000e+01	   2.5090430e-01	   3.9636215e-01	
   5.7145000e+01	   2.4929190e-01	   3.9616694e-01	
   5.7200000e+01	   2.4683535e-01	   3.9582124e-01	
   5.7255000e+01	   2.4340041e-01	   3.9520475e-01	
   5.7310000e+01	   2.3888082e-01	   3.9420357e-01	
   5.7365000e+01	   2.3320674e-01	   3.9271459e-01	
   5.7420000e+01	   2.2634885e-01	   3.9064789e-01	
   5.7475000e+01	   2.1831773e-01	   3.8792802e-01	
   5.7530000e+01	   2.0915907e-01	   3.8449456e-01	
   5.7585000e+01	   1.9894581e-01	   3.8030238e-01	
   5.7640000e+01	   1.8776895e-01	   3.7532269e-01	
   5.7695000e+01	   1.7572914e-01	   3.6954559e-01	
   5.7750000e+01	   1.6293111e-01	   3.6298388e-01	
   5.7805000e+01	   1.4948103e-01	   3.5567646e-01	
   5.7860000e+01	   1.3548536e-01	   3.4768945e-01	
   5.7915000e+01	   1.2104969e-01	   3.3911447e-01	
   5.7970000e+01	   1.0627675e-01	   3.3006477e-01	
   5.8025000e+01	   9.1262489e-02	   3.2066976e-01	
   5.8080000e+01	   7.6089791e-02	   3.1106784e-01	
   5.8135000e+01	   6.0821994e-02	   3.0139802e-01	
   5.8190000e+01	   4.5499219e-02	   2.9179103e-01	
   5.8245000e+01	   3.0139238e-02	   2.8236062e-01	
   5.8300000e+01	   1.4743258e-02	   2.7319675e-01	
   5.8355000e+01	  -6.9391754e-04	   2.6436221e-01	
   5.8410000e+01	  -1.6171485e-02	   2.5589337e-01	
   5.8465000e+01	  -3.1671443e-02	   2.4780345e-01	
   5.8520000e+01	  -4.7151891e-02	   2.4008637e-01	
   5.8575000e+01	  -6.2546006e-02	   2.3272027e-01	
   5.8630000e+01	  -7.7765261e-02	   2.2567049e-01	
   5.8685000e+01	  -9.2704342e-02	   2.1889170e-01	
   5.8740000e+01	  -1.0724611e-01	   2.1232902e-01	
   5.8795000e+01	  -1.2126648e-01	   2.0591856e-01	
   5.8850000e+01	  -1.3464036e-01	   1.9958812e-01	
   5.8905000e+01	  -1.4724860e-01	   1.9325849e-01	
   5.8960000e+01	  -1.5898383e-01	   1.8684675e-01	
   5.9015000e+01	  -1.6975209e-01	   1.8027233e-01	
   5.9070000e+01	  -1.7946991e-01	   1.7346538e-01	
   5.9125000e+01	  -1.8805945e-01	   1.6637508e-01	
   5.9180000e+01	  -1.9544475e-01	   1.5897519e-01	
   5.9235000e+01	  -2.0155091e-01	   1.5126567e-01	
   5.9290000e+01	  -2.0630608e-01	   1.4327056e-01	
   5.9345000e+01	  -2.0964596e-01	   1.3503373e-01	
   5.9400000e+01	  -2.1152066e-01	   1.2661389e-01	
   5.9455000e+01	  -2.1190290e-01	   1.1808020e-01	
   5.9510000e+01	  -2.1079515e-01	   1.0950878e-01	
   5.9565000e+01	  -2.0823268e-01	   1.0098070e-01	
   5.9620000e+01	  -2.0428080e-01	   9.2581782e-02	
   5.9675000e+01	  -1.9902581e-01	   8.4404155e-02	
   5.9730000e+01	  -1.9256270e-01	   7.6547796e-02	
   5.9785000e+01	  -1.8498535e-01	   6.9119782e-02	
   5.9840000e+01	  -1.7638269e-01	   6.2230360e-02	
   5.9895000e+01	  -1.6683989e-01	   5.5986287e-02	
   5.9950000e+01	  -1.5644147e-01	   5.0482221e-02	
   6.0005000e+01	  -1.4527581e-01	   4.5791140e-02	
   6.0060000e+01	  -1.3344216e-01	   4.1955174e-02	
   6.0115000e+01	  -1.2105955e-01	   3.8978269e-02	
   6.0170000e+01	  -1.0827500e-01	   3.6822140e-02	
   6.0225000e+01	  -9.5267613e-02	   3.5407083e-02	
   6.0280000e+01	  -8.2245892e-02	   3.4618818e-02	
   6.0335000e+01	  -6.9437252e-02	   3.4321168e-02	
   6.0390000e+01	  -5.7072670e-02	   3.4372248e-02	
   6.0445000e+01	  -4.5371474e-02	   3.4640052e-02	
   6.0500000e+01	  -3.4530031e-02	   3.5013912e-02	
   6.0555000e+01	  -2.4715184e-02	   3.5410907e-02	
   6.0610000e+01	  -1.6062036e-02	   3.5778100e-02	
   6.0665000e+01	  -8.6755949e-03	   3.6090892e-02	
   6.0720000e+01	  -2.6348978e-03	   3.6347118e-02	
   6.0775000e+01	   2.0024158e-03	   3.6557651e-02	
   6.0830000e+01	   5.1961418e-03	   3.6735950e-02	
   6.0885000e+01	   6.9202516e-03	   3.6889035e-02	
   6.0940000e+01	   7.1608898e-03	   3.7011653e-02	
   6.0995000e+01	   5.9169015e-03	   3.7084459e-02	
   6.1050000e+01	   3.2037764e-03	   3.7075893e-02	
   6.1105000e+01	  -9.3991429e-04	   3.6946527e-02	
   6.1160000e+01	  -6.4460957e-03	   3.6654449e-02	
   6.1215000e+01	  -1.3212896e-02	   3.6160580e-02	
   6.1270000e+01	  -2.1103474e-02	   3.5432859e-02	
   6.1325000e+01	  -2.9948409e-02	   3.4448431e-02	
   6.1380000e+01	  -3.9551084e-02	   3.3193771e-02	
   6.1435000e+01	  -4.9694608e-02	   3.1663430e-02	
   6.1490000e+01	  -6.0149635e-02	   2.9858131e-02	
   6.1545000e+01	  -7.0682815e-02	   2.7782697e-02	
   6.1600000e+01	  -8.1064095e-02	   2.5444241e-02	
   6.1655000e+01	  -9.1070452e-02	   2.2851096e-02	
   6.1710000e+01	  -1.0048620e-01	   2.0013187e-02	
   6.1765000e+01	  -1.0910282e-01	   1.6944443e-02	
   6.1820000e+01	  -1.1672072e-01	   1.3667002e-02	
   6.1875000e+01	  -1.2315340e-01	   1.0216090e-02	
   6.1930000e+01	  -1.2823331e-01	   6.6441237e-03	
   6.1985000e+01	  -1.3181954e-01	   3.0223281e-03	
   6.2040000e+01	  -1.3380648e-01	  -5.6158029e-04	
   6.2095000e+01	  -1.3413079e-01	  -4.0095259e-03	
   6.2150000e+01	  -1.3277488e-01	  -7.2210194e-03	
   6.2205000e+01	  -1.2976701e-01	  -1.0100562e-02	
   6.2260000e+01	  -1.2517831e-01	  -1.2562920e-02	
   6.2315000e+01	  -1.1911582e-01	  -1.4535437e-02	
   6.2370000e+01	  -1.1171185e-01	  -1.5957646e-02	
   6.2425000e+01	  -1.0311203e-01	  -1.6779975e-02	
   6.2480000e+01	  -9.3464781e-02	  -1.6963190e-02	
   6.2535000e+01	  -8.2913757e-02	  -1.6478283e-02	
   6.2590000e+01	  -7.1593495e-02	  -1.5305843e-02	
   6.2645000e+01	  -5.9627641e-02	  -1.3435457e-02	
   6.2700000e+01	  -4.7129181e-02	  -1.0866503e-02	
   6.2755000e+01	  -3.4201897e-02	  -7.6104205e-03	
   6.2810000e+01	  -2.0941338e-02	  -3.6932727e-03	
   6.2865000e+01	  -7.4337168e-03	   8.4225115e-04	
   6.2920000e+01	   6.2470851e-03	   5.9360129e-03	
   6.2975000e+01	   2.0043754e-02	   1.1511932e-02	
   6.3030000e+01	   3.3920784e-02	   1.7482304e-02	
   6.3085000e+01	   4.7868847e-02	   2.3753400e-02	
   6.3140000e+01	   6.1905383e-02	   3.0230349e-02	
   6.3195000e+01	   7.6071402e-02	   3.6821068e-02	
   6.3250000e+01	   9.0427215e-02	   4.3439801e-02	
   6.3305000e+01	   1.0504797e-01	   5.0009713e-02	
   6.3360000e+01	   1.2001685e-01	   5.6463349e-02	
   6.3415000e+01	   1.3541471e-01	   6.2740924e-02	
   6.3470000e+01	   1.5130774e-01	   6.8787368e-02	
   6.3525000e+01	   1.6773593e-01	   7.4548948e-02	
   6.3580000e+01	   1.8470435e-01	   7.9970450e-02	
   6.3635000e+01	   2.0217990e-01	   8.4994693e-02	
   6.3690000e+01	   2.2009446e-01	   8.9565501e-02	
   6.3745000e+01	   2.3835264e-01	   9.3633224e-02	
   6.3800000e+01	   2.5683960e-01	   9.7160917e-02	
   6.3855000e+01	   2.7542700e-01	   1.0012957e-01	
   6.3910000e+01	   2.9397777e-01	   1.0254106e-01	
   6.3965000e+01	   3.1235079e-01	   1.0441767e-01	
   6.4020000e+01	   3.3040362e-01	   1.0579763e-01	
   6.4075000e+01	   3.4799081e-01	   1.0672769e-01	
   6.4130000e+01	   3.6495692e-01	   1.0725469e-01	
   6.4185000e+01	   3.8112736e-01	   1.0741730e-01	
   6.4240000e+01	   3.9630152e-01	   1.0723857e-01	
   6.4295000e+01	   4.1025250e-01	   1.0672011e-01	
   6.4350000e+01	   4.2273519e-01	   1.0583981e-01	
   6.4405000e+01	   4.3350152e-01	   1.0455474e-01	
   6.4460000e+01	   4.4231920e-01	   1.0280844e-01	
   6.4515000e+01	   4.4899015e-01	   1.0054053e-01	
   6.4570000e+01	   4.5336692e-01	   9.7696449e-02	
   6.4625000e+01	   4.5536627e-01	   9.4236229e-02	
   6.4680000e+01	   4.5497723e-01	   9.0140770e-02	
   6.4735000e+01	   4.5226187e-01	   8.5414165e-02	
   6.4790000e+01	   4.4734968e-01	   8.0081462e-02	
   6.4845000e+01	   4.4042889e-01	   7.4182743e-02	
   6.4900000e+01	   4.3173645e-01	   6.7765729e-02	
   6.4955000e+01	   4.2154765e-01	   6.0879533e-02	
   6.5010000e+01	   4.1016576e-01	   5.3571397e-02	
   6.5065000e+01	   3.9791154e-01	   4.5886874e-02	
   6.5120000e+01	   3.8511302e-01	   3.7872939e-02	
   6.5175000e+01	   3.7209705e-01	   2.9582932e-02	
   6.5230000e+01	   3.5918317e-01	   2.1081700e-02	
   6.5285000e+01	   3.4667682e-01	   1.2449153e-02	
   6.5340000e+01	   3.3485857e-01	   3.7807489e-03	
   6.5395000e+01	   3.2397016e-01	  -4.8155903e-03	
   6.5450000e+01	   3.1420141e-01	  -1.3225659e-02	
   6.5505000e+01	   3.0568119e-01	  -2.1336846e-02	
   6.5560000e+01	   2.9847285e-01	  -2.9045888e-02	
   6.5615000e+01	   2.9257342e-01	  -3.6264864e-02	
   6.5670000e+01	   2.8791788e-01	  -4.2924411e-02	
   6.5725000e+01	   2.8439098e-01	  -4.8973776e-02	
   6.5780000e+01	   2.8184624e-01	  -5.4378178e-02	
   6.5835000e+01	   2.8012716e-01	  -5.9114759e-02	
   6.5890000e+01	   2.7908648e-01	  -6.3169042e-02	
   6.5945000e+01	   2.7860108e-01	  -6.6533502e-02	
   6.6000000e+01	   2.7858190e-01	  -6.9208793e-02	
   6.6055000e+01	   2.7897742e-01	  -7.1207183e-02	
   6.6110000e+01	   2.7977165e-01	  -7.2557193e-02	
   6.6165000e+01	   2.8097791e-01	  -7.3308190e-02	
   6.6220000e+01	   2.8263031e-01	  -7.3533721e-02	
   6.6275000e+01	   2.8477390e-01	  -7.3332190e-02	
   6.6330000e+01	   2.8745489e-01	  -7.2823700e-02	
   6.6385000e+01	   2.9071165e-01	  -7.2142872e-02	
   6.6440000e+01	   2.9456667e-01	  -7.1428721e-02	
   6.6495000e+01	   2.9902038e-01	  -7.0813321e-02	
   6.6550000e+01	   3.0404887e-01	  -7.0410880e-02	
   6.6605000e+01	   3.0960764e-01	  -7.0308544e-02	
   6.6660000e+01	   3.1564050e-01	  -7.0560375e-02	
   6.6715000e+01	   3.2209093e-01	  -7.1185621e-02	
   6.6770000e+01	   3.2891233e-01	  -7.2171378e-02	
   6.6825000e+01	   3.3607439e-01	  -7.3479313e-02	
   6.6880000e+01	   3.4356370e-01	  -7.5055951e-02	
   6.6935000e+01	   3.5137854e-01	  -7.6844977e-02	
   6.6990000e+01	   3.5952059e-01	  -7.8798586e-02	
   6.7045000e+01	   3.6798697e-01	  -8.0884730e-02	
   6.7100000e+01	   3.7676516e-01	  -8.3088690e-02	
   6.7155000e+01	   3.8583117e-01	  -8.5409502e-02	
   6.7210000e+01	   3.9514946e-01	  -8.7853254e-02	
   6.7265000e+01	   4.0467247e-01	  -9.0425610e-02	
   6.7320000e+01	   4.1433900e-01	  -9.3125336e-02	
   6.7375000e+01	   4.2407236e-01	  -9.5939210e-02	
   6.7430000e+01	   4.3378122e-01	  -9.8838176e-02	
   6.7485000e+01	   4.4336374e-01	  -1.0177537e-01	
   6.7540000e+01	   4.5271228e-01	  -1.0468725e-01	
   6.7595000e+01	   4.6171589e-01	  -1.0749811e-01	
   6.7650000e+01	   4.7026111e-01	  -1.1012669e-01	
   6.7705000e+01	   4.7823306e-01	  -1.1249354e-01	
   6.7760000e+01	   4.8551615e-01	  -1.1452836e-01	
   6.7815000e+01	   4.9199403e-01	  -1.1617583e-01	
   6.7870000e+01	   4.9755129e-01	  -1.1739799e-01	
   6.7925000e+01	   5.0207995e-01	  -1.1817326e-01	
   6.7980000e+01	   5.0549044e-01	  -1.1849409e-01	
   6.8035000e+01	   5.0772308e-01	  -1.1836501e-01	
   6.8090000e+01	   5.0875558e-01	  -1.1780141e-01	
   6.8145000e+01	   5.0860519e-01	  -1.1682812e-01	
   6.8200000e+01	   5.0732607e-01	  -1.1547827e-01	
   6.8255000e+01	   5.0500371e-01	  -1.1379294e-01	
   6.8310000e+01	   5.0174729e-01	  -1.1182169e-01	
   6.8365000e+01	   4.9768100e-01	  -1.0962349e-01	
   6.8420000e+01	   4.9293510e-01	  -1.0726676e-01	
   6.8475000e+01	   4.8763811e-01	  -1.0482836e-01	
   6.8530000e+01	   4.8191262e-01	  -1.0239104e-01	
   6.8585000e+01	   4.7587611e-01	  -1.0003904e-01	
   6.8640000e+01	   4.6964469e-01	  -9.7852184e-02	
   6.8695000e+01	   4.6333552e-01	  -9.5900409e-02	
   6.8750000e+01	   4.5706595e-01	  -9.4239857e-02	
   6.8805000e+01	   4.5094980e-01	  -9.2910681e-02	
   6.8860000e+01	   4.4509123e-01	  -9.1936179e-02	
   6.8915000e+01	   4.3957688e-01	  -9.1323022e-02	
   6.8970000e+01	   4.3446870e-01	  -9.1062380e-02	
   6.9025000e+01	   4.2980019e-01	  -9.1132002e-02	
   6.9080000e+01	   4.2557740e-01	  -9.1498955e-02	
   6.9135000e+01	   4.2178486e-01	  -9.2121714e-02	
   6.9190000e+01	   4.1839656e-01	  -9.2950204e-02	
   6.9245000e+01	   4.1539014e-01	  -9.3924319e-02	
   6.9300000e+01	   4.1276070e-01	  -9.4973247e-02	
   6.9355000e+01	   4.1053117e-01	  -9.6017050e-02	
   6.9410000e+01	   4.0875889e-01	  -9.6969548e-02	
   6.9465000e+01	   4.0753883e-01	  -9.7740779e-02	
   6.9520000e+01	   4.0700202e-01	  -9.8239085e-02	
   6.9575000e+01	   4.0730778e-01	  -9.8374546e-02	
   6.9630000e+01	   4.0863002e-01	  -9.8064455e-02	
   6.9685000e+01	   4.1114060e-01	  -9.7239294e-02	
   6.9740000e+01	   4.1499213e-01	  -9.5846962e-02	
   6.9795000e+01	   4.2030337e-01	  -9.3853756e-02	
   6.9850000e+01	   4.2715044e-01	  -9.1241619e-02	
   6.9905000e+01	   4.3556470e-01	  -8.8002564e-02	
   6.9960000e+01	   4.4553491e-01	  -8.4132567e-02	
   7.0015000e+01	   4.5701186e-01	  -7.9626926e-02	
   7.0070000e+01	   4.6991477e-01	  -7.4477497e-02	
   7.0125000e+01	   4.8413850e-01	  -6.8671743e-02	
   7.0180000e+01	   4.9956088e-01	  -6.2194578e-02	
   7.0235000e+01	   5.1605004e-01	  -5.5033963e-02	
   7.0290000e+01	   5.3347111e-01	  -4.7189346e-02	
   7.0345000e+01	   5.5169051e-01	  -3.8680412e-02	
   7.0400000e+01	   5.7057666e-01	  -2.9553554e-02	
   7.0455000e+01	   5.8999768e-01	  -1.9884211e-02	
   7.0510000e+01	   6.0981836e-01	  -9.7741940e-03	
   7.0565000e+01	   6.2989913e-01	   6.5565532e-04	
   7.0620000e+01	   6.5009881e-01	   1.1275609e-02	
   7.0675000e+01	   6.7027919e-01	   2.1957263e-02	
   7.0730000e+01	   6.9030732e-01	   3.2581682e-02	
   7.0785000e+01	   7.1005347e-01	   4.3044652e-02	
   7.0840000e+01	   7.2938636e-01	   5.3258722e-02	
   7.0895000e+01	   7.4816757e-01	   6.3151577e-02	
   7.0950000e+01	   7.6624597e-01	   7.2660894e-02	
   7.1005000e+01	   7.8345233e-01	   8.1726693e-02	
   7.1060000e+01	   7.9959459e-01	   9.0282701e-02	
   7.1115000e+01	   8.1445599e-01	   9.8248861e-02	
   7.1170000e+01	   8.2779913e-01	   1.0552779e-01	
   7.1225000e+01	   8.3937712e-01	   1.1200717e-01	
   7.1280000e+01	   8.4894912e-01	   1.1756763e-01	
   7.1335000e+01	   8.5629660e-01	   1.2209370e-01	
   7.1390000e+01	   8.6123757e-01	   1.2548592e-01	
   7.1445000e+01	   8.6363790e-01	   1.2767224e-01	
   7.1500000e+01	   8.6341945e-01	   1.2861686e-01	
   7.1555000e+01	   8.6056483e-01	   1.2832474e-01	
   7.1610000e+01	   8.5511838e-01	   1.2684163e-01	
   7.1665000e+01	   8.4718269e-01	   1.2424945e-01	
   7.1720000e+01	   8.3690972e-01	   1.2065820e-01	
   7.1775000e+01	   8.2448787e-01	   1.1619578e-01	
   7.1830000e+01	   8.1012757e-01	   1.1099799e-01	
   7.1885000e+01	   7.9404825e-01	   1.0519968e-01	
   7.1940000e+01	   7.7646856e-01	   9.8928057e-02	
   7.1995000e+01	   7.5760150e-01	   9.2299466e-02	
   7.2050000e+01	   7.3765513e-01	   8.5420627e-02	
   7.2105000e+01	   7.1683927e-01	   7.8392857e-02	
   7.2160000e+01	   6.9537615e-01	   7.1316383e-02	
   7.2215000e+01	   6.7351054e-01	   6.4292705e-02	
   7.2270000e+01	   6.5151460e-01	   5.7424854e-02	
   7.2325000e+01	   6.2968544e-01	   5.0816085e-02	
   7.2380000e+01	   6.0833658e-01	   4.4567474e-02	
   7.2435000e+01	   5.8778526e-01	   3.8774680e-02	
   7.2490000e+01	   5.6833731e-01	   3.3524305e-02	
   7.2545000e+01	   5.5027191e-01	   2.8890366e-02	
   7.2600000e+01	   5.3382965e-01	   2.4931616e-02	
   7.2655000e+01	   5.1920647e-01	   2.1690565e-02	
   7.2710000e+01	   5.0655318e-01	   1.9194609e-02	
   7.2765000e+01	   4.9597798e-01	   1.7458620e-02	
   7.2820000e+01	   4.8755000e-01	   1.6487860e-02	
   7.2875000e+01	   4.8130196e-01	   1.6280519e-02	
   7.2930000e+01	   4.7722911e-01	   1.6829228e-02	
   7.2985000e+01	   4.7528314e-01	   1.8120989e-02	
   7.3040000e+01	   4.7536400e-01	   2.0135908e-02	
   7.3095000e+01	   4.7731447e-01	   2.2845795e-02	
   7.3150000e+01	   4.8091991e-01	   2.6212712e-02	
   7.3205000e+01	   4.8591283e-01	   3.0186894e-02	
   7.3260000e+01	   4.9198234e-01	   3.4704456e-02	
   7.3315000e+01	   4.9878745e-01	   3.9686534e-02	
   7.3370000e+01	   5.0597302e-01	   4.5041451e-02	
   7.3425000e+01	   5.1318878e-01	   5.0670537e-02	
   7.3480000e+01	   5.2011178e-01	   5.6476673e-02	
   7.3535000e+01	   5.2646935e-01	   6.2372822e-02	
   7.3590000e+01	   5.3205711e-01	   6.8287833e-02	
   7.3645000e+01	   5.3674954e-01	   7.4169028e-02	
   7.3700000e+01	   5.4050337e-01	   7.9982666e-02	
   7.3755000e+01	   5.4335411e-01	   8.5712408e-02	
   7.3810000e+01	   5.4540538e-01	   9.1354917e-02	
   7.3865000e+01	   5.4681295e-01	   9.6912770e-02	
   7.3920000e+01	   5.4776755e-01	   1.0238622e-01	
   7.3975000e+01	   5.4847945e-01	   1.0776569e-01	
   7.4030000e+01	   5.4916562e-01	   1.1302689e-01	
   7.4085000e+01	   5.5003942e-01	   1.1813082e-01	
   7.4140000e+01	   5.5130185e-01	   1.2302901e-01	
   7.4195000e+01	   5.5313254e-01	   1.2767224e-01	
   7.4250000e+01	   5.5567951e-01	   1.3201980e-01	
   7.4305000e+01	   5.5904916e-01	   1.3604696e-01	
   7.4360000e+01	   5.6329775e-01	   1.3974885e-01	
   7.4415000e+01	   5.6842428e-01	   1.4313946e-01	
   7.4470000e+01	   5.7436435e-01	   1.4624611e-01	
   7.4525000e+01	   5.8098531e-01	   1.4910199e-01	
   7.4580000e+01	   5.8808474e-01	   1.5173930e-01	
   7.4635000e+01	   5.9539572e-01	   1.5418456e-01	
   7.4690000e+01	   6.0260106e-01	   1.5645706e-01	
   7.4745000e+01	   6.0935476e-01	   1.5857103e-01	
   7.4800000e+01	   6.1530601e-01	   1.6054058e-01	
   7.4855000e+01	   6.2012187e-01	   1.6238489e-01	
   7.4910000e+01	   6.2350690e-01	   1.6413172e-01	
   7.4965000e+01	   6.2521956e-01	   1.6581816e-01	
   7.5020000e+01	   6.2508519e-01	   1.6748915e-01	
   7.5075000e+01	   6.2300577e-01	   1.6919429e-01	
   7.5130000e+01	   6.1896586e-01	   1.7098369e-01	
   7.5185000e+01	   6.1303263e-01	   1.7290279e-01	
   7.5240000e+01	   6.0534796e-01	   1.7498575e-01	
   7.5295000e+01	   5.9611465e-01	   1.7724776e-01	
   7.5350000e+01	   5.8558044e-01	   1.7967811e-01	
   7.5405000e+01	   5.7402273e-01	   1.8223635e-01	
   7.5460000e+01	   5.6173530e-01	   1.8485282e-01	
   7.5515000e+01	   5.4901820e-01	   1.8743373e-01	
   7.5570000e+01	   5.3617061e-01	   1.8987003e-01	
   7.5625000e+01	   5.2348479e-01	   1.9204820e-01	
   7.5680000e+01	   5.1123978e-01	   1.9386088e-01	
   7.5735000e+01	   4.9969423e-01	   1.9521537e-01	
   7.5790000e+01	   4.8907721e-01	   1.9603859e-01	
   7.5845000e+01	   4.7957721e-01	   1.9627775e-01	
   7.5900000e+01	   4.7133164e-01	   1.9589808e-01	
   7.5955000e+01	   4.6441969e-01	   1.9487954e-01	
   7.6010000e+01	   4.5886021e-01	   1.9321390e-01	
   7.6065000e+01	   4.5461516e-01	   1.9090308e-01	
   7.6120000e+01	   4.5159952e-01	   1.8795944e-01	
   7.6175000e+01	   4.4969651e-01	   1.8440817e-01	
   7.6230000e+01	   4.4877407e-01	   1.8029005e-01	
   7.6285000e+01	   4.4869864e-01	   1.7566331e-01	
   7.6340000e+01	   4.4934408e-01	   1.7060328e-01	
   7.6395000e+01	   4.5059536e-01	   1.6519933e-01	
   7.6450000e+01	   4.5234740e-01	   1.5954953e-01	
   7.6505000e+01	   4.5450139e-01	   1.5375441e-01	
   7.6560000e+01	   4.5696038e-01	   1.4791130e-01	
   7.6615000e+01	   4.5962477e-01	   1.4210924e-01	
   7.6670000e+01	   4.6238886e-01	   1.3642397e-01	
   7.6725000e+01	   4.6514100e-01	   1.3091386e-01	
   7.6780000e+01	   4.6776864e-01	   1.2561925e-01	
   7.6835000e+01	   4.7016638e-01	   1.2056596e-01	
   7.6890000e+01	   4.7224418e-01	   1.1577235e-01	
   7.6945000e+01	   4.7393449e-01	   1.1125757e-01	
   7.7000000e+01	   4.7519703e-01	   1.0704861e-01	
   7.7055000e+01	   4.7602051e-01	   1.0318393e-01	
   7.7110000e+01	   4.7642125e-01	   9.9712440e-02	
   7.7165000e+01	   4.7643915e-01	   9.6688363e-02	
   7.7220000e+01	   4.7613007e-01	   9.4163012e-02	
   7.7275000e+01	   4.7555559e-01	   9.2176008e-02	
   7.7330000e+01	   4.7477305e-01	   9.0748358e-02	
   7.7385000e+01	   4.7382884e-01	   8.9878838e-02	
   7.7440000e+01	   4.7275484e-01	   8.9543727e-02	
   7.7495000e+01	   4.7156630e-01	   8.9699421e-02	
   7.7550000e+01	   4.7025995e-01	   9.0286959e-02	
   7.7605000e+01	   4.6881209e-01	   9.1236853e-02	
   7.7660000e+01	   4.6717821e-01	   9.2472871e-02	
   7.7715000e+01	   4.6529570e-01	   9.3914567e-02	
   7.7770000e+01	   4.6309021e-01	   9.5479100e-02	
   7.7825000e+01	   4.6048383e-01	   9.7082977e-02	
   7.7880000e+01	   4.5740233e-01	   9.8643847e-02	
   7.7935000e+01	   4.5377803e-01	   1.0008158e-01	
   7.7990000e+01	   4.4954655e-01	   1.0131774e-01	
   7.8045000e+01	   4.4463948e-01	   1.0227348e-01	
   7.8100000e+01	   4.3897812e-01	   1.0286786e-01	
   7.8155000e+01	   4.3247320e-01	   1.0301877e-01	
   7.8210000e+01	   4.2503264e-01	   1.0264749e-01	
   7.8265000e+01	   4.1657669e-01	   1.0168540e-01	
   7.8320000e+01	   4.0705726e-01	   1.0008069e-01	
   7.8375000e+01	   3.9647590e-01	   9.7804089e-02	
   7.8430000e+01	   3.8489484e-01	   9.4852778e-02	
   7.8485000e+01	   3.7243892e-01	   9.1251780e-02	
   7.8540000e+01	   3.5928847e-01	   8.7051753e-02	
   7.8595000e+01	   3.4566515e-01	   8.2322993e-02	
   7.8650000e+01	   3.3181253e-01	   7.7146832e-02	
   7.8705000e+01	   3.1797442e-01	   7.1606487e-02	
   7.8760000e+01	   3.0437491e-01	   6.5779257e-02	
   7.8815000e+01	   2.9120382e-01	   5.9731339e-02	
   7.8870000e+01	   2.7861033e-01	   5.3515934e-02	
   7.8925000e+01	   2.6670401e-01	   4.7174171e-02	
   7.8980000e+01	   2.5555904e-01	   4.0737054e-02	
   7.9035000e+01	   2.4521703e-01	   3.4226789e-02	
   7.9090000e+01	   2.3568777e-01	   2.7657592e-02	
   7.9145000e+01	   2.2694941e-01	   2.1036726e-02	
   7.9200000e+01	   2.1894952e-01	   1.4365674e-02	
   7.9255000e+01	   2.1160712e-01	   7.6413266e-03	
   7.9310000e+01	   2.0481524e-01	   8.5773003e-04	
   7.9365000e+01	   1.9844343e-01	  -5.9915918e-03	
   7.9420000e+01	   1.9234072e-01	  -1.2911376e-02	
   7.9475000e+01	   1.8634114e-01	  -1.9902124e-02	
   7.9530000e+01	   1.8027425e-01	  -2.6956587e-02	
   7.9585000e+01	   1.7397931e-01	  -3.4055786e-02	
   7.9640000e+01	   1.6731870e-01	  -4.1166037e-02	
   7.9695000e+01	   1.6018734e-01	  -4.8237774e-02	
   7.9750000e+01	   1.5251694e-01	  -5.5206487e-02	
   7.9805000e+01	   1.4427557e-01	  -6.1995892e-02	
   7.9860000e+01	   1.3546404e-01	  -6.8522598e-02	
   7.9915000e+01	   1.2611107e-01	  -7.4701125e-02	
   7.9970000e+01	   1.1626790e-01	  -8.0448700e-02	
   8.0025000e+01	   1.0600187e-01	  -8.5689293e-02	
   8.0080000e+01	   9.5391284e-02	  -9.0355862e-02	
   8.0135000e+01	   8.4524183e-02	  -9.4390029e-02	
   8.0190000e+01	   7.3501455e-02	  -9.7739656e-02	
   8.0245000e+01	   6.2442468e-02	  -1.0035568e-01	
   8.0300000e+01	   5.1490159e-02	  -1.0218969e-01	
   8.0355000e+01	   4.0811782e-02	  -1.0319337e-01	
   8.0410000e+01	   3.0592460e-02	  -1.0332034e-01	
   8.0465000e+01	   2.1021278e-02	  -1.0253070e-01	
   8.0520000e+01	   1.2271991e-02	  -1.0079792e-01	
   8.0575000e+01	   4.4822359e-03	  -9.8117423e-02	
   8.0630000e+01	  -2.2624995e-03	  -9.4514904e-02	
   8.0685000e+01	  -7.9342767e-03	  -9.0051685e-02	
   8.0740000e+01	  -1.2556869e-02	  -8.4825243e-02	
   8.0795000e+01	  -1.6192912e-02	  -7.8964788e-02	
   8.0850000e+01	  -1.8927834e-02	  -7.2622200e-02	
   8.0905000e+01	  -2.0851994e-02	  -6.5959584e-02	
   8.0960000e+01	  -2.2041905e-02	  -5.9136568e-02	
   8.1015000e+01	  -2.2542400e-02	  -5.2300568e-02	
   8.1070000e+01	  -2.2352618e-02	  -4.5580745e-02	
   8.1125000e+01	  -2.1418906e-02	  -3.9084420e-02	
   8.1180000e+01	  -1.9636593e-02	  -3.2894893e-02	
   8.1235000e+01	  -1.6861368e-02	  -2.7070742e-02	
   8.1290000e+01	  -1.2929653e-02	  -2.1647592e-02	
   8.1345000e+01	  -7.6850290e-03	  -1.6643541e-02	
   8.1400000e+01	  -1.0054984e-03	  -1.2067919e-02	
   8.1455000e+01	   7.1736522e-03	  -7.9308443e-03	
   8.1510000e+01	   1.6844800e-02	  -4.2502827e-03	
   8.1565000e+01	   2.7922257e-02	  -1.0543329e-03	
   8.1620000e+01	   4.0245784e-02	   1.6214809e-03	
   8.1675000e+01	   5.3591115e-02	   3.7399524e-03	
   8.1730000e+01	   6.7683632e-02	   5.2682644e-03	
   8.1785000e+01	   8.2212032e-02	   6.1829795e-03	
   8.1840000e+01	   9.6841002e-02	   6.4738386e-03	
   8.1895000e+01	   1.1122304e-01	   6.1459441e-03	
   8.1950000e+01	   1.2500967e-01	   5.2192760e-03	
   8.2005000e+01	   1.3786208e-01	   3.7250991e-03	
   8.2060000e+01	   1.4945996e-01	   1.7001279e-03	
   8.2115000e+01	   1.5950820e-01	  -8.1966707e-04	
   8.2170000e+01	   1.6774296e-01	  -3.8031832e-03	
   8.2225000e+01	   1.7393928e-01	  -7.2243778e-03	
   8.2280000e+01	   1.7791946e-01	  -1.1058536e-02	
   8.2335000e+01	   1.7955945e-01	  -1.5276360e-02	
   8.2390000e+01	   1.7879199e-01	  -1.9838045e-02	
   8.2445000e+01	   1.7560663e-01	  -2.4689164e-02	
   8.2500000e+01	   1.7004775e-01	  -2.9759659e-02	
   8.2555000e+01	   1.6221103e-01	  -3.4966246e-02	
   8.2610000e+01	   1.5223917e-01	  -4.0217696e-02	
   8.2665000e+01	   1.4031708e-01	  -4.5422128e-02	
   8.2720000e+01	   1.2666687e-01	  -5.0495366e-02	
   8.2775000e+01	   1.1154281e-01	  -5.5369223e-02	
   8.2830000e+01	   9.5226053e-02	  -5.9998599e-02	
   8.2885000e+01	   7.8018610e-02	  -6.4365919e-02	
   8.2940000e+01	   6.0238307e-02	  -6.8481178e-02	
   8.2995000e+01	   4.2216547e-02	  -7.2377309e-02	
   8.3050000e+01	   2.4296982e-02	  -7.6103015e-02	
   8.3105000e+01	   6.8307874e-03	  -7.9715720e-02	
   8.3160000e+01	  -9.8339126e-03	  -8.3275775e-02	
   8.3215000e+01	  -2.5368140e-02	  -8.6841910e-02	
   8.3270000e+01	  -3.9481629e-02	  -9.0467830e-02	
   8.3325000e+01	  -5.1941996e-02	  -9.4199798e-02	
   8.3380000e+01	  -6.2588952e-02	  -9.8074921e-02	
   8.3435000e+01	  -7.1341167e-02	  -1.0211964e-01	
   8.3490000e+01	  -7.8195154e-02	  -1.0634744e-01	
   8.3545000e+01	  -8.3215541e-02	  -1.1075495e-01	
   8.3600000e+01	  -8.6518452e-02	  -1.1531752e-01	
   8.3655000e+01	  -8.8253222e-02	  -1.1998713e-01	
   8.3710000e+01	  -8.8586740e-02	  -1.2469385e-01	
   8.3765000e+01	  -8.7691459e-02	  -1.2934998e-01	
   8.3820000e+01	  -8.5737420e-02	  -1.3385504e-01	
   8.3875000e+01	  -8.2888920e-02	  -1.3810054e-01	
   8.3930000e+01	  -7.9305369e-02	  -1.4197530e-01	
   8.3985000e+01	  -7.5144755e-02	  -1.4537244e-01	
   8.4040000e+01	  -7.0566898e-02	  -1.4819800e-01	
   8.4095000e+01	  -6.5732668e-02	  -1.5037920e-01	
   8.4150000e+01	  -6.0797249e-02	  -1.5186982e-01	
   8.4205000e+01	  -5.5899132e-02	  -1.5265141e-01	
   8.4260000e+01	  -5.1148240e-02	  -1.5273018e-01	
   8.4315000e+01	  -4.6616412e-02	  -1.5213078e-01	
   8.4370000e+01	  -4.2332566e-02	  -1.5088985e-01	
   8.4425000e+01	  -3.8282682e-02	  -1.4905203e-01	
   8.4480000e+01	  -3.4413408e-02	  -1.4666883e-01	
   8.4535000e+01	  -3.0638499e-02	  -1.4379924e-01	
   8.4590000e+01	  -2.6847239e-02	  -1.4051061e-01	
   8.4645000e+01	  -2.2913052e-02	  -1.3687901e-01	
   8.4700000e+01	  -1.8701298e-02	  -1.3298874e-01	
   8.4755000e+01	  -1.4076632e-02	  -1.2893155e-01	
   8.4810000e+01	  -8.9096383e-03	  -1.2480602e-01	
   8.4865000e+01	  -3.0813433e-03	  -1.2071582e-01	
   8.4920000e+01	   3.5139864e-03	  -1.1676567e-01	
   8.4975000e+01	   1.0965281e-02	  -1.1305558e-01	
   8.5030000e+01	   1.9339650e-02	  -1.0967527e-01	
   8.5085000e+01	   2.8677567e-02	  -1.0670059e-01	
   8.5140000e+01	   3.8989081e-02	  -1.0419264e-01	
   8.5195000e+01	   5.0250684e-02	  -1.0219924e-01	
   8.5250000e+01	   6.2403165e-02	  -1.0075772e-01	
   8.5305000e+01	   7.5350922e-02	  -9.9897771e-02	
   8.5360000e+01	   8.8962012e-02	  -9.9643730e-02	
   8.5415000e+01	   1.0306795e-01	  -1.0001597e-01	
   8.5470000e+01	   1.1746430e-01	  -1.0103116e-01	
   8.5525000e+01	   1.3191478e-01	  -1.0270057e-01	
   8.5580000e+01	   1.4616071e-01	  -1.0502653e-01	
   8.5635000e+01	   1.5993463e-01	  -1.0799837e-01	
   8.5690000e+01	   1.7297441e-01	  -1.1158992e-01	
   8.5745000e+01	   1.8503470e-01	  -1.1575988e-01	
   8.5800000e+01	   1.9589386e-01	  -1.2045502e-01	
   8.5855000e+01	   2.0535653e-01	  -1.2561528e-01	
   8.5910000e+01	   2.1325237e-01	  -1.3117936e-01	
   8.5965000e+01	   2.1943234e-01	  -1.3708959e-01	
   8.6020000e+01	   2.2376428e-01	  -1.4329555e-01	
   8.6075000e+01	   2.2612871e-01	  -1.4975680e-01	
   8.6130000e+01	   2.2641616e-01	  -1.5644418e-01	
   8.6185000e+01	   2.2452813e-01	  -1.6333883e-01	
   8.6240000e+01	   2.2038394e-01	  -1.7042812e-01	
   8.6295000e+01	   2.1393273e-01	  -1.7769950e-01	
   8.6350000e+01	   2.0516701e-01	  -1.8513475e-01	
   8.6405000e+01	   1.9413417e-01	  -1.9270649e-01	
   8.6460000e+01	   1.8094268e-01	  -2.0037793e-01	
   8.6515000e+01	   1.6576059e-01	  -2.0810510e-01	
   8.6570000e+01	   1.4880694e-01	  -2.1584070e-01	
   8.6625000e+01	   1.3033859e-01	  -2.2353942e-01	
   8.6680000e+01	   1.1063618e-01	  -2.3116362e-01	
   8.6735000e+01	   8.9992839e-02	  -2.3868735e-01	
   8.6790000e+01	   6.8708218e-02	  -2.4609637e-01	
   8.6845000e+01	   4.7087089e-02	  -2.5338450e-01	
   8.6900000e+01	   2.5439877e-02	  -2.6054835e-01	
   8.6955000e+01	   4.0826534e-03	  -2.6758252e-01	
   8.7010000e+01	  -1.6665844e-02	  -2.7447681e-01	
   8.7065000e+01	  -3.6491808e-02	  -2.8121651e-01	
   8.7120000e+01	  -5.5097312e-02	  -2.8778458e-01	
   8.7175000e+01	  -7.2211331e-02	  -2.9416426e-01	
   8.7230000e+01	  -8.7599015e-02	  -3.0034056e-01	
   8.7285000e+01	  -1.0106930e-01	  -3.0630016e-01	
   8.7340000e+01	  -1.1248065e-01	  -3.1202981e-01	
   8.7395000e+01	  -1.2174388e-01	  -3.1751419e-01	
   8.7450000e+01	  -1.2882220e-01	  -3.2273456e-01	
   8.7505000e+01	  -1.3372935e-01	  -3.2766830e-01	
   8.7560000e+01	  -1.3652658e-01	  -3.3228893e-01	
   8.7615000e+01	  -1.3731837e-01	  -3.3656664e-01	
   8.7670000e+01	  -1.3624607e-01	  -3.4046934e-01	
   8.7725000e+01	  -1.3347953e-01	  -3.4396364e-01	
   8.7780000e+01	  -1.2920902e-01	  -3.4701587e-01	
   8.7835000e+01	  -1.2364122e-01	  -3.4959514e-01	
   8.7890000e+01	  -1.1699985e-01	  -3.5167843e-01	
   8.7945000e+01	  -1.0952782e-01	  -3.5325652e-01	
   8.8000000e+01	  -1.0148700e-01	  -3.5433881e-01	
   8.8055000e+01	  -9.3153632e-02	  -3.5495638e-01	
   8.8110000e+01	  -8.4808734e-02	  -3.5516207e-01	
   8.8165000e+01	  -7.6725268e-02	  -3.5502771e-01	
   8.8220000e+01	  -6.9155971e-02	  -3.5464021e-01	
   8.8275000e+01	  -6.2325255e-02	  -3.5409750e-01	
   8.8330000e+01	  -5.6425797e-02	  -3.5350430e-01	
   8.8385000e+01	  -5.1618091e-02	  -3.5296711e-01	
   8.8440000e+01	  -4.8030493e-02	  -3.5258895e-01	
   8.8495000e+01	  -4.5758582e-02	  -3.5246438e-01	
   8.8550000e+01	  -4.4864727e-02	  -3.5267583e-01	
   8.8605000e+01	  -4.5378922e-02	  -3.5329235e-01	
   8.8660000e+01	  -4.7299668e-02	  -3.5436995e-01	
   8.8715000e+01	  -5.0592087e-02	  -3.5595195e-01	
   8.8770000e+01	  -5.5182121e-02	  -3.5806833e-01	
   8.8825000e+01	  -6.0949330e-02	  -3.6073404e-01	
   8.8880000e+01	  -6.7722745e-02	  -3.6394753e-01	
   8.8935000e+01	  -7.5283068e-02	  -3.6769068e-01	
   8.8990000e+01	  -8.3371805e-02	  -3.7193029e-01	
   8.9045000e+01	  -9.1706050e-02	  -3.7662043e-01	
   8.9100000e+01	  -9.9997328e-02	  -3.8170528e-01	
   8.9155000e+01	  -1.0797245e-01	  -3.8712346e-01	
   8.9210000e+01	  -1.1539293e-01	  -3.9281348e-01	
   8.9265000e+01	  -1.2206929e-01	  -3.9871929e-01	
   8.9320000e+01	  -1.2786898e-01	  -4.0479438e-01	
   8.9375000e+01	  -1.3271849e-01	  -4.1100374e-01	
   8.9430000e+01	  -1.3660018e-01	  -4.1732231e-01	
   8.9485000e+01	  -1.3954417e-01	  -4.2373043e-01	
   8.9540000e+01	  -1.4161751e-01	  -4.3020815e-01	
   8.9595000e+01	  -1.4291383e-01	  -4.3673117e-01	
   8.9650000e+01	  -1.4354635e-01	  -4.4326947e-01	
   8.9705000e+01	  -1.4364522e-01	  -4.4978858e-01	
   8.9760000e+01	  -1.4335826e-01	  -4.5625241e-01	
   8.9815000e+01	  -1.4285283e-01	  -4.6262649e-01	
   8.9870000e+01	  -1.4231677e-01	  -4.6888111e-01	
   8.9925000e+01	  -1.4195699e-01	  -4.7499447e-01	
   8.9980000e+01	  -1.4199588e-01	  -4.8095506e-01	
   9.0035000e+01	  -1.4266500e-01	  -4.8676296e-01	
   9.0090000e+01	  -1.4419468e-01	  -4.9242927e-01	
   9.0145000e+01	  -1.4679871e-01	  -4.9797390e-01	
   9.0200000e+01	  -1.5065662e-01	  -5.0342162e-01	
   9.0255000e+01	  -1.5589947e-01	  -5.0879807e-01	
   9.0310000e+01	  -1.6260408e-01	  -5.1412691e-01	
   9.0365000e+01	  -1.7079597e-01	  -5.1942848e-01	
   9.0420000e+01	  -1.8045771e-01	  -5.2471907e-01	
   9.0475000e+01	  -1.9153892e-01	  -5.3001018e-01	
   9.0530000e+01	  -2.0396573e-01	  -5.3530797e-01	
   9.0585000e+01	  -2.1764824e-01	  -5.4061321e-01	
   9.0640000e+01	  -2.3248584e-01	  -5.4592198e-01	
   9.0695000e+01	  -2.4837152e-01	  -5.5122690e-01	
   9.0750000e+01	  -2.6519551e-01	  -5.5651832e-01	
   9.0805000e+01	  -2.8284749e-01	  -5.6178458e-01	
   9.0860000e+01	  -3.0121692e-01	  -5.6701127e-01	
   9.0915000e+01	  -3.2019117e-01	  -5.7217975e-01	
   9.0970000e+01	  -3.3965154e-01	  -5.7726501e-01	
   9.1025000e+01	  -3.5946794e-01	  -5.8223395e-01	
   9.1080000e+01	  -3.7949450e-01	  -5.8704537e-01	
   9.1135000e+01	  -3.9956804e-01	  -5.9165173e-01	
   9.1190000e+01	  -4.1951059e-01	  -5.9600271e-01	
   9.1245000e+01	  -4.3913531e-01	  -6.0005049e-01	
   9.1300000e+01	  -4.5825396e-01	  -6.0375627e-01	
   9.1355000e+01	  -4.7668355e-01	  -6.0709573e-01	
   9.1410000e+01	  -4.9425091e-01	  -6.1006093e-01	
   9.1465000e+01	  -5.1079485e-01	  -6.1265767e-01	
   9.1520000e+01	  -5.2616578e-01	  -6.1489899e-01	
   9.1575000e+01	  -5.4022453e-01	  -6.1679697e-01	
   9.1630000e+01	  -5.5284253e-01	  -6.1835548e-01	
   9.1685000e+01	  -5.6390341e-01	  -6.1956541e-01	
   9.1740000e+01	  -5.7330502e-01	  -6.2040306e-01	
   9.1795000e+01	  -5.8096170e-01	  -6.2083158e-01	
   9.1850000e+01	  -5.8680835e-01	  -6.2080537e-01	
   9.1905000e+01	  -5.9080765e-01	  -6.2027713e-01	
   9.1960000e+01	  -5.9296030e-01	  -6.1920667e-01	
   9.2015000e+01	  -5.9331684e-01	  -6.1757079e-01	
   9.2070000e+01	  -5.9198777e-01	  -6.1537199e-01	
   9.2125000e+01	  -5.8914779e-01	  -6.1264291e-01	
   9.2180000e+01	  -5.8503271e-01	  -6.0944489e-01	
   9.2235000e+01	  -5.7993060e-01	  -6.0586181e-01	
   9.2290000e+01	  -5.7416919e-01	  -6.0199194e-01	
   9.2345000e+01	  -5.6810117e-01	  -5.9793968e-01	
   9.2400000e+01	  -5.6208901e-01	  -5.9380880e-01	
   9.2455000e+01	  -5.5649184e-01	  -5.8969798e-01	
   9.2510000e+01	  -5.5165639e-01	  -5.8569887e-01	
   9.2565000e+01	  -5.4791207e-01	  -5.8189659e-01	
   9.2620000e+01	  -5.4556834e-01	  -5.7837238e-01	
   9.2675000e+01	  -5.4491241e-01	  -5.7520725e-01	
   9.2730000e+01	  -5.4620516e-01	  -5.7248424e-01	
   9.2785000e+01	  -5.4967459e-01	  -5.7028684e-01	
   9.2840000e+01	  -5.5550574e-01	  -5.6869260e-01	
   9.2895000e+01	  -5.6382686e-01	  -5.6776219e-01	
   9.2950000e+01	  -5.7469306e-01	  -5.6752651e-01	
   9.3005000e+01	  -5.8807184e-01	  -5.6797626e-01	
   9.3060000e+01	  -6.0383416e-01	  -5.6905772e-01	
   9.3115000e+01	  -6.2175272e-01	  -5.7067524e-01	
   9.3170000e+01	  -6.4150771e-01	  -5.7269893e-01	
   9.3225000e+01	  -6.6270025e-01	  -5.7497569e-01	
   9.3280000e+01	  -6.8487289e-01	  -5.7734211e-01	
   9.3335000e+01	  -7.0753454e-01	  -5.7963735e-01	
   9.3390000e+01	  -7.3018594e-01	  -5.8171444e-01	
   9.3445000e+01	  -7.5234184e-01	  -5.8344906e-01	
   9.3500000e+01	  -7.7354752e-01	  -5.8474504e-01	
   9.3555000e+01	  -7.9339011e-01	  -5.8553557e-01	
   9.3610000e+01	  -8.1150692e-01	  -5.8578098e-01	
   9.3665000e+01	  -8.2759268e-01	  -5.8546437e-01	
   9.3720000e+01	  -8.4140603e-01	  -5.8458701e-01	
   9.3775000e+01	  -8.5277558e-01	  -5.8316442e-01	
   9.3830000e+01	  -8.6160530e-01	  -5.8122378e-01	
   9.3885000e+01	  -8.6787845e-01	  -5.7880223e-01	
   9.3940000e+01	  -8.7165903e-01	  -5.7594603e-01	
   9.3995000e+01	  -8.7309029e-01	  -5.7271031e-01	
   9.4050000e+01	  -8.7238962e-01	  -5.6915937e-01	
   9.4105000e+01	  -8.6983908e-01	  -5.6536637e-01	
   9.4160000e+01	  -8.6577123e-01	  -5.6141090e-01	
   9.4215000e+01	  -8.6055079e-01	  -5.5737425e-01	
   9.4270000e+01	  -8.5455427e-01	  -5.5333305e-01	
   9.4325000e+01	  -8.4814963e-01	  -5.4935364e-01	
   9.4380000e+01	  -8.4167781e-01	  -5.4548839e-01	
   9.4435000e+01	  -8.3543800e-01	  -5.4177455e-01	
   9.4490000e+01	  -8.2967777e-01	  -5.3823499e-01	
   9.4545000e+01	  -8.2458925e-01	  -5.3488046e-01	
   9.4600000e+01	  -8.2031079e-01	  -5.3171304e-01	
   9.4655000e+01	  -8.1693151e-01	  -5.2872969e-01	
   9.4710000e+01	  -8.1449502e-01	  -5.2592430e-01	
   9.4765000e+01	  -8.1300072e-01	  -5.2328742e-01	
   9.4820000e+01	  -8.1240359e-01	  -5.2080368e-01	
   9.4875000e+01	  -8.1261356e-01	  -5.1844825e-01	
   9.4930000e+01	  -8.1349687e-01	  -5.1618488e-01	
   9.4985000e+01	  -8.1488168e-01	  -5.1396710e-01	
   9.5040000e+01	  -8.1656804e-01	  -5.1174119e-01	
   9.5095000e+01	  -8.1833918e-01	  -5.0944877e-01	
   9.5150000e+01	  -8.1997273e-01	  -5.0702849e-01	
   9.5205000e+01	  -8.2125251e-01	  -5.0441791e-01	
   9.5260000e+01	  -8.2198157e-01	  -5.0155672e-01	
   9.5315000e+01	  -8.2199604e-01	  -4.9839090e-01	
   9.5370000e+01	  -8.2117693e-01	  -4.9487653e-01	
   9.5425000e+01	  -8.1945680e-01	  -4.9098127e-01	
   9.5480000e+01	  -8.1681896e-01	  -4.8668280e-01	
   9.5535000e+01	  -8.1329015e-01	  -4.8196558e-01	
   9.5590000e+01	  -8.0892982e-01	  -4.7681768e-01	
   9.5645000e+01	  -8.0381846e-01	  -4.7122918e-01	
   9.5700000e+01	  -7.9804673e-01	  -4.6519248e-01	
   9.5755000e+01	  -7.9170643e-01	  -4.5870455e-01	
   9.5810000e+01	  -7.8488463e-01	  -4.5176973e-01	
   9.5865000e+01	  -7.7766082e-01	  -4.4440194e-01	
   9.5920000e+01	  -7.7010676e-01	  -4.3662611e-01	
   9.5975000e+01	  -7.6228954e-01	  -4.2847837e-01	
   9.6030000e+01	  -7.5427724e-01	  -4.2000410e-01	
   9.6085000e+01	  -7.4614546e-01	  -4.1125285e-01	
   9.6140000e+01	  -7.3798251e-01	  -4.0227066e-01	
   9.6195000e+01	  -7.2989165e-01	  -3.9309228e-01	
   9.6250000e+01	  -7.2199014e-01	  -3.8373510e-01	
   9.6305000e+01	  -7.1440634e-01	  -3.7419586e-01	
   9.6360000e+01	  -7.0727743e-01	  -3.6445033e-01	
   9.6415000e+01	  -7.0074892e-01	  -3.5445600e-01	
   9.6470000e+01	  -6.9497459e-01	  -3.4415708e-01	
   9.6525000e+01	  -6.9011466e-01	  -3.3349101e-01	
   9.6580000e+01	  -6.8633111e-01	  -3.2239585e-01	
   9.6635000e+01	  -6.8378011e-01	  -3.1081782e-01	
   9.6690000e+01	  -6.8260227e-01	  -2.9871863e-01	
   9.6745000e+01	  -6.8291186e-01	  -2.8608116e-01	
   9.6800000e+01	  -6.8478671e-01	  -2.7291222e-01	
   9.6855000e+01	  -6.8825967e-01	  -2.5924183e-01	
   9.6910000e+01	  -6.9331315e-01	  -2.4512047e-01	
   9.6965000e+01	  -6.9987884e-01	  -2.3061600e-01	
   9.7020000e+01	  -7.0784350e-01	  -2.1581147e-01	
   9.7075000e+01	  -7.1705993e-01	  -2.0080390e-01	
   9.7130000e+01	  -7.2736039e-01	  -1.8570442e-01	
   9.7185000e+01	  -7.3857024e-01	  -1.7063912e-01	
   9.7240000e+01	  -7.5051957e-01	  -1.5575016e-01	
   9.7295000e+01	  -7.6305090e-01	  -1.4119604e-01	
   9.7350000e+01	  -7.7602174e-01	  -1.2714978e-01	
   9.7405000e+01	  -7.8930218e-01	  -1.1379392e-01	
   9.7460000e+01	  -8.0276789e-01	  -1.0131167e-01	
   9.7515000e+01	  -8.1629094e-01	  -8.9875696e-02	
   9.7570000e+01	  -8.2973224e-01	  -7.9637307e-02	
   9.7625000e+01	  -8.4293942e-01	  -7.0718368e-02	
   9.7680000e+01	  -8.5575126e-01	  -6.3206719e-02	
   9.7735000e+01	  -8.6800714e-01	  -5.7154781e-02	
   9.7790000e+01	  -8.7955934e-01	  -5.2580588e-02	
   9.7845000e+01	  -8.9028568e-01	  -4.9470701e-02	
   9.7900000e+01	  -9.0009936e-01	  -4.7784418e-02	
   9.7955000e+01	  -9.0895297e-01	  -4.7458218e-02	
   9.8010000e+01	  -9.1683501e-01	  -4.8409257e-02	
   9.8065000e+01	  -9.2376095e-01	  -5.0537283e-02	
   9.8120000e+01	  -9.2976307e-01	  -5.3724964e-02	
   9.8175000e+01	  -9.3488378e-01	  -5.7837318e-02	
   9.8230000e+01	  -9.3917459e-01	  -6.2721497e-02	
   9.8285000e+01	  -9.4269947e-01	  -6.8208424e-02	
   9.8340000e+01	  -9.4553958e-01	  -7.4117269e-02	
   9.8395000e+01	  -9.4779697e-01	  -8.0262240e-02	
   9.8450000e+01	  -9.4959550e-01	  -8.6459710e-02	
   9.8505000e+01	  -9.5107891e-01	  -9.2534233e-02	
   9.8560000e+01	  -9.5240646e-01	  -9.8323338e-02	
   9.8615000e+01	  -9.5374721e-01	  -1.0368121e-01	
   9.8670000e+01	  -9.5527291e-01	  -1.0848107e-01	
   9.8725000e+01	  -9.5714995e-01	  -1.1261651e-01	
   9.8780000e+01	  -9.5953022e-01	  -1.1600258e-01	
   9.8835000e+01	  -9.6254181e-01	  -1.1857693e-01	
   9.8890000e+01	  -9.6628095e-01	  -1.2030084e-01	
   9.8945000e+01	  -9.7080714e-01	  -1.2115936e-01	
   9.9000000e+01	  -9.7614148e-01	  -1.2116042e-01	
   9.9055000e+01	  -9.8226654e-01	  -1.2033313e-01	
   9.9110000e+01	  -9.8912731e-01	  -1.1872614e-01	
   9.9165000e+01	  -9.9663386e-01	  -1.1640637e-01	
   9.9220000e+01	  -1.0046645e+00	  -1.1345719e-01	
   9.9275000e+01	  -1.0130668e+00	  -1.0997398e-01	
   9.9330000e+01	  -1.0216567e+00	  -1.0605719e-01	
   9.9385000e+01	  -1.0302178e+00	  -1.0180499e-01	
   9.9440000e+01	  -1.0385050e+00	  -9.7306869e-02	
   9.9495000e+01	  -1.0462491e+00	  -9.2638360e-02	
   9.9550000e+01	  -1.0531652e+00	  -8.7856618e-02	
   9.9605000e+01	  -1.0589633e+00	  -8.2997276e-02	
   9.9660000e+01	  -1.0633631e+00	  -7.8073955e-02	
   9.9715000e+01	  -1.0661108e+00	  -7.3081324e-02	
   9.9770000e+01	  -1.0669953e+00	  -6.8000766e-02	
   9.9825000e+01	  -1.0658598e+00	  -6.2806195e-02	
   9.9880000e+01	  -1.0626039e+00	  -5.7467752e-02	
   9.9935000e+01	  -1.0571767e+00	  -5.1952739e-02	
   9.9990000e+01	  -1.0495664e+00	  -4.6224716e-02	
   1.0004500e+02	  -1.0397913e+00	  -4.0242320e-02	
   1.0010000e+02	  -1.0278978e+00	  -3.3959121e-02	
   1.0015500e+02	  -1.0139630e+00	  -2.7325224e-02	
   1.0021000e+02	  -9.9809903e-01	  -2.0290541e-02	
   1.0026500e+02	  -9.8045517e-01	  -1.2809001e-02	
   1.0032000e+02	  -9.6121774e-01	  -4.8428036e-03	
   1.0037500e+02	  -9.4060711e-01	   3.6338812e-03	
   1.0043000e+02	  -9.1887177e-01	   1.2632090e-02	
   1.0048500e+02	  -8.9627886e-01	   2.2146220e-02	
   1.0054000e+02	  -8.7310359e-01	   3.2153021e-02	
   1.0059500e+02	  -8.4962047e-01	   4.2611242e-02	
   1.0065000e+02	  -8.2609611e-01	   5.3462136e-02	
   1.0070500e+02	  -8.0278231e-01	   6.4630792e-02	
   1.0076000e+02	  -7.7991029e-01	   7.6027511e-02	
   1.0081500e+02	  -7.5768808e-01	   8.7548616e-02	
   1.0087000e+02	  -7.3630147e-01	   9.9077424e-02	
   1.0092500e+02	  -7.1591673e-01	   1.1048661e-01	
   1.0098000e+02	  -6.9668244e-01	   1.2164225e-01	
   1.0103500e+02	  -6.7872700e-01	   1.3240926e-01	
   1.0109000e+02	  -6.6214984e-01	   1.4265794e-01	
   1.0114500e+02	  -6.4700853e-01	   1.5227136e-01	
   1.0120000e+02	  -6.3330737e-01	   1.6115149e-01	
   1.0125500e+02	  -6.2099160e-01	   1.6922278e-01	
   1.0131000e+02	  -6.0994755e-01	   1.7643291e-01	
   1.0136500e+02	  -6.0000838e-01	   1.8275183e-01	
   1.0142000e+02	  -5.9096532e-01	   1.8816950e-01	
   1.0147500e+02	  -5.8258328e-01	   1.9269278e-01	
   1.0153000e+02	  -5.7461932e-01	   1.9634181e-01	
   1.0158500e+02	  -5.6684231e-01	   1.9914632e-01	
   1.0164000e+02	  -5.5905112e-01	   2.0114204e-01	
   1.0169500e+02	  -5.5108712e-01	   2.0236760e-01	
   1.0175000e+02	  -5.4283780e-01	   2.0286220e-01	
   1.0180500e+02	  -5.3423235e-01	   2.0266377e-01	
   1.0186000e+02	  -5.2523429e-01	   2.0180680e-01	
   1.0191500e+02	  -5.1583580e-01	   2.0032016e-01	
   1.0197000e+02	  -5.0605616e-01	   1.9822580e-01	
   1.0202500e+02	  -4.9594336e-01	   1.9553834e-01	
   1.0208000e+02	  -4.8557768e-01	   1.9226494e-01	
   1.0213500e+02	  -4.7507601e-01	   1.8840528e-01	
   1.0219000e+02	  -4.6459579e-01	   1.8395181e-01	
   1.0224500e+02	  -4.5433641e-01	   1.7889078e-01	
   1.0230000e+02	  -4.4453599e-01	   1.7320471e-01	
   1.0235500e+02	  -4.3546323e-01	   1.6687602e-01	
   1.0241000e+02	  -4.2740545e-01	   1.5989107e-01	
   1.0246500e+02	  -4.2065375e-01	   1.5224351e-01	
   1.0252000e+02	  -4.1548633e-01	   1.4393636e-01	
   1.0257500e+02	  -4.1215176e-01	   1.3498342e-01	
   1.0263000e+02	  -4.1085459e-01	   1.2541071e-01	
   1.0268500e+02	  -4.1174405e-01	   1.1525824e-01	
   1.0274000e+02	  -4.1490591e-01	   1.0458117e-01	
   1.0279500e+02	  -4.2035726e-01	   9.3449061e-02	
   1.0285000e+02	  -4.2804431e-01	   8.1942481e-02	
   1.0290500e+02	  -4.3784275e-01	   7.0148232e-02	
   1.0296000e+02	  -4.4955964e-01	   5.8155191e-02	
   1.0301500e+02	  -4.6293660e-01	   4.6051964e-02	
   1.0307000e+02	  -4.7765543e-01	   3.3926024e-02	
   1.0312500e+02	  -4.9334773e-01	   2.1863676e-02	
   1.0318000e+02	  -5.0960887e-01	   9.9505148e-03	
   1.0323500e+02	  -5.2601451e-01	  -1.7280662e-03	
   1.0329000e+02	  -5.4213670e-01	  -1.3087052e-02	
   1.0334500e+02	  -5.5755676e-01	  -2.4043080e-02	
   1.0340000e+02	  -5.7187520e-01	  -3.4516775e-02	
   1.0345500e+02	  -5.8472194e-01	  -4.4436101e-02	
   1.0351000e+02	  -5.9576821e-01	  -5.3740291e-02	
   1.0356500e+02	  -6.0473787e-01	  -6.2383148e-02	
   1.0362000e+02	  -6.1141480e-01	  -7.0334540e-02	
   1.0367500e+02	  -6.1564605e-01	  -7.7579608e-02	
   1.0373000e+02	  -6.1734239e-01	  -8.4115947e-02	
   1.0378500e+02	  -6.1647749e-01	  -8.9949669e-02	
   1.0384000e+02	  -6.1308564e-01	  -9.5091943e-02	
   1.0389500e+02	  -6.0725767e-01	  -9.9557357e-02	
   1.0395000e+02	  -5.9913501e-01	  -1.0336418e-01	
   1.0400500e+02	  -5.8890361e-01	  -1.0653563e-01	
   1.0406000e+02	  -5.7679062e-01	  -1.0910136e-01	
   1.0411500e+02	  -5.6306428e-01	  -1.1109876e-01	
   1.0417000e+02	  -5.4803356e-01	  -1.1257345e-01	
   1.0422500e+02	  -5.3204301e-01	  -1.1357841e-01	
   1.0428000e+02	  -5.1546095e-01	  -1.1417180e-01	
   1.0433500e+02	  -4.9866210e-01	  -1.1441407e-01	
   1.0439000e+02	  -4.8200843e-01	  -1.1436501e-01	
   1.0444500e+02	  -4.6583200e-01	  -1.1408250e-01	
   1.0450000e+02	  -4.5042218e-01	  -1.1362329e-01	
   1.0455500e+02	  -4.3601667e-01	  -1.1304520e-01	
   1.0461000e+02	  -4.2279561e-01	  -1.1240908e-01	
   1.0466500e+02	  -4.1088099e-01	  -1.1178122e-01	
   1.0472000e+02	  -4.0034329e-01	  -1.1123742e-01	
   1.0477500e+02	  -3.9121321e-01	  -1.1086799e-01	
   1.0483000e+02	  -3.8349265e-01	  -1.1078106e-01	
   1.0488500e+02	  -3.7716082e-01	  -1.1110216e-01	
   1.0494000e+02	  -3.7217532e-01	  -1.1196897e-01	
   1.0499500e+02	  -3.6847024e-01	  -1.1352156e-01	
   1.0505000e+02	  -3.6595449e-01	  -1.1589006e-01	
   1.0510500e+02	  -3.6451395e-01	  -1.1918269e-01	
   1.0516000e+02	  -3.6401853e-01	  -1.2347630e-01	
   1.0521500e+02	  -3.6433217e-01	  -1.2881014e-01	
   1.0527000e+02	  -3.6532333e-01	  -1.3518329e-01	
   1.0532500e+02	  -3.6687500e-01	  -1.4255593e-01	
   1.0538000e+02	  -3.6889396e-01	  -1.5085361e-01	
   1.0543500e+02	  -3.7131948e-01	  -1.5997367e-01	
   1.0549000e+02	  -3.7413027e-01	  -1.6979341e-01	
   1.0554500e+02	  -3.7734775e-01	  -1.8017918e-01	
   1.0560000e+02	  -3.8103288e-01	  -1.9099431e-01	
   1.0565500e+02	  -3.8527545e-01	  -2.0210343e-01	
   1.0571000e+02	  -3.9017821e-01	  -2.1337341e-01	
   1.0576500e+02	  -3.9583891e-01	  -2.2467343e-01	
   1.0582000e+02	  -4.0233165e-01	  -2.3587603e-01	
   1.0587500e+02	  -4.0968825e-01	  -2.4685889e-01	
   1.0593000e+02	  -4.1788394e-01	  -2.5750684e-01	
   1.0598500e+02	  -4.2683138e-01	  -2.6771460e-01	
   1.0604000e+02	  -4.3638392e-01	  -2.7739017e-01	
   1.0609500e+02	  -4.4634590e-01	  -2.8645813e-01	
   1.0615000e+02	  -4.5648798e-01	  -2.9486245e-01	
   1.0620500e+02	  -4.6656457e-01	  -3.0256795e-01	
   1.0626000e+02	  -4.7633006e-01	  -3.0955916e-01	
   1.0631500e+02	  -4.8555169e-01	  -3.1583587e-01	
   1.0637000e+02	  -4.9401873e-01	  -3.2140669e-01	
   1.0642500e+02	  -5.0154741e-01	  -3.2628295e-01	
   1.0648000e+02	  -5.0798240e-01	  -3.3047465e-01	
   1.0653500e+02	  -5.1319714e-01	  -3.3398841e-01	
   1.0659000e+02	  -5.1709626e-01	  -3.3682718e-01	
   1.0664500e+02	  -5.1962096e-01	  -3.3899179e-01	
   1.0670000e+02	  -5.2075563e-01	  -3.4048401e-01	
   1.0675500e+02	  -5.2053325e-01	  -3.4131022e-01	
   1.0681000e+02	  -5.1903746e-01	  -3.4148397e-01	
   1.0686500e+02	  -5.1639887e-01	  -3.4102580e-01	
   1.0692000e+02	  -5.1278578e-01	  -3.3995989e-01	
   1.0697500e+02	  -5.0839152e-01	  -3.3830877e-01	
   1.0703000e+02	  -5.0342254e-01	  -3.3608837e-01	
   1.0708500e+02	  -4.9808918e-01	  -3.3330546e-01	
   1.0714000e+02	  -4.9259922e-01	  -3.2995766e-01	
   1.0719500e+02	  -4.8715281e-01	  -3.2603523e-01	
   1.0725000e+02	  -4.8193730e-01	  -3.2152367e-01	
   1.0730500e+02	  -4.7712136e-01	  -3.1640725e-01	
   1.0736000e+02	  -4.7284960e-01	  -3.1067383e-01	
   1.0741500e+02	  -4.6923882e-01	  -3.0432133e-01	
   1.0747000e+02	  -4.6637597e-01	  -2.9736485e-01	
   1.0752500e+02	  -4.6431601e-01	  -2.8984232e-01	
   1.0758000e+02	  -4.6307902e-01	  -2.8181582e-01	
   1.0763500e+02	  -4.6264740e-01	  -2.7336657e-01	
   1.0769000e+02	  -4.6296267e-01	  -2.6458441e-01	
   1.0774500e+02	  -4.6392161e-01	  -2.5555491e-01	
   1.0780000e+02	  -4.6537368e-01	  -2.4634877e-01	
   1.0785500e+02	  -4.6712381e-01	  -2.3701655e-01	
   1.0791000e+02	  -4.6894180e-01	  -2.2758888e-01	
   1.0796500e+02	  -4.7057709e-01	  -2.1808054e-01	
   1.0802000e+02	  -4.7177669e-01	  -2.0849620e-01	
   1.0807500e+02	  -4.7230467e-01	  -1.9883695e-01	
   1.0813000e+02	  -4.7196150e-01	  -1.8910678e-01	
   1.0818500e+02	  -4.7060065e-01	  -1.7931896e-01	
   1.0824000e+02	  -4.6813922e-01	  -1.6950222e-01	
   1.0829500e+02	  -4.6455969e-01	  -1.5970499e-01	
   1.0835000e+02	  -4.5989991e-01	  -1.4999534e-01	
   1.0840500e+02	  -4.5423325e-01	  -1.4045554e-01	
   1.0846000e+02	  -4.4764634e-01	  -1.3117308e-01	
   1.0851500e+02	  -4.4022234e-01	  -1.2223051e-01	
   1.0857000e+02	  -4.3203265e-01	  -1.1369609e-01	
   1.0862500e+02	  -4.2313534e-01	  -1.0561674e-01	
   1.0868000e+02	  -4.1357856e-01	  -9.8015227e-02	
   1.0873500e+02	  -4.0340730e-01	  -9.0892276e-02	
   1.0879000e+02	  -3.9267115e-01	  -8.4232043e-02	
   1.0884500e+02	  -3.8143058e-01	  -7.8009244e-02	
   1.0890000e+02	  -3.6976175e-01	  -7.2196814e-02	
   1.0895500e+02	  -3.5775959e-01	  -6.6773321e-02	
   1.0901000e+02	  -3.4553679e-01	  -6.1728442e-02	
   1.0906500e+02	  -3.3321662e-01	  -5.7064581e-02	
   1.0912000e+02	  -3.2092203e-01	  -5.2794078e-02	
   1.0917500e+02	  -3.0876633e-01	  -4.8933456e-02	
   1.0923000e+02	  -2.9684832e-01	  -4.5496997e-02	
   1.0928500e+02	  -2.8525121e-01	  -4.2491478e-02	
   1.0934000e+02	  -2.7404328e-01	  -3.9913052e-02	
   1.0939500e+02	  -2.6327918e-01	  -3.7746711e-02	
   1.0945000e+02	  -2.5300134e-01	  -3.5968520e-02	
   1.0950500e+02	  -2.4324212e-01	  -3.4550351e-02	
   1.0956000e+02	  -2.3402739e-01	  -3.3465948e-02	
   1.0961500e+02	  -2.2538120e-01	  -3.2696422e-02	
   1.0967000e+02	  -2.1733067e-01	  -3.2233697e-02	
   1.0972500e+02	  -2.0991023e-01	  -3.2081335e-02	
   1.0978000e+02	  -2.0316372e-01	  -3.2252209e-02	
   1.0983500e+02	  -1.9714317e-01	  -3.2762420e-02	
   1.0989000e+02	  -1.9190583e-01	  -3.3622596e-02	
   1.0994500e+02	  -1.8751244e-01	  -3.4829508e-02	
   1.1000000e+02	  -1.8402765e-01	  -3.6360523e-02	
   1.1005500e+02	  -1.8151972e-01	  -3.8171525e-02	
   1.1011000e+02	  -1.8005790e-01	  -4.0197843e-02	
   1.1016500e+02	  -1.7970701e-01	  -4.2357335e-02	
   1.1022000e+02	  -1.8051979e-01	  -4.4554540e-02	
   1.1027500e+02	  -1.8252702e-01	  -4.6685085e-02	
   1.1033000e+02	  -1.8572693e-01	  -4.8640382e-02	
   1.1038500e+02	  -1.9007574e-01	  -5.0312677e-02	
   1.1044000e+02	  -1.9548043e-01	  -5.1599529e-02	
   1.1049500e+02	  -2.0179467e-01	  -5.2406277e-02	
   1.1055000e+02	  -2.0881833e-01	  -5.2645956e-02	
   1.1060500e+02	  -2.1630089e-01	  -5.2237309e-02	
   1.1066000e+02	  -2.2394847e-01	  -5.1102155e-02	
   1.1071500e+02	  -2.3143493e-01	  -4.9163412e-02	
   1.1077000e+02	  -2.3841740e-01	  -4.6344996e-02	
   1.1082500e+02	  -2.4455602e-01	  -4.2574883e-02	
   1.1088000e+02	  -2.4953615e-01	  -3.7791915e-02	
   1.1093500e+02	  -2.5308962e-01	  -3.1955457e-02	
   1.1099000e+02	  -2.5501210e-01	  -2.5055616e-02	
   1.1104500e+02	  -2.5517547e-01	  -1.7121103e-02	
   1.1110000e+02	  -2.5353361e-01	  -8.2220192e-03	
   1.1115500e+02	  -2.5011919e-01	   1.5336217e-03	
   1.1121000e+02	  -2.4503074e-01	   1.2008364e-02	
   1.1126500e+02	  -2.3841360e-01	   2.3045513e-02	
   1.1132000e+02	  -2.3043957e-01	   3.4478271e-02	
   1.1137500e+02	  -2.2128843e-01	   4.6137138e-02	
   1.1143000e+02	  -2.1113319e-01	   5.7856183e-02	
   1.1148500e+02	  -2.0013061e-01	   6.9478966e-02	
   1.1154000e+02	  -1.8841727e-01	   8.0864298e-02	
   1.1159500e+02	  -1.7611045e-01	   9.1890768e-02	
   1.1165000e+02	  -1.6331268e-01	   1.0245820e-01	
   1.1170500e+02	  -1.5011828e-01	   1.1248551e-01	
   1.1176000e+02	  -1.3661951e-01	   1.2190646e-01	
   1.1181500e+02	  -1.2291065e-01	   1.3066483e-01	
   1.1187000e+02	  -1.0908914e-01	   1.3871077e-01	
   1.1192500e+02	  -9.5253783e-02	   1.4599990e-01	
   1.1198000e+02	  -8.1500767e-02	   1.5249663e-01	
   1.1203500e+02	  -6.7920080e-02	   1.5818075e-01	
   1.1209000e+02	  -5.4594014e-02	   1.6305495e-01	
   1.1214500e+02	  -4.1597767e-02	   1.6715123e-01	
   1.1220000e+02	  -2.9001669e-02	   1.7053449e-01	
   1.1225500e+02	  -1.6875286e-02	   1.7330198e-01	
   1.1231000e+02	  -5.2928222e-03	   1.7557813e-01	
   1.1236500e+02	   5.6624976e-03	   1.7750559e-01	
   1.1242000e+02	   1.5896755e-02	   1.7923362e-01	
   1.1247500e+02	   2.5305716e-02	   1.8090500e-01	
   1.1253000e+02	   3.3776312e-02	   1.8264322e-01	
   1.1258500e+02	   4.1190324e-02	   1.8454319e-01	
   1.1264000e+02	   4.7431852e-02	   1.8666782e-01	
   1.1269500e+02	   5.2397598e-02	   1.8905025e-01	
   1.1275000e+02	   5.6006922e-02	   1.9170021e-01	
   1.1280500e+02	   5.8209551e-02	   1.9461268e-01	
   1.1286000e+02	   5.8990839e-02	   1.9777675e-01	
   1.1291500e+02	   5.8374806e-02	   2.0118216e-01	
   1.1297000e+02	   5.6424889e-02	   2.0482224e-01	
   1.1302500e+02	   5.3242931e-02	   2.0869340e-01	
   1.1308000e+02	   4.8966929e-02	   2.1279273e-01	
   1.1313500e+02	   4.3767036e-02	   2.1711456e-01	
   1.1319000e+02	   3.7839659e-02	   2.2164668e-01	
   1.1324500e+02	   3.1400976e-02	   2.2636768e-01	
   1.1330000e+02	   2.4681603e-02	   2.3124730e-01	
   1.1335500e+02	   1.7922803e-02	   2.3625100e-01	
   1.1341000e+02	   1.1372662e-02	   2.4134728e-01	
   1.1346500e+02	   5.2802813e-03	   2.4651483e-01	
   1.1352000e+02	  -1.1222314e-04	   2.5174666e-01	
   1.1357500e+02	  -4.5783741e-03	   2.5705033e-01	
   1.1363000e+02	  -7.9149248e-03	   2.6244527e-01	
   1.1368500e+02	  -9.9477913e-03	   2.6795861e-01	
   1.1374000e+02	  -1.0537057e-02	   2.7362045e-01	
   1.1379500e+02	  -9.5820310e-03	   2.7945877e-01	
   1.1385000e+02	  -7.0260843e-03	   2.8549449e-01	
   1.1390500e+02	  -2.8598696e-03	   2.9173742e-01	
   1.1396000e+02	   2.8777985e-03	   2.9818428e-01	
   1.1401500e+02	   1.0101066e-02	   3.0482011e-01	
   1.1407000e+02	   1.8680366e-02	   3.1162278e-01	
   1.1412500e+02	   2.8449559e-02	   3.1856903e-01	
   1.1418000e+02	   3.9218289e-02	   3.2563999e-01	
   1.1423500e+02	   5.0788139e-02	   3.3282541e-01	
   1.1429000e+02	   6.2968009e-02	   3.4012642e-01	
   1.1434500e+02	   7.5583797e-02	   3.4755520e-01	
   1.1440000e+02	   8.8480574e-02	   3.5513031e-01	
   1.1445500e+02	   1.0151940e-01	   3.6286891e-01	
   1.1451000e+02	   1.1457307e-01	   3.7077919e-01	
   1.1456500e+02	   1.2752482e-01	   3.7885648e-01	
   1.1462000e+02	   1.4027250e-01	   3.8708464e-01	
   1.1467500e+02	   1.5273706e-01	   3.9544188e-01	
   1.1473000e+02	   1.6487162e-01	   4.0390835e-01	
   1.1478500e+02	   1.7666733e-01	   4.1247259e-01	
   1.1484000e+02	   1.8815465e-01	   4.2113472e-01	
   1.1489500e+02	   1.9940089e-01	   4.2990590e-01	
   1.1495000e+02	   2.1050440e-01	   4.3880475e-01	
   1.1500500e+02	   2.2158494e-01	   4.4785128e-01	
   1.1506000e+02	   2.3276952e-01	   4.5705878e-01	
   1.1511500e+02	   2.4417589e-01	   4.6642585e-01	
   1.1517000e+02	   2.5589722e-01	   4.7593153e-01	
   1.1522500e+02	   2.6799160e-01	   4.8553537e-01	
   1.1528000e+02	   2.8047821e-01	   4.9518212e-01	
   1.1533500e+02	   2.9334264e-01	   5.0481052e-01	
   1.1539000e+02	   3.0655099e-01	   5.1436432e-01	
   1.1544500e+02	   3.2006755e-01	   5.2380163e-01	
   1.1550000e+02	   3.3386894e-01	   5.3309940e-01	
   1.1555500e+02	   3.4795166e-01	   5.4225373e-01	
   1.1561000e+02	   3.6233269e-01	   5.5127846e-01	
   1.1566500e+02	   3.7704359e-01	   5.6020289e-01	
   1.1572000e+02	   3.9212000e-01	   5.6906724e-01	
   1.1577500e+02	   4.0759038e-01	   5.7791522e-01	
   1.1583000e+02	   4.2346681e-01	   5.8678445e-01	
   1.1588500e+02	   4.3973725e-01	   5.9569659e-01	
   1.1594000e+02	   4.5635882e-01	   6.0464960e-01	
   1.1599500e+02	   4.7325420e-01	   6.1361403e-01	
   1.1605000e+02	   4.9031370e-01	   6.2253435e-01	
   1.1610500e+02	   5.0740297e-01	   6.3133506e-01	
   1.1616000e+02	   5.2437396e-01	   6.3992931e-01	
   1.1621500e+02	   5.4107676e-01	   6.4822783e-01	
   1.1627000e+02	   5.5737065e-01	   6.5614586e-01	
   1.1632500e+02	   5.7313177e-01	   6.6360733e-01	
   1.1638000e+02	   5.8825394e-01	   6.7054578e-01	
   1.1643500e+02	   6.0264263e-01	   6.7690281e-01	
   1.1649000e+02	   6.1620574e-01	   6.8262506e-01	
   1.1654500e+02	   6.2884606e-01	   6.8766130e-01	
   1.1660000e+02	   6.4045782e-01	   6.9196147e-01	
   1.1665500e+02	   6.5092787e-01	   6.9547886e-01	
   1.1671000e+02	   6.6014160e-01	   6.9817526e-01	
   1.1676500e+02	   6.6799334e-01	   7.0002772e-01	
   1.1682000e+02	   6.7439953e-01	   7.0103473e-01	
   1.1687500e+02	   6.7931088e-01	   7.0121976e-01	
   1.1693000e+02	   6.8271953e-01	   7.0063042e-01	
   1.1698500e+02	   6.8465845e-01	   6.9933306e-01	
   1.1704000e+02	   6.8519391e-01	   6.9740460e-01	
   1.1709500e+02	   6.8441463e-01	   6.9492415e-01	
   1.1715000e+02	   6.8242095e-01	   6.9196575e-01	
   1.1720500e+02	   6.7931616e-01	   6.8859309e-01	
   1.1726000e+02	   6.7520221e-01	   6.8485602e-01	
   1.1731500e+02	   6.7018029e-01	   6.8078941e-01	
   1.1737000e+02	   6.6435533e-01	   6.7641457e-01	
   1.1742500e+02	   6.5784192e-01	   6.7174375e-01	
   1.1748000e+02	   6.5076967e-01	   6.6678713e-01	
   1.1753500e+02	   6.4328559e-01	   6.6156040e-01	
   1.1759000e+02	   6.3555165e-01	   6.5609106e-01	
   1.1764500e+02	   6.2773701e-01	   6.5042160e-01	
   1.1770000e+02	   6.2000677e-01	   6.4460970e-01	
   1.1775500e+02	   6.1251040e-01	   6.3872633e-01	
   1.1781000e+02	   6.0537310e-01	   6.3285161e-01	
   1.1786500e+02	   5.9869091e-01	   6.2706850e-01	
   1.1792000e+02	   5.9252861e-01	   6.2145537e-01	
   1.1797500e+02	   5.8691913e-01	   6.1607995e-01	
   1.1803000e+02	   5.8186387e-01	   6.1099670e-01	
   1.1808500e+02	   5.7733425e-01	   6.0624735e-01	
   1.1814000e+02	   5.7327554e-01	   6.0186371e-01	
   1.1819500e+02	   5.6961417e-01	   5.9787136e-01	
   1.1825000e+02	   5.6626869e-01	   5.9429322e-01	
   1.1830500e+02	   5.6316335e-01	   5.9115169e-01	
   1.1836000e+02	   5.6024209e-01	   5.8846896e-01	
   1.1841500e+02	   5.5747902e-01	   5.8626577e-01	
   1.1847000e+02	   5.5488173e-01	   5.8455861e-01	
   1.1852500e+02	   5.5248751e-01	   5.8335598e-01	
   1.1858000e+02	   5.5035605e-01	   5.8265443e-01	
   1.1863500e+02	   5.4856211e-01	   5.8243533e-01	
   1.1869000e+02	   5.4718963e-01	   5.8266302e-01	
   1.1874500e+02	   5.4632819e-01	   5.8328505e-01	
   1.1880000e+02	   5.4607166e-01	   5.8423512e-01	
   1.1885500e+02	   5.4651746e-01	   5.8543814e-01	
   1.1891000e+02	   5.4776504e-01	   5.8681601e-01	
   1.1896500e+02	   5.4991242e-01	   5.8829267e-01	
   1.1902000e+02	   5.5305060e-01	   5.8979741e-01	
   1.1907500e+02	   5.5725581e-01	   5.9126625e-01	
   1.1913000e+02	   5.6258072e-01	   5.9264139e-01	
   1.1918500e+02	   5.6904689e-01	   5.9386918e-01	
   1.1924000e+02	   5.7664044e-01	   5.9489778e-01	
   1.1929500e+02	   5.8531021e-01	   5.9567530e-01	
   1.1935000e+02	   5.9496703e-01	   5.9614896e-01	
   1.1940500e+02	   6.0548579e-01	   5.9626652e-01	
   1.1946000e+02	   6.1671387e-01	   5.9598068e-01	
   1.1951500e+02	   6.2848565e-01	   5.9525490e-01	
   1.1957000e+02	   6.4063760e-01	   5.9406765e-01	
   1.1962500e+02	   6.5301852e-01	   5.9241361e-01	
   1.1968000e+02	   6.6549371e-01	   5.9030256e-01	
   1.1973500e+02	   6.7794440e-01	   5.8775683e-01	
   1.1979000e+02	   6.9026376e-01	   5.8480698e-01	
   1.1984500e+02	   7.0235061e-01	   5.8148604e-01	
   1.1990000e+02	   7.1410247e-01	   5.7782375e-01	
   1.1995500e+02	   7.2540906e-01	   5.7384179e-01	
   1.2001000e+02	   7.3614718e-01	   5.6955071e-01	
   1.2006500e+02	   7.4617878e-01	   5.6494988e-01	
   1.2012000e+02	   7.5535351e-01	   5.6003094e-01	
   1.2017500e+02	   7.6351505e-01	   5.5478369e-01	
   1.2023000e+02	   7.7050930e-01	   5.4920225e-01	
   1.2028500e+02	   7.7619244e-01	   5.4329029e-01	
   1.2034000e+02	   7.8043726e-01	   5.3706402e-01	
   1.2039500e+02	   7.8313683e-01	   5.3055269e-01	
   1.2045000e+02	   7.8420633e-01	   5.2379665e-01	
   1.2050500e+02	   7.8358479e-01	   5.1684428e-01	
   1.2056000e+02	   7.8123677e-01	   5.0974883e-01	
   1.2061500e+02	   7.7715108e-01	   5.0256471e-01	
   1.2067000e+02	   7.7133559e-01	   4.9534205e-01	
   1.2072500e+02	   7.6381050e-01	   4.8812051e-01	
   1.2078000e+02	   7.5460464e-01	   4.8092452e-01	
   1.2083500e+02	   7.4375737e-01	   4.7376224e-01	
   1.2089000e+02	   7.3132479e-01	   4.6662852e-01	
   1.2094500e+02	   7.1738695e-01	   4.5951020e-01	
   1.2100000e+02	   7.0205340e-01	   4.5239149e-01	
   1.2105500e+02	   6.8546525e-01	   4.4525797e-01	
   1.2111000e+02	   6.6779403e-01	   4.3809862e-01	
   1.2116500e+02	   6.4923918e-01	   4.3090690e-01	
   1.2122000e+02	   6.3002504e-01	   4.2368188e-01	
   1.2127500e+02	   6.1039601e-01	   4.1642887e-01	
   1.2133000e+02	   5.9060816e-01	   4.0915872e-01	
   1.2138500e+02	   5.7091923e-01	   4.0188551e-01	
   1.2144000e+02	   5.5157935e-01	   3.9462421e-01	
   1.2149500e+02	   5.3282347e-01	   3.8738978e-01	
   1.2155000e+02	   5.1486523e-01	   3.8019833e-01	
   1.2160500e+02	   4.9789185e-01	   3.7306930e-01	
   1.2166000e+02	   4.8205984e-01	   3.6602694e-01	
   1.2171500e+02	   4.6749215e-01	   3.5910063e-01	
   1.2177000e+02	   4.5427724e-01	   3.5232426e-01	
   1.2182500e+02	   4.4247027e-01	   3.4573562e-01	
   1.2188000e+02	   4.3209637e-01	   3.3937543e-01	
   1.2193500e+02	   4.2315570e-01	   3.3328558e-01	
   1.2199000e+02	   4.1562909e-01	   3.2750681e-01	
   1.2204500e+02	   4.0948232e-01	   3.2207675e-01	
   1.2210000e+02	   4.0466845e-01	   3.1702976e-01	
   1.2215500e+02	   4.0112945e-01	   3.1239790e-01	
   1.2221000e+02	   3.9879829e-01	   3.0821227e-01	
   1.2226500e+02	   3.9760073e-01	   3.0450379e-01	
   1.2232000e+02	   3.9745629e-01	   3.0130291e-01	
   1.2237500e+02	   3.9827923e-01	   2.9863787e-01	
   1.2243000e+02	   3.9998203e-01	   2.9653206e-01	
   1.2248500e+02	   4.0248072e-01	   2.9500154e-01	
   1.2254000e+02	   4.0569813e-01	   2.9405287e-01	
   1.2259500e+02	   4.0956136e-01	   2.9368013e-01	
   1.2265000e+02	   4.1399451e-01	   2.9386092e-01	
   1.2270500e+02	   4.1891164e-01	   2.9455287e-01	
   1.2276000e+02	   4.2421433e-01	   2.9569264e-01	
   1.2281500e+02	   4.2979564e-01	   2.9719825e-01	
   1.2287000e+02	   4.3554972e-01	   2.9897484e-01	
   1.2292500e+02	   4.4138234e-01	   3.0092292e-01	
   1.2298000e+02	   4.4721609e-01	   3.0294702e-01	
   1.2303500e+02	   4.5298811e-01	   3.0496263e-01	
   1.2309000e+02	   4.5864429e-01	   3.0690114e-01	
   1.2314500e+02	   4.6413370e-01	   3.0871239e-01	
   1.2320000e+02	   4.6940370e-01	   3.1036434e-01	
   1.2325500e+02	   4.7439501e-01	   3.1183974e-01	
   1.2331000e+02	   4.7903793e-01	   3.1313133e-01	
   1.2336500e+02	   4.8325138e-01	   3.1423676e-01	
   1.2342000e+02	   4.8694521e-01	   3.1515364e-01	
   1.2347500e+02	   4.9002624e-01	   3.1587484e-01	
   1.2353000e+02	   4.9240882e-01	   3.1638577e-01	
   1.2358500e+02	   4.9402846e-01	   3.1666534e-01	
   1.2364000e+02	   4.9485420e-01	   3.1669008e-01	
   1.2369500e+02	   4.9489463e-01	   3.1643919e-01	
   1.2375000e+02	   4.9419617e-01	   3.1589851e-01	
   1.2380500e+02	   4.9283579e-01	   3.1506269e-01	
   1.2386000e+02	   4.9091121e-01	   3.1393560e-01	
   1.2391500e+02	   4.8853062e-01	   3.1252924e-01	
   1.2397000e+02	   4.8580302e-01	   3.1086152e-01	
   1.2402500e+02	   4.8282962e-01	   3.0895329e-01	
   1.2408000e+02	   4.7969588e-01	   3.0682493e-01	
   1.2413500e+02	   4.7646433e-01	   3.0449290e-01	
   1.2419000e+02	   4.7316925e-01	   3.0196746e-01	
   1.2424500e+02	   4.6981365e-01	   2.9925289e-01	
   1.2430000e+02	   4.6636831e-01	   2.9635031e-01	
   1.2435500e+02	   4.6277338e-01	   2.9326184e-01	
   1.2441000e+02	   4.5894382e-01	   2.8999460e-01	
   1.2446500e+02	   4.5477909e-01	   2.8656294e-01	
   1.2452000e+02	   4.5017480e-01	   2.8298838e-01	
   1.2457500e+02	   4.4503380e-01	   2.7929725e-01	
   1.2463000e+02	   4.3927673e-01	   2.7551669e-01	
   1.2468500e+02	   4.3285226e-01	   2.7167032e-01	
   1.2474000e+02	   4.2574564e-01	   2.6777427e-01	
   1.2479500e+02	   4.1798412e-01	   2.6383476e-01	
   1.2485000e+02	   4.0964044e-01	   2.5984772e-01	
   1.2490500e+02	   4.0083579e-01	   2.5579995e-01	
   1.2496000e+02	   3.9174036e-01	   2.5167034e-01	
   1.2501500e+02	   3.8256828e-01	   2.4743066e-01	
   1.2507000e+02	   3.7356730e-01	   2.4304759e-01	
   1.2512500e+02	   3.6500556e-01	   2.3848672e-01	
   1.2518000e+02	   3.5715669e-01	   2.3371747e-01	
   1.2523500e+02	   3.5028348e-01	   2.2871756e-01	
   1.2529000e+02	   3.4462085e-01	   2.2347668e-01	
   1.2534500e+02	   3.4036038e-01	   2.1799887e-01	
   1.2540000e+02	   3.3763919e-01	   2.1230368e-01	
   1.2545500e+02	   3.3653476e-01	   2.0642711e-01	
   1.2551000e+02	   3.3706569e-01	   2.0042390e-01	
   1.2556500e+02	   3.3919593e-01	   1.9436992e-01	
   1.2562000e+02	   3.4283940e-01	   1.8836249e-01	
   1.2567500e+02	   3.4786342e-01	   1.8251663e-01	
   1.2573000e+02	   3.5409303e-01	   1.7695769e-01	
   1.2578500e+02	   3.6131789e-01	   1.7181149e-01	
   1.2584000e+02	   3.6930100e-01	   1.6719342e-01	
   1.2589500e+02	   3.7778708e-01	   1.6319797e-01	
   1.2595000e+02	   3.8651009e-01	   1.5989045e-01	
   1.2600500e+02	   3.9519951e-01	   1.5730162e-01	
   1.2606000e+02	   4.0358605e-01	   1.5542561e-01	
   1.2611500e+02	   4.1140930e-01	   1.5422188e-01	
   1.2617000e+02	   4.1842929e-01	   1.5362145e-01	
   1.2622500e+02	   4.2444025e-01	   1.5353623e-01	
   1.2628000e+02	   4.2928260e-01	   1.5386942e-01	
   1.2633500e+02	   4.3285024e-01	   1.5452598e-01	
   1.2639000e+02	   4.3509208e-01	   1.5542229e-01	
   1.2644500e+02	   4.3600816e-01	   1.5649313e-01	
   1.2650000e+02	   4.3564124e-01	   1.5769456e-01	
   1.2655500e+02	   4.3406460e-01	   1.5900206e-01	
   1.2661000e+02	   4.3136763e-01	   1.6040486e-01	
   1.2666500e+02	   4.2764153e-01	   1.6189770e-01	
   1.2672000e+02	   4.2296754e-01	   1.6347180e-01	
   1.2677500e+02	   4.1741021e-01	   1.6510645e-01	
   1.2683000e+02	   4.1101698e-01	   1.6676322e-01	
