
0   2   1   4
   0.0000000e+00	  -2.4270368e-01	   5.4566145e-01	  -5.6135202e-01	
   5.5000000e-02	  -2.4799577e-01	   5.2469345e-01	  -5.6315332e-01	
   1.1000000e-01	  -2.5234707e-01	   5.0631436e-01	  -5.6426581e-01	
   1.6500000e-01	  -2.5565671e-01	   4.9085621e-01	  -5.6454268e-01	
   2.2000000e-01	  -2.5783859e-01	   4.7858241e-01	  -5.6384840e-01	
   2.7500000e-01	  -2.5882521e-01	   4.6967746e-01	  -5.6206551e-01	
   3.3000000e-01	  -2.5857137e-01	   4.6424061e-01	  -5.5910164e-01	
   3.8500000e-01	  -2.5705620e-01	   4.6228552e-01	  -5.5489471e-01	
   4.4000000e-01	  -2.5428242e-01	   4.6374611e-01	  -5.4941435e-01	
   4.9500000e-01	  -2.5027336e-01	   4.6848647e-01	  -5.4266046e-01	
   5.5000000e-01	  -2.4506938e-01	   4.7631203e-01	  -5.3466081e-01	
   6.0500000e-01	  -2.3872428e-01	   4.8698115e-01	  -5.2546834e-01	
   6.6000000e-01	  -2.3130165e-01	   5.0021602e-01	  -5.1515743e-01	
   7.1500000e-01	  -2.2287130e-01	   5.1571109e-01	  -5.0381786e-01	
   7.7000000e-01	  -2.1350666e-01	   5.3313823e-01	  -4.9154676e-01	
   8.2500000e-01	  -2.0328334e-01	   5.5214944e-01	  -4.7843963e-01	
   8.8000000e-01	  -1.9227866e-01	   5.7237756e-01	  -4.6458197e-01	
   9.3500000e-01	  -1.8057125e-01	   5.9343470e-01	  -4.5004328e-01	
   9.9000000e-01	  -1.6823994e-01	   6.1490886e-01	  -4.3487406e-01	
   1.0450000e+00	  -1.5536233e-01	   6.3636176e-01	  -4.1910532e-01	
   1.1000000e+00	  -1.4201398e-01	   6.5733093e-01	  -4.0274960e-01	
   1.1550000e+00	  -1.2826905e-01	   6.7733658e-01	  -3.8580244e-01	
   1.2100000e+00	  -1.1420157e-01	   6.9589229e-01	  -3.6824392e-01	
   1.2650000e+00	  -9.9886910e-02	   7.1251847e-01	  -3.5004072e-01	
   1.3200000e+00	  -8.5402998e-02	   7.2675758e-01	  -3.3115016e-01	
   1.3750000e+00	  -7.0831233e-02	   7.3819056e-01	  -3.1152624e-01	
   1.4300000e+00	  -5.6256883e-02	   7.4645489e-01	  -2.9112579e-01	
   1.4850000e+00	  -4.1769285e-02	   7.5126363e-01	  -2.6991314e-01	
   1.5400000e+00	  -2.7462348e-02	   7.5242302e-01	  -2.4786360e-01	
   1.5950000e+00	  -1.3435325e-02	   7.4984616e-01	  -2.2496710e-01	
   1.6500000e+00	   2.0689017e-04	   7.4356279e-01	  -2.0123314e-01	
   1.7050000e+00	   1.3354516e-02	   7.3372597e-01	  -1.7669750e-01	
   1.7600000e+00	   2.5894487e-02	   7.2061692e-01	  -1.5142923e-01	
   1.8150000e+00	   3.7712837e-02	   7.0464858e-01	  -1.2553640e-01	
   1.8700000e+00	   4.8697914e-02	   6.8636759e-01	  -9.9170334e-02	
   1.9250000e+00	   5.8743530e-02	   6.6645237e-01	  -7.2529306e-02	
   1.9800000e+00	   6.7750477e-02	   6.4570386e-01	  -4.5861210e-02	
   2.0350000e+00	   7.5625984e-02	   6.2502662e-01	  -1.9463504e-02	
   2.0900000e+00	   8.2282249e-02	   6.0540038e-01	   6.3213764e-03	
   2.1450000e+00	   8.7635282e-02	   5.8784190e-01	   3.1115275e-02	
   2.2000000e+00	   9.1604963e-02	   5.7335540e-01	   5.4517770e-02	
   2.2550000e+00	   9.4117694e-02	   5.6286972e-01	   7.6125032e-02	
   2.3100000e+00	   9.5112928e-02	   5.5716347e-01	   9.5556267e-02	
   2.3650000e+00	   9.4553666e-02	   5.5678413e-01	   1.1248748e-01	
   2.4200000e+00	   9.2439629e-02	   5.6197451e-01	   1.2668802e-01	
   2.4750000e+00	   8.8820498e-02	   5.7262455e-01	   1.3805297e-01	
   2.5300000e+00	   8.3805660e-02	   5.8826287e-01	   1.4662450e-01	
   2.5850000e+00	   7.7567312e-02	   6.0809348e-01	   1.5259621e-01	
   2.6400000e+00	   7.0335236e-02	   6.3107152e-01	   1.5629706e-01	
   2.6950000e+00	   6.2383893e-02	   6.5600176e-01	   1.5815775e-01	
   2.7500000e+00	   5.4014829e-02	   6.8163987e-01	   1.5866884e-01	
   2.8050000e+00	   4.5537844e-02	   7.0678159e-01	   1.5833952e-01	
   2.8600000e+00	   3.7253116e-02	   7.3033437e-01	   1.5766112e-01	
   2.9150000e+00	   2.9435545e-02	   7.5137188e-01	   1.5707662e-01	
   2.9700000e+00	   2.2322428e-02	   7.6917450e-01	   1.5695786e-01	
   3.0250000e+00	   1.6104826e-02	   7.8325782e-01	   1.5759029e-01	
   3.0800000e+00	   1.0922115e-02	   7.9338923e-01	   1.5916338e-01	
   3.1350000e+00	   6.8589094e-03	   7.9959345e-01	   1.6176462e-01	
   3.1900000e+00	   3.9435949e-03	   8.0214916e-01	   1.6537745e-01	
   3.2450000e+00	   2.1481324e-03	   8.0157762e-01	   1.6988451e-01	
   3.3000000e+00	   1.3894169e-03	   7.9862190e-01	   1.7507658e-01	
   3.3550000e+00	   1.5327450e-03	   7.9421553e-01	   1.8066634e-01	
   3.4100000e+00	   2.3974329e-03	   7.8944060e-01	   1.8630611e-01	
   3.4650000e+00	   3.7637155e-03	   7.8547467e-01	   1.9160780e-01	
   3.5200000e+00	   5.3799615e-03	   7.8352459e-01	   1.9616448e-01	
   3.5750000e+00	   6.9708189e-03	   7.8474644e-01	   1.9957501e-01	
   3.6300000e+00	   8.2488855e-03	   7.9015627e-01	   2.0147356e-01	
   3.6850000e+00	   8.9320744e-03	   8.0054408e-01	   2.0156129e-01	
   3.7400000e+00	   8.7650098e-03	   8.1640806e-01	   1.9963343e-01	
   3.7950000e+00	   7.5390445e-03	   8.3792204e-01	   1.9559496e-01	
   3.8500000e+00	   5.1056289e-03	   8.6494056e-01	   1.8946141e-01	
   3.9050000e+00	   1.3808132e-03	   8.9703722e-01	   1.8134539e-01	
   3.9600000e+00	  -3.6578997e-03	   9.3356444e-01	   1.7143341e-01	
   4.0150000e+00	  -9.9786767e-03	   9.7372009e-01	   1.5996014e-01	
   4.0700000e+00	  -1.7502916e-02	   1.0166106e+00	   1.4718547e-01	
   4.1250000e+00	  -2.6112029e-02	   1.0613069e+00	   1.3337744e-01	
   4.1800000e+00	  -3.5653884e-02	   1.1068914e+00	   1.1880247e-01	
   4.2350000e+00	  -4.5949496e-02	   1.1524966e+00	   1.0372233e-01	
   4.2900000e+00	  -5.6800381e-02	   1.1973329e+00	   8.8393982e-02	
   4.3450000e+00	  -6.7996977e-02	   1.2407075e+00	   7.3068274e-02	
   4.4000000e+00	  -7.9327691e-02	   1.2820336e+00	   5.7986189e-02	
   4.4550000e+00	  -9.0587148e-02	   1.3208326e+00	   4.3374242e-02	
   4.5100000e+00	  -1.0158233e-01	   1.3567303e+00	   2.9440977e-02	
   4.5650000e+00	  -1.1213656e-01	   1.3894469e+00	   1.6375539e-02	
   4.6200000e+00	  -1.2209201e-01	   1.4187846e+00	   4.3473368e-03	
   4.6750000e+00	  -1.3131165e-01	   1.4446117e+00	  -6.4953742e-03	
   4.7300000e+00	  -1.3968108e-01	   1.4668453e+00	  -1.6028917e-02	
   4.7850000e+00	  -1.4711026e-01	   1.4854339e+00	  -2.4158075e-02	
   4.8400000e+00	  -1.5353465e-01	   1.5003417e+00	  -3.0817990e-02	
   4.8950000e+00	  -1.5891493e-01	   1.5115386e+00	  -3.5972954e-02	
   4.9500000e+00	  -1.6323563e-01	   1.5189962e+00	  -3.9612793e-02	
   5.0050000e+00	  -1.6650337e-01	   1.5226902e+00	  -4.1748431e-02	
   5.0600000e+00	  -1.6874530e-01	   1.5226085e+00	  -4.2408486e-02	
   5.1150000e+00	  -1.7000766e-01	   1.5187603e+00	  -4.1638387e-02	
   5.1700000e+00	  -1.7035476e-01	   1.5111867e+00	  -3.9501999e-02	
   5.2250000e+00	  -1.6986805e-01	   1.4999673e+00	  -3.6083609e-02	
   5.2800000e+00	  -1.6864511e-01	   1.4852255e+00	  -3.1487807e-02	
   5.3350000e+00	  -1.6679787e-01	   1.4671302e+00	  -2.5836999e-02	
   5.3900000e+00	  -1.6444981e-01	   1.4458985e+00	  -1.9268247e-02	
   5.4450000e+00	  -1.6173120e-01	   1.4217962e+00	  -1.1930660e-02	
   5.5000000e+00	  -1.5877256e-01	   1.3951396e+00	  -3.9832708e-03	
   5.5550000e+00	  -1.5569732e-01	   1.3662945e+00	   4.4072034e-03	
   5.6100000e+00	  -1.5261595e-01	   1.3356770e+00	   1.3069006e-02	
   5.6650000e+00	  -1.4962282e-01	   1.3037535e+00	   2.1828155e-02	
   5.7200000e+00	  -1.4679564e-01	   1.2710407e+00	   3.0510665e-02	
   5.7750000e+00	  -1.4419581e-01	   1.2381039e+00	   3.8943637e-02	
   5.8300000e+00	  -1.4186858e-01	   1.2055502e+00	   4.6955533e-02	
   5.8850000e+00	  -1.3984339e-01	   1.1740146e+00	   5.4377121e-02	
   5.9400000e+00	  -1.3813525e-01	   1.1441404e+00	   6.1044459e-02	
   5.9950000e+00	  -1.3674705e-01	   1.1165536e+00	   6.6803780e-02	
   6.0500000e+00	  -1.3567188e-01	   1.0918337e+00	   7.1517389e-02	
   6.1050000e+00	  -1.3489478e-01	   1.0704814e+00	   7.5071097e-02	
   6.1600000e+00	  -1.3439348e-01	   1.0528834e+00	   7.7384633e-02	
   6.2150000e+00	  -1.3413782e-01	   1.0392741e+00	   7.8425352e-02	
   6.2700000e+00	  -1.3408723e-01	   1.0296968e+00	   7.8223976e-02	
   6.3250000e+00	  -1.3418549e-01	   1.0239717e+00	   7.6889949e-02	
   6.3800000e+00	  -1.3435382e-01	   1.0216853e+00	   7.4621994e-02	
   6.4350000e+00	  -1.3448662e-01	   1.0222118e+00	   7.1707591e-02	
   6.4900000e+00	  -1.3445371e-01	   1.0247638e+00	   6.8507558e-02	
   6.5450000e+00	  -1.3410915e-01	   1.0284623e+00	   6.5428807e-02	
   6.6000000e+00	  -1.3330375e-01	   1.0324051e+00	   6.2893543e-02	
   6.6550000e+00	  -1.3189806e-01	   1.0357236e+00	   6.1311684e-02	
   6.7100000e+00	  -1.2977413e-01	   1.0376271e+00	   6.1057906e-02	
   6.7650000e+00	  -1.2684511e-01	   1.0374375e+00	   6.2451077e-02	
   6.8200000e+00	  -1.2306201e-01	   1.0346169e+00	   6.5734269e-02	
   6.8750000e+00	  -1.1841779e-01	   1.0287882e+00	   7.1056392e-02	
   6.9300000e+00	  -1.1294896e-01	   1.0197496e+00	   7.8458539e-02	
   6.9850000e+00	  -1.0673489e-01	   1.0074851e+00	   8.7867496e-02	
   7.0400000e+00	  -9.9894420e-02	   9.9216917e-01	   9.9096609e-02	
   7.0950000e+00	  -9.2579962e-02	   9.7416219e-01	   1.1185292e-01	
   7.1500000e+00	  -8.4969782e-02	   9.5399529e-01	   1.2575025e-01	
   7.2050000e+00	  -7.7259109e-02	   9.3234299e-01	   1.4032943e-01	
   7.2600000e+00	  -6.9650232e-02	   9.0998028e-01	   1.5508653e-01	
   7.3150000e+00	  -6.2341267e-02	   8.8772261e-01	   1.6950847e-01	
   7.3700000e+00	  -5.5513805e-02	   8.6635203e-01	   1.8311256e-01	
   7.4250000e+00	  -4.9320826e-02	   8.4654224e-01	   1.9548416e-01	
   7.4800000e+00	  -4.3876847e-02	   8.2879951e-01	   2.0630590e-01	
   7.5350000e+00	  -3.9252210e-02	   8.1343369e-01	   2.1537279e-01	
   7.5900000e+00	  -3.5473064e-02	   8.0056396e-01	   2.2259091e-01	
   7.6450000e+00	  -3.2527380e-02	   7.9015418e-01	   2.2796052e-01	
   7.7000000e+00	  -3.0375287e-02	   7.8206397e-01	   2.3154834e-01	
   7.7550000e+00	  -2.8960676e-02	   7.7609945e-01	   2.3345658e-01	
   7.8100000e+00	  -2.8221334e-02	   7.7205404e-01	   2.3379606e-01	
   7.8650000e+00	  -2.8096217e-02	   7.6973748e-01	   2.3266772e-01	
   7.9200000e+00	  -2.8530127e-02	   7.6899291e-01	   2.3015447e-01	
   7.9750000e+00	  -2.9477024e-02	   7.6970069e-01	   2.2632244e-01	
   8.0300000e+00	  -3.0902813e-02	   7.7176606e-01	   2.2123081e-01	
   8.0850000e+00	  -3.2786944e-02	   7.7508810e-01	   2.1494924e-01	
   8.1400000e+00	  -3.5121027e-02	   7.7951012e-01	   2.0758171e-01	
   8.1950000e+00	  -3.7902524e-02	   7.8475987e-01	   1.9929482e-01	
   8.2500000e+00	  -4.1123532e-02	   7.9039499e-01	   1.9034620e-01	
   8.3050000e+00	  -4.4758128e-02	   7.9576925e-01	   1.8110592e-01	
   8.3600000e+00	  -4.8752754e-02	   8.0002897e-01	   1.7206305e-01	
   8.4150000e+00	  -5.3021472e-02	   8.0214320e-01	   1.6381309e-01	
   8.4700000e+00	  -5.7445741e-02	   8.0096491e-01	   1.5702595e-01	
   8.5250000e+00	  -6.1878505e-02	   7.9531234e-01	   1.5239827e-01	
   8.5800000e+00	  -6.6151813e-02	   7.8405619e-01	   1.5059836e-01	
   8.6350000e+00	  -7.0085513e-02	   7.6620235e-01	   1.5221439e-01	
   8.6900000e+00	  -7.3495108e-02	   7.4096394e-01	   1.5771390e-01	
   8.7450000e+00	  -7.6199372e-02	   7.0781926e-01	   1.6741647e-01	
   8.8000000e+00	  -7.8028979e-02	   6.6655355e-01	   1.8147729e-01	
   8.8550000e+00	  -7.8836155e-02	   6.1728306e-01	   1.9987923e-01	
   8.9100000e+00	  -7.8504670e-02	   5.6046012e-01	   2.2243179e-01	
   8.9650000e+00	  -7.6959481e-02	   4.9685748e-01	   2.4877691e-01	
   9.0200000e+00	  -7.4174770e-02	   4.2753130e-01	   2.7840245e-01	
   9.0750000e+00	  -7.0178664e-02	   3.5376176e-01	   3.1066463e-01	
   9.1300000e+00	  -6.5053089e-02	   2.7697321e-01	   3.4481868e-01	
   9.1850000e+00	  -5.8928180e-02	   1.9864387e-01	   3.8005537e-01	
   9.2400000e+00	  -5.1972223e-02	   1.2022154e-01	   4.1553948e-01	
   9.2950000e+00	  -4.4379514e-02	   4.3057871e-02	   4.5044712e-01	
   9.3500000e+00	  -3.6358454e-02	  -3.1636481e-02	   4.8399983e-01	
   9.4050000e+00	  -2.8120875e-02	  -1.0282000e-01	   5.1549488e-01	
   9.4600000e+00	  -1.9872630e-02	  -1.6963626e-01	   5.4433084e-01	
   9.5150000e+00	  -1.1805146e-02	  -2.3141982e-01	   5.7002746e-01	
   9.5700000e+00	  -4.0879298e-03	  -2.8769347e-01	   5.9223803e-01	
   9.6250000e+00	   3.1373886e-03	  -3.3815801e-01	   6.1075318e-01	
   9.6800000e+00	   9.7605558e-03	  -3.8267724e-01	   6.2549658e-01	
   9.7350000e+00	   1.5703198e-02	  -4.2126039e-01	   6.3651435e-01	
   9.7900000e+00	   2.0916636e-02	  -4.5404444e-01	   6.4396100e-01	
   9.8450000e+00	   2.5378102e-02	  -4.8127736e-01	   6.4808387e-01	
   9.9000000e+00	   2.9086621e-02	  -5.0330206e-01	   6.4920683e-01	
   9.9550000e+00	   3.2059507e-02	  -5.2053952e-01	   6.4771274e-01	
   1.0010000e+01	   3.4329960e-02	  -5.3347043e-01	   6.4402548e-01	
   1.0065000e+01	   3.5945798e-02	  -5.4261580e-01	   6.3859321e-01	
   1.0120000e+01	   3.6968988e-02	  -5.4851683e-01	   6.3187449e-01	
   1.0175000e+01	   3.7475694e-02	  -5.5171493e-01	   6.2432684e-01	
   1.0230000e+01	   3.7556869e-02	  -5.5273331e-01	   6.1639790e-01	
   1.0285000e+01	   3.7319513e-02	  -5.5206182e-01	   6.0851976e-01	
   1.0340000e+01	   3.6888080e-02	  -5.5014671e-01	   6.0110605e-01	
   1.0395000e+01	   3.6404726e-02	  -5.4738587e-01	   5.9454834e-01	
   1.0450000e+01	   3.6027388e-02	  -5.4413004e-01	   5.8920887e-01	
   1.0505000e+01	   3.5926004e-02	  -5.4068809e-01	   5.8540925e-01	
   1.0560000e+01	   3.6277969e-02	  -5.3733394e-01	   5.8341720e-01	
   1.0615000e+01	   3.7263155e-02	  -5.3431371e-01	   5.8343354e-01	
   1.0670000e+01	   3.9058064e-02	  -5.3185317e-01	   5.8558122e-01	
   1.0725000e+01	   4.1829019e-02	  -5.3016473e-01	   5.8989869e-01	
   1.0780000e+01	   4.5725046e-02	  -5.2945109e-01	   5.9633944e-01	
   1.0835000e+01	   5.0871119e-02	  -5.2990387e-01	   6.0477952e-01	
   1.0890000e+01	   5.7361859e-02	  -5.3169730e-01	   6.1503251e-01	
   1.0945000e+01	   6.5255735e-02	  -5.3497924e-01	   6.2686893e-01	
   1.1000000e+01	   7.4570349e-02	  -5.3986150e-01	   6.4003635e-01	
   1.1055000e+01	   8.5279759e-02	  -5.4641118e-01	   6.5427740e-01	
   1.1110000e+01	   9.7314274e-02	  -5.5464349e-01	   6.6934395e-01	
   1.1165000e+01	   1.1056255e-01	  -5.6451646e-01	   6.8500646e-01	
   1.1220000e+01	   1.2487556e-01	  -5.7592907e-01	   7.0105812e-01	
   1.1275000e+01	   1.4007214e-01	  -5.8872395e-01	   7.1731447e-01	
   1.1330000e+01	   1.5594531e-01	  -6.0269459e-01	   7.3361074e-01	
   1.1385000e+01	   1.7226900e-01	  -6.1759507e-01	   7.4979949e-01	
   1.1440000e+01	   1.8880481e-01	  -6.3315007e-01	   7.6574901e-01	
   1.1495000e+01	   2.0530869e-01	  -6.4906367e-01	   7.8134169e-01	
   1.1550000e+01	   2.2153703e-01	  -6.6502532e-01	   7.9647122e-01	
   1.1605000e+01	   2.3725190e-01	  -6.8071153e-01	   8.1103856e-01	
   1.1660000e+01	   2.5222540e-01	  -6.9578424e-01	   8.2494724e-01	
   1.1715000e+01	   2.6624293e-01	  -7.0988990e-01	   8.3809835e-01	
   1.1770000e+01	   2.7910520e-01	  -7.2266295e-01	   8.5038624e-01	
   1.1825000e+01	   2.9062991e-01	  -7.3373525e-01	   8.6169597e-01	
   1.1880000e+01	   3.0065399e-01	  -7.4275074e-01	   8.7190359e-01	
   1.1935000e+01	   3.0903671e-01	  -7.4938353e-01	   8.8088012e-01	
   1.1990000e+01	   3.1566356e-01	  -7.5335713e-01	   8.8849875e-01	
   1.2045000e+01	   3.2045068e-01	  -7.5446177e-01	   8.9464468e-01	
   1.2100000e+01	   3.2334889e-01	  -7.5256782e-01	   8.9922648e-01	
   1.2155000e+01	   3.2434541e-01	  -7.4763437e-01	   9.0218654e-01	
   1.2210000e+01	   3.2346331e-01	  -7.3971154e-01	   9.0350777e-01	
   1.2265000e+01	   3.2075948e-01	  -7.2893608e-01	   9.0321474e-01	
   1.2320000e+01	   3.1632130e-01	  -7.1552245e-01	   9.0137027e-01	
   1.2375000e+01	   3.1026170e-01	  -6.9975188e-01	   8.9806991e-01	
   1.2430000e+01	   3.0271242e-01	  -6.8196004e-01	   8.9343641e-01	
   1.2485000e+01	   2.9381665e-01	  -6.6252316e-01	   8.8761416e-01	
   1.2540000e+01	   2.8372208e-01	  -6.4184313e-01	   8.8076246e-01	
   1.2595000e+01	   2.7257549e-01	  -6.2033239e-01	   8.7304798e-01	
   1.2650000e+01	   2.6051957e-01	  -5.9839861e-01	   8.6463680e-01	
   1.2705000e+01	   2.4769157e-01	  -5.7643016e-01	   8.5568536e-01	
   1.2760000e+01	   2.3422213e-01	  -5.5478456e-01	   8.4632934e-01	
   1.2815000e+01	   2.2023312e-01	  -5.3378069e-01	   8.3667237e-01	
   1.2870000e+01	   2.0583430e-01	  -5.1369328e-01	   8.2677842e-01	
   1.2925000e+01	   1.9111947e-01	  -4.9474945e-01	   8.1666943e-01	
   1.2980000e+01	   1.7616319e-01	  -4.7712927e-01	   8.0632694e-01	
   1.3035000e+01	   1.6101983e-01	  -4.6097123e-01	   7.9569651e-01	
   1.3090000e+01	   1.4572555e-01	  -4.4638057e-01	   7.8469587e-01	
   1.3145000e+01	   1.3030277e-01	  -4.3343794e-01	   7.7322669e-01	
   1.3200000e+01	   1.1476548e-01	  -4.2220739e-01	   7.6118819e-01	
   1.3255000e+01	   9.9124446e-02	  -4.1274293e-01	   7.4849046e-01	
   1.3310000e+01	   8.3391389e-02	  -4.0509332e-01	   7.3506615e-01	
   1.3365000e+01	   6.7581844e-02	  -3.9930442e-01	   7.2087863e-01	
   1.3420000e+01	   5.1716867e-02	  -3.9541849e-01	   7.0592595e-01	
   1.3475000e+01	   3.5824413e-02	  -3.9347098e-01	   6.9024085e-01	
   1.3530000e+01	   1.9941060e-02	  -3.9348610e-01	   6.7388798e-01	
   1.3585000e+01	   4.1142060e-03	  -3.9547270e-01	   6.5695883e-01	
   1.3640000e+01	  -1.1595458e-02	  -3.9942122e-01	   6.3956533e-01	
   1.3695000e+01	  -2.7111401e-02	  -4.0530086e-01	   6.2183328e-01	
   1.3750000e+01	  -4.2339307e-02	  -4.1305628e-01	   6.0389650e-01	
   1.3805000e+01	  -5.7167266e-02	  -4.2260472e-01	   5.8589277e-01	
   1.3860000e+01	  -7.1469522e-02	  -4.3383395e-01	   5.6796184e-01	
   1.3915000e+01	  -8.5113664e-02	  -4.4660100e-01	   5.5024512e-01	
   1.3970000e+01	  -9.7969810e-02	  -4.6073243e-01	   5.3288482e-01	
   1.4025000e+01	  -1.0992044e-01	  -4.7602801e-01	   5.1602133e-01	
   1.4080000e+01	  -1.2086987e-01	  -4.9226895e-01	   4.9978871e-01	
   1.4135000e+01	  -1.3075212e-01	  -5.0922921e-01	   4.8430949e-01	
   1.4190000e+01	  -1.3953572e-01	  -5.2668882e-01	   4.6969020e-01	
   1.4245000e+01	  -1.4722491e-01	  -5.4444804e-01	   4.5601834e-01	
   1.4300000e+01	  -1.5385742e-01	  -5.6234090e-01	   4.4336115e-01	
   1.4355000e+01	  -1.5949984e-01	  -5.8024505e-01	   4.3176548e-01	
   1.4410000e+01	  -1.6424172e-01	  -5.9808629e-01	   4.2125795e-01	
   1.4465000e+01	  -1.6819013e-01	  -6.1583823e-01	   4.1184468e-01	
   1.4520000e+01	  -1.7146481e-01	  -6.3351777e-01	   4.0351125e-01	
   1.4575000e+01	  -1.7419378e-01	  -6.5117694e-01	   3.9622422e-01	
   1.4630000e+01	  -1.7650843e-01	  -6.6889189e-01	   3.8993321e-01	
   1.4685000e+01	  -1.7853851e-01	  -6.8674956e-01	   3.8457228e-01	
   1.4740000e+01	  -1.8040767e-01	  -7.0483309e-01	   3.8006083e-01	
   1.4795000e+01	  -1.8223002e-01	  -7.2320779e-01	   3.7630631e-01	
   1.4850000e+01	  -1.8410826e-01	  -7.4191114e-01	   3.7320902e-01	
   1.4905000e+01	  -1.8613302e-01	  -7.6094886e-01	   3.7066663e-01	
   1.4960000e+01	  -1.8838310e-01	  -7.8029622e-01	   3.6857644e-01	
   1.5015000e+01	  -1.9092546e-01	  -7.9990147e-01	   3.6683541e-01	
   1.5070000e+01	  -1.9381487e-01	  -8.1969039e-01	   3.6533918e-01	
   1.5125000e+01	  -1.9709322e-01	  -8.3957219e-01	   3.6398074e-01	
   1.5180000e+01	  -2.0078857e-01	  -8.5944722e-01	   3.6264897e-01	
   1.5235000e+01	  -2.0491366e-01	  -8.7921460e-01	   3.6122621e-01	
   1.5290000e+01	  -2.0946498e-01	  -8.9877788e-01	   3.5958489e-01	
   1.5345000e+01	  -2.1442399e-01	  -9.1804865e-01	   3.5758390e-01	
   1.5400000e+01	  -2.1976124e-01	  -9.3695047e-01	   3.5506649e-01	
   1.5455000e+01	  -2.2544268e-01	  -9.5542452e-01	   3.5186134e-01	
   1.5510000e+01	  -2.3143650e-01	  -9.7343442e-01	   3.4778728e-01	
   1.5565000e+01	  -2.3771851e-01	  -9.9096661e-01	   3.4266179e-01	
   1.5620000e+01	  -2.4427480e-01	  -1.0080250e+00	   3.3631227e-01	
   1.5675000e+01	  -2.5110182e-01	  -1.0246233e+00	   3.2858706e-01	
   1.5730000e+01	  -2.5820474e-01	  -1.0407782e+00	   3.1936284e-01	
   1.5785000e+01	  -2.6559502e-01	  -1.0565040e+00	   3.0854779e-01	
   1.5840000e+01	  -2.7328807e-01	  -1.0718104e+00	   2.9608188e-01	
   1.5895000e+01	  -2.8130166e-01	  -1.0867028e+00	   2.8193548e-01	
   1.5950000e+01	  -2.8965467e-01	  -1.1011872e+00	   2.6610690e-01	
   1.6005000e+01	  -2.9836510e-01	  -1.1152741e+00	   2.4861970e-01	
   1.6060000e+01	  -3.0744706e-01	  -1.1289790e+00	   2.2952029e-01	
   1.6115000e+01	  -3.1690797e-01	  -1.1423203e+00	   2.0887501e-01	
   1.6170000e+01	  -3.2674655e-01	  -1.1553154e+00	   1.8676658e-01	
   1.6225000e+01	  -3.3695090e-01	  -1.1679790e+00	   1.6329166e-01	
   1.6280000e+01	  -3.4749643e-01	  -1.1803225e+00	   1.3856158e-01	
   1.6335000e+01	  -3.5834442e-01	  -1.1923568e+00	   1.1270541e-01	
   1.6390000e+01	  -3.6944193e-01	  -1.2040973e+00	   8.5873269e-02	
   1.6445000e+01	  -3.8072281e-01	  -1.2155692e+00	   5.8237745e-02	
   1.6500000e+01	  -3.9210981e-01	  -1.2268129e+00	   2.9991878e-02	
   1.6555000e+01	  -4.0351761e-01	  -1.2378892e+00	   1.3430777e-03	
   1.6610000e+01	  -4.1485642e-01	  -1.2488818e+00	  -2.7494873e-02	
   1.6665000e+01	  -4.2603483e-01	  -1.2598986e+00	  -5.6308617e-02	
   1.6720000e+01	  -4.3696184e-01	  -1.2710691e+00	  -8.4890209e-02	
   1.6775000e+01	  -4.4754915e-01	  -1.2825403e+00	  -1.1304147e-01	
   1.6830000e+01	  -4.5771479e-01	  -1.2944686e+00	  -1.4057763e-01	
   1.6885000e+01	  -4.6738729e-01	  -1.3070111e+00	  -1.6732979e-01	
   1.6940000e+01	  -4.7650935e-01	  -1.3203155e+00	  -1.9314777e-01	
   1.6995000e+01	  -4.8504054e-01	  -1.3345123e+00	  -2.1790524e-01	
   1.7050000e+01	  -4.9295924e-01	  -1.3497078e+00	  -2.4150598e-01	
   1.7105000e+01	  -5.0026335e-01	  -1.3659793e+00	  -2.6388839e-01	
   1.7160000e+01	  -5.0696928e-01	  -1.3833697e+00	  -2.8502786e-01	
   1.7215000e+01	  -5.1310968e-01	  -1.4018832e+00	  -3.0493784e-01	
   1.7270000e+01	  -5.1872982e-01	  -1.4214825e+00	  -3.2366921e-01	
   1.7325000e+01	  -5.2388318e-01	  -1.4420901e+00	  -3.4130708e-01	
   1.7380000e+01	  -5.2862707e-01	  -1.4635913e+00	  -3.5796532e-01	
   1.7435000e+01	  -5.3301952e-01	  -1.4858397e+00	  -3.7377980e-01	
   1.7490000e+01	  -5.3711762e-01	  -1.5086601e+00	  -3.8890018e-01	
   1.7545000e+01	  -5.4097719e-01	  -1.5318505e+00	  -4.0348052e-01	
   1.7600000e+01	  -5.4465398e-01	  -1.5551841e+00	  -4.1767007e-01	
   1.7655000e+01	  -5.4820565e-01	  -1.5784144e+00	  -4.3160568e-01	
   1.7710000e+01	  -5.5169296e-01	  -1.6012805e+00	  -4.4540625e-01	
   1.7765000e+01	  -5.5517879e-01	  -1.6235154e+00	  -4.5916927e-01	
   1.7820000e+01	  -5.5872570e-01	  -1.6448532e+00	  -4.7296978e-01	
   1.7875000e+01	  -5.6239301e-01	  -1.6650374e+00	  -4.8686142e-01	
   1.7930000e+01	  -5.6623385e-01	  -1.6838292e+00	  -5.0087858e-01	
   1.7985000e+01	  -5.7029185e-01	  -1.7010153e+00	  -5.1503872e-01	
   1.8040000e+01	  -5.7459735e-01	  -1.7164153e+00	  -5.2934418e-01	
   1.8095000e+01	  -5.7916267e-01	  -1.7298848e+00	  -5.4378254e-01	
   1.8150000e+01	  -5.8397658e-01	  -1.7413137e+00	  -5.5832551e-01	
   1.8205000e+01	  -5.8899963e-01	  -1.7506203e+00	  -5.7292753e-01	
   1.8260000e+01	  -5.9416225e-01	  -1.7577441e+00	  -5.8752574e-01	
   1.8315000e+01	  -5.9936682e-01	  -1.7626414e+00	  -6.0204190e-01	
   1.8370000e+01	  -6.0449287e-01	  -1.7652850e+00	  -6.1638610e-01	
   1.8425000e+01	  -6.0940517e-01	  -1.7656640e+00	  -6.3046167e-01	
   1.8480000e+01	  -6.1396362e-01	  -1.7637854e+00	  -6.4417103e-01	
   1.8535000e+01	  -6.1803314e-01	  -1.7596746e+00	  -6.5742090e-01	
   1.8590000e+01	  -6.2149151e-01	  -1.7533760e+00	  -6.7012557e-01	
   1.8645000e+01	  -6.2423386e-01	  -1.7449552e+00	  -6.8220839e-01	
   1.8700000e+01	  -6.2617400e-01	  -1.7344991e+00	  -6.9360305e-01	
   1.8755000e+01	  -6.2724360e-01	  -1.7221181e+00	  -7.0425544e-01	
   1.8810000e+01	  -6.2739039e-01	  -1.7079460e+00	  -7.1412539e-01	
   1.8865000e+01	  -6.2657614e-01	  -1.6921386e+00	  -7.2318643e-01	
   1.8920000e+01	  -6.2477528e-01	  -1.6748703e+00	  -7.3142350e-01	
   1.8975000e+01	  -6.2197403e-01	  -1.6563277e+00	  -7.3882990e-01	
   1.9030000e+01	  -6.1817023e-01	  -1.6367031e+00	  -7.4540508e-01	
   1.9085000e+01	  -6.1337416e-01	  -1.6161908e+00	  -7.5115401e-01	
   1.9140000e+01	  -6.0760984e-01	  -1.5949825e+00	  -7.5608732e-01	
   1.9195000e+01	  -6.0091599e-01	  -1.5732631e+00	  -7.6022028e-01	
   1.9250000e+01	  -5.9334555e-01	  -1.5512053e+00	  -7.6356930e-01	
   1.9305000e+01	  -5.8496381e-01	  -1.5289664e+00	  -7.6614608e-01	
   1.9360000e+01	  -5.7584529e-01	  -1.5066868e+00	  -7.6795116e-01	
   1.9415000e+01	  -5.6606969e-01	  -1.4844868e+00	  -7.6896847e-01	
   1.9470000e+01	  -5.5571713e-01	  -1.4624616e+00	  -7.6916192e-01	
   1.9525000e+01	  -5.4486323e-01	  -1.4406734e+00	  -7.6847530e-01	
   1.9580000e+01	  -5.3357506e-01	  -1.4191465e+00	  -7.6683620e-01	
   1.9635000e+01	  -5.2190895e-01	  -1.3978657e+00	  -7.6416293e-01	
   1.9690000e+01	  -5.0990992e-01	  -1.3767807e+00	  -7.6037198e-01	
   1.9745000e+01	  -4.9761203e-01	  -1.3558131e+00	  -7.5538459e-01	
   1.9800000e+01	  -4.8503874e-01	  -1.3348651e+00	  -7.4913247e-01	
   1.9855000e+01	  -4.7220402e-01	  -1.3138267e+00	  -7.4156376e-01	
   1.9910000e+01	  -4.5911482e-01	  -1.2925844e+00	  -7.3264937e-01	
   1.9965000e+01	  -4.4577504e-01	  -1.2710286e+00	  -7.2238865e-01	
   2.0020000e+01	  -4.3218988e-01	  -1.2490611e+00	  -7.1081279e-01	
   2.0075000e+01	  -4.1836965e-01	  -1.2265982e+00	  -6.9798468e-01	
   2.0130000e+01	  -4.0433200e-01	  -1.2035730e+00	  -6.8399479e-01	
   2.0185000e+01	  -3.9010183e-01	  -1.1799370e+00	  -6.6895386e-01	
   2.0240000e+01	  -3.7570885e-01	  -1.1556619e+00	  -6.5298362e-01	
   2.0295000e+01	  -3.6118447e-01	  -1.1307381e+00	  -6.3620825e-01	
   2.0350000e+01	  -3.4655872e-01	  -1.1051733e+00	  -6.1874796e-01	
   2.0405000e+01	  -3.3185806e-01	  -1.0789901e+00	  -6.0071479e-01	
   2.0460000e+01	  -3.1710398e-01	  -1.0522231e+00	  -5.8220935e-01	
   2.0515000e+01	  -3.0231273e-01	  -1.0249177e+00	  -5.6331867e-01	
   2.0570000e+01	  -2.8749626e-01	  -9.9712948e-01	  -5.4411550e-01	
   2.0625000e+01	  -2.7266436e-01	  -9.6892717e-01	  -5.2465899e-01	
   2.0680000e+01	  -2.5782676e-01	  -9.4039517e-01	  -5.0499598e-01	
   2.0735000e+01	  -2.4299426e-01	  -9.1163680e-01	  -4.8516285e-01	
   2.0790000e+01	  -2.2817924e-01	  -8.8277644e-01	  -4.6518771e-01	
   2.0845000e+01	  -2.1339620e-01	  -8.5396001e-01	  -4.4509184e-01	
   2.0900000e+01	  -1.9866188e-01	  -8.2535209e-01	  -4.2488912e-01	
   2.0955000e+01	  -1.8399446e-01	  -7.9712905e-01	  -4.0458427e-01	
   2.1010000e+01	  -1.6941259e-01	  -7.6947047e-01	  -3.8417179e-01	
   2.1065000e+01	  -1.5493473e-01	  -7.4255133e-01	  -3.6363765e-01	
   2.1120000e+01	  -1.4057885e-01	  -7.1653591e-01	  -3.4296400e-01	
   2.1175000e+01	  -1.2636162e-01	  -6.9157318e-01	  -3.2213611e-01	
   2.1230000e+01	  -1.1229740e-01	  -6.6779397e-01	  -3.0115018e-01	
   2.1285000e+01	  -9.8397557e-02	  -6.4531012e-01	  -2.8002026e-01	
   2.1340000e+01	  -8.4671352e-02	  -6.2421613e-01	  -2.5878261e-01	
   2.1395000e+01	  -7.1129106e-02	  -6.0459293e-01	  -2.3749672e-01	
   2.1450000e+01	  -5.7787069e-02	  -5.8651248e-01	  -2.1624293e-01	
   2.1505000e+01	  -4.4671768e-02	  -5.7004106e-01	  -1.9511572e-01	
   2.1560000e+01	  -3.1821850e-02	  -5.5524068e-01	  -1.7421225e-01	
   2.1615000e+01	  -1.9287177e-02	  -5.4216980e-01	  -1.5361864e-01	
   2.1670000e+01	  -7.1261645e-03	  -5.3088321e-01	  -1.3339747e-01	
   2.1725000e+01	   4.5975545e-03	  -5.2142932e-01	  -1.1357959e-01	
   2.1780000e+01	   1.5818097e-02	  -5.1384430e-01	  -9.4161871e-02	
   2.1835000e+01	   2.6469225e-02	  -5.0814480e-01	  -7.5111486e-02	
   2.1890000e+01	   3.6485367e-02	  -5.0432163e-01	  -5.6374125e-02	
   2.1945000e+01	   4.5802421e-02	  -5.0233589e-01	  -3.7882929e-02	
   2.2000000e+01	   5.4358535e-02	  -5.0211808e-01	  -1.9566901e-02	
   2.2055000e+01	   6.2095112e-02	  -5.0356983e-01	  -1.3595862e-03	
   2.2110000e+01	   6.8958665e-02	  -5.0656708e-01	   1.6791863e-02	
   2.2165000e+01	   7.4903565e-02	  -5.1096369e-01	   3.4918437e-02	
   2.2220000e+01	   7.9894871e-02	  -5.1659580e-01	   5.3022985e-02	
   2.2275000e+01	   8.3910735e-02	  -5.2328588e-01	   7.1076733e-02	
   2.2330000e+01	   8.6944933e-02	  -5.3084542e-01	   8.9019939e-02	
   2.2385000e+01	   8.9009879e-02	  -5.3907574e-01	   1.0676772e-01	
   2.2440000e+01	   9.0139083e-02	  -5.4776814e-01	   1.2421950e-01	
   2.2495000e+01	   9.0387488e-02	  -5.5670474e-01	   1.4126869e-01	
   2.2550000e+01	   8.9829405e-02	  -5.6566085e-01	   1.5780997e-01	
   2.2605000e+01	   8.8555198e-02	  -5.7440979e-01	   1.7374498e-01	
   2.2660000e+01	   8.6667916e-02	  -5.8273015e-01	   1.8898739e-01	
   2.2715000e+01	   8.4280500e-02	  -5.9041378e-01	   2.0346758e-01	
   2.2770000e+01	   8.1513351e-02	  -5.9727330e-01	   2.1713491e-01	
   2.2825000e+01	   7.8491030e-02	  -6.0314993e-01	   2.2995554e-01	
   2.2880000e+01	   7.5336825e-02	  -6.0792215e-01	   2.4190565e-01	
   2.2935000e+01	   7.2165734e-02	  -6.1151392e-01	   2.5296353e-01	
   2.2990000e+01	   6.9078142e-02	  -6.1389961e-01	   2.6310430e-01	
   2.3045000e+01	   6.6155892e-02	  -6.1510399e-01	   2.7229857e-01	
   2.3100000e+01	   6.3460701e-02	  -6.1519710e-01	   2.8051412e-01	
   2.3155000e+01	   6.1033943e-02	  -6.1428477e-01	   2.8771961e-01	
   2.3210000e+01	   5.8896886e-02	  -6.1249668e-01	   2.9388961e-01	
   2.3265000e+01	   5.7050720e-02	  -6.0997556e-01	   2.9900966e-01	
   2.3320000e+01	   5.5476116e-02	  -6.0686951e-01	   3.0308051e-01	
   2.3375000e+01	   5.4133281e-02	  -6.0332699e-01	   3.0612126e-01	
   2.3430000e+01	   5.2964075e-02	  -5.9949205e-01	   3.0817137e-01	
   2.3485000e+01	   5.1896715e-02	  -5.9549930e-01	   3.0929067e-01	
   2.3540000e+01	   5.0851998e-02	  -5.9146942e-01	   3.0955636e-01	
   2.3595000e+01	   4.9749709e-02	  -5.8750590e-01	   3.0905745e-01	
   2.3650000e+01	   4.8514525e-02	  -5.8369220e-01	   3.0788815e-01	
   2.3705000e+01	   4.7081068e-02	  -5.8008834e-01	   3.0614250e-01	
   2.3760000e+01	   4.5397720e-02	  -5.7672636e-01	   3.0391162e-01	
   2.3815000e+01	   4.3428862e-02	  -5.7360521e-01	   3.0128410e-01	
   2.3870000e+01	   4.1155609e-02	  -5.7068745e-01	   2.9834800e-01	
   2.3925000e+01	   3.8575419e-02	  -5.6790053e-01	   2.9519299e-01	
   2.3980000e+01	   3.5700869e-02	  -5.6514369e-01	   2.9191192e-01	
   2.4035000e+01	   3.2557838e-02	  -5.6229832e-01	   2.8860123e-01	
   2.4090000e+01	   2.9183527e-02	  -5.5923941e-01	   2.8535944e-01	
   2.4145000e+01	   2.5624449e-02	  -5.5584700e-01	   2.8228319e-01	
   2.4200000e+01	   2.1934197e-02	  -5.5201726e-01	   2.7946296e-01	
   2.4255000e+01	   1.8171026e-02	  -5.4767194e-01	   2.7697998e-01	
   2.4310000e+01	   1.4395508e-02	  -5.4276543e-01	   2.7490386e-01	
   2.4365000e+01	   1.0668257e-02	  -5.3728925e-01	   2.7328949e-01	
   2.4420000e+01	   7.0476475e-03	  -5.3127354e-01	   2.7217403e-01	
   2.4475000e+01	   3.5879311e-03	  -5.2478412e-01	   2.7157604e-01	
   2.4530000e+01	   3.3843632e-04	  -5.1791470e-01	   2.7149830e-01	
   2.4585000e+01	  -2.6562454e-03	  -5.1077563e-01	   2.7193272e-01	
   2.4640000e+01	  -5.3557751e-03	  -5.0348193e-01	   2.7286476e-01	
   2.4695000e+01	  -7.7235484e-03	  -4.9614319e-01	   2.7427592e-01	
   2.4750000e+01	  -9.7259556e-03	  -4.8885690e-01	   2.7614443e-01	
   2.4805000e+01	  -1.1331528e-02	  -4.8170590e-01	   2.7844545e-01	
   2.4860000e+01	  -1.2510244e-02	  -4.7475900e-01	   2.8115248e-01	
   2.4915000e+01	  -1.3232863e-02	  -4.6807328e-01	   2.8424034e-01	
   2.4970000e+01	  -1.3470108e-02	  -4.6169682e-01	   2.8768817e-01	
   2.5025000e+01	  -1.3192142e-02	  -4.5567116e-01	   2.9147994e-01	
   2.5080000e+01	  -1.2368861e-02	  -4.5003293e-01	   2.9560279e-01	
   2.5135000e+01	  -1.0970752e-02	  -4.4481465e-01	   3.0004459e-01	
   2.5190000e+01	  -8.9696664e-03	  -4.4004505e-01	   3.0479221e-01	
   2.5245000e+01	  -6.3392356e-03	  -4.3574823e-01	   3.0983150e-01	
   2.5300000e+01	  -3.0549579e-03	  -4.3194029e-01	   3.1515075e-01	
   2.5355000e+01	   9.0591085e-04	  -4.2862325e-01	   3.2074630e-01	
   2.5410000e+01	   5.5641649e-03	  -4.2577751e-01	   3.2662712e-01	
   2.5465000e+01	   1.0937425e-02	  -4.2335516e-01	   3.3281489e-01	
   2.5520000e+01	   1.7037589e-02	  -4.2127696e-01	   3.3933897e-01	
   2.5575000e+01	   2.3867446e-02	  -4.1943549e-01	   3.4622792e-01	
   2.5630000e+01	   3.1417144e-02	  -4.1770500e-01	   3.5349974e-01	
   2.5685000e+01	   3.9660945e-02	  -4.1595571e-01	   3.6115403e-01	
   2.5740000e+01	   4.8554772e-02	  -4.1406841e-01	   3.6916858e-01	
   2.5795000e+01	   5.8035041e-02	  -4.1194586e-01	   3.7750104e-01	
   2.5850000e+01	   6.8018890e-02	  -4.0951879e-01	   3.8609385e-01	
   2.5905000e+01	   7.8405843e-02	  -4.0674582e-01	   3.9488034e-01	
   2.5960000e+01	   8.9081334e-02	  -4.0360842e-01	   4.0379090e-01	
   2.6015000e+01	   9.9922074e-02	  -4.0010283e-01	   4.1275948e-01	
   2.6070000e+01	   1.1080205e-01	  -3.9623128e-01	   4.2172994e-01	
   2.6125000e+01	   1.2159769e-01	  -3.9199475e-01	   4.3066088e-01	
   2.6180000e+01	   1.3219189e-01	  -3.8738866e-01	   4.3952728e-01	
   2.6235000e+01	   1.4247741e-01	  -3.8240212e-01	   4.4831859e-01	
   2.6290000e+01	   1.5235987e-01	  -3.7701959e-01	   4.5703478e-01	
   2.6345000e+01	   1.6175971e-01	  -3.7122328e-01	   4.6568181e-01	
   2.6400000e+01	   1.7061279e-01	  -3.6499486e-01	   4.7426725e-01	
   2.6455000e+01	   1.7886920e-01	  -3.5831739e-01	   4.8279588e-01	
   2.6510000e+01	   1.8649051e-01	  -3.5117849e-01	   4.9126651e-01	
   2.6565000e+01	   1.9344675e-01	  -3.4357285e-01	   4.9967106e-01	
   2.6620000e+01	   1.9971391e-01	  -3.3550209e-01	   5.0799586e-01	
   2.6675000e+01	   2.0527282e-01	  -3.2697274e-01	   5.1622405e-01	
   2.6730000e+01	   2.1010912e-01	  -3.1799513e-01	   5.2433746e-01	
   2.6785000e+01	   2.1421444e-01	  -3.0858402e-01	   5.3231702e-01	
   2.6840000e+01	   2.1758789e-01	  -2.9875996e-01	   5.4014216e-01	
   2.6895000e+01	   2.2023736e-01	  -2.8855081e-01	   5.4779027e-01	
   2.6950000e+01	   2.2218021e-01	  -2.7799413e-01	   5.5523640e-01	
   2.7005000e+01	   2.2344387e-01	  -2.6714086e-01	   5.6245225e-01	
   2.7060000e+01	   2.2406647e-01	  -2.5605977e-01	   5.6940393e-01	
   2.7115000e+01	   2.2409769e-01	  -2.4484201e-01	   5.7604929e-01	
   2.7170000e+01	   2.2359964e-01	  -2.3360385e-01	   5.8233614e-01	
   2.7225000e+01	   2.2264732e-01	  -2.2248498e-01	   5.8820327e-01	
   2.7280000e+01	   2.2132830e-01	  -2.1164175e-01	   5.9358433e-01	
   2.7335000e+01	   2.1974177e-01	  -2.0123836e-01	   5.9841370e-01	
   2.7390000e+01	   2.1799765e-01	  -1.9143913e-01	   6.0263290e-01	
   2.7445000e+01	   2.1621614e-01	  -1.8240132e-01	   6.0619671e-01	
   2.7500000e+01	   2.1452687e-01	  -1.7426680e-01	   6.0907849e-01	
   2.7555000e+01	   2.1306668e-01	  -1.6715330e-01	   6.1127342e-01	
   2.7610000e+01	   2.1197578e-01	  -1.6114706e-01	   6.1279925e-01	
   2.7665000e+01	   2.1139273e-01	  -1.5629814e-01	   6.1369465e-01	
   2.7720000e+01	   2.1144797e-01	  -1.5261885e-01	   6.1401570e-01	
   2.7775000e+01	   2.1225615e-01	  -1.5008533e-01	   6.1383150e-01	
   2.7830000e+01	   2.1390798e-01	  -1.4864113e-01	   6.1321954e-01	
   2.7885000e+01	   2.1646363e-01	  -1.4820131e-01	   6.1226084e-01	
   2.7940000e+01	   2.1994868e-01	  -1.4865706e-01	   6.1103528e-01	
   2.7995000e+01	   2.2435305e-01	  -1.4988145e-01	   6.0961779e-01	
   2.8050000e+01	   2.2963279e-01	  -1.5173601e-01	   6.0807655e-01	
   2.8105000e+01	   2.3571405e-01	  -1.5407752e-01	   6.0647285e-01	
   2.8160000e+01	   2.4249816e-01	  -1.5676466e-01	   6.0486138e-01	
   2.8215000e+01	   2.4986606e-01	  -1.5966536e-01	   6.0328994e-01	
   2.8270000e+01	   2.5768179e-01	  -1.6266432e-01	   6.0180040e-01	
   2.8325000e+01	   2.6579618e-01	  -1.6566924e-01	   6.0043253e-01	
   2.8380000e+01	   2.7405168e-01	  -1.6861472e-01	   5.9922863e-01	
   2.8435000e+01	   2.8228787e-01	  -1.7146374e-01	   5.9823527e-01	
   2.8490000e+01	   2.9034713e-01	  -1.7420718e-01	   5.9750095e-01	
   2.8545000e+01	   2.9807977e-01	  -1.7686147e-01	   5.9707133e-01	
   2.8600000e+01	   3.0534812e-01	  -1.7946461e-01	   5.9698319e-01	
   2.8655000e+01	   3.1202932e-01	  -1.8207077e-01	   5.9725747e-01	
   2.8710000e+01	   3.1801749e-01	  -1.8474347e-01	   5.9789237e-01	
   2.8765000e+01	   3.2322579e-01	  -1.8754777e-01	   5.9885857e-01	
   2.8820000e+01	   3.2758906e-01	  -1.9054219e-01	   6.0009810e-01	
   2.8875000e+01	   3.3106602e-01	  -1.9377140e-01	   6.0152799e-01	
   2.8930000e+01	   3.3364044e-01	  -1.9726045e-01	   6.0304871e-01	
   2.8985000e+01	   3.3532087e-01	  -2.0101098e-01	   6.0455597e-01	
   2.9040000e+01	   3.3613897e-01	  -2.0499930e-01	   6.0595212e-01	
   2.9095000e+01	   3.3614714e-01	  -2.0917584e-01	   6.0715446e-01	
   2.9150000e+01	   3.3541600e-01	  -2.1346571e-01	   6.0810037e-01	
   2.9205000e+01	   3.3403177e-01	  -2.1777119e-01	   6.0874979e-01	
   2.9260000e+01	   3.3209236e-01	  -2.2197724e-01	   6.0908524e-01	
   2.9315000e+01	   3.2970222e-01	  -2.2595882e-01	   6.0910949e-01	
   2.9370000e+01	   3.2696790e-01	  -2.2958775e-01	   6.0884194e-01	
   2.9425000e+01	   3.2399587e-01	  -2.3273736e-01	   6.0831487e-01	
   2.9480000e+01	   3.2089177e-01	  -2.3528561e-01	   6.0757010e-01	
   2.9535000e+01	   3.1776023e-01	  -2.3711756e-01	   6.0665647e-01	
   2.9590000e+01	   3.1470457e-01	  -2.3812645e-01	   6.0562791e-01	
   2.9645000e+01	   3.1182622e-01	  -2.3821263e-01	   6.0454196e-01	
   2.9700000e+01	   3.0922323e-01	  -2.3728211e-01	   6.0345807e-01	
   2.9755000e+01	   3.0698774e-01	  -2.3524733e-01	   6.0243558e-01	
   2.9810000e+01	   3.0520333e-01	  -2.3203160e-01	   6.0153180e-01	
   2.9865000e+01	   3.0394316e-01	  -2.2757678e-01	   6.0079982e-01	
   2.9920000e+01	   3.0326867e-01	  -2.2185281e-01	   6.0028437e-01	
   2.9975000e+01	   3.0322851e-01	  -2.1486672e-01	   6.0001512e-01	
   3.0030000e+01	   3.0385764e-01	  -2.0666810e-01	   5.9999952e-01	
   3.0085000e+01	   3.0517712e-01	  -1.9734959e-01	   6.0021883e-01	
   3.0140000e+01	   3.0719504e-01	  -1.8704219e-01	   6.0062985e-01	
   3.0195000e+01	   3.0990868e-01	  -1.7590616e-01	   6.0117208e-01	
   3.0250000e+01	   3.1330762e-01	  -1.6411836e-01	   6.0177804e-01	
   3.0305000e+01	   3.1737651e-01	  -1.5185821e-01	   6.0238449e-01	
   3.0360000e+01	   3.2209622e-01	  -1.3929474e-01	   6.0294220e-01	
   3.0415000e+01	   3.2744327e-01	  -1.2657582e-01	   6.0342251e-01	
   3.0470000e+01	   3.3338922e-01	  -1.1382033e-01	   6.0381948e-01	
   3.0525000e+01	   3.3990029e-01	  -1.0111422e-01	   6.0414751e-01	
   3.0580000e+01	   3.4693696e-01	  -8.8511674e-02	   6.0443623e-01	
   3.0635000e+01	   3.5445289e-01	  -7.6040934e-02	   6.0472511e-01	
   3.0690000e+01	   3.6239348e-01	  -6.3712291e-02	   6.0505917e-01	
   3.0745000e+01	   3.7069472e-01	  -5.1526192e-02	   6.0548547e-01	
   3.0800000e+01	   3.7928278e-01	  -3.9480428e-02	   6.0604993e-01	
   3.0855000e+01	   3.8807476e-01	  -2.7575501e-02	   6.0679503e-01	
   3.0910000e+01	   3.9698106e-01	  -1.5816958e-02	   6.0775907e-01	
   3.0965000e+01	   4.0590896e-01	  -4.2140999e-03	   6.0897630e-01	
   3.1020000e+01	   4.1476651e-01	   7.2235818e-03	   6.1047634e-01	
   3.1075000e+01	   4.2346637e-01	   1.8489777e-02	   6.1228242e-01	
   3.1130000e+01	   4.3193002e-01	   2.9582888e-02	   6.1440867e-01	
   3.1185000e+01	   4.4009165e-01	   4.0505516e-02	   6.1685630e-01	
   3.1240000e+01	   4.4790055e-01	   5.1262335e-02	   6.1960885e-01	
   3.1295000e+01	   4.5532159e-01	   6.1857010e-02	   6.2262849e-01	
   3.1350000e+01	   4.6233515e-01	   7.2288565e-02	   6.2585494e-01	
   3.1405000e+01	   4.6893696e-01	   8.2547235e-02	   6.2920710e-01	
   3.1460000e+01	   4.7513735e-01	   9.2609907e-02	   6.3258561e-01	
   3.1515000e+01	   4.8095963e-01	   1.0243566e-01	   6.3587569e-01	
   3.1570000e+01	   4.8643737e-01	   1.1196169e-01	   6.3895040e-01	
   3.1625000e+01	   4.9161073e-01	   1.2110001e-01	   6.4167419e-01	
   3.1680000e+01	   4.9652223e-01	   1.2973692e-01	   6.4390742e-01	
   3.1735000e+01	   5.0121296e-01	   1.3773810e-01	   6.4551292e-01	
   3.1790000e+01	   5.0572003e-01	   1.4495940e-01	   6.4636440e-01	
   3.1845000e+01	   5.1007502e-01	   1.5125945e-01	   6.4635468e-01	
   3.1900000e+01	   5.1430265e-01	   1.5651123e-01	   6.4540105e-01	
   3.1955000e+01	   5.1841913e-01	   1.6061129e-01	   6.4344745e-01	
   3.2010000e+01	   5.2243038e-01	   1.6348639e-01	   6.4046515e-01	
   3.2065000e+01	   5.2633011e-01	   1.6509619e-01	   6.3645323e-01	
   3.2120000e+01	   5.3009870e-01	   1.6543229e-01	   6.3143959e-01	
   3.2175000e+01	   5.3370437e-01	   1.6451563e-01	   6.2548176e-01	
   3.2230000e+01	   5.3710694e-01	   1.6239346e-01	   6.1866619e-01	
   3.2285000e+01	   5.4026256e-01	   1.5913517e-01	   6.1110500e-01	
   3.2340000e+01	   5.4312835e-01	   1.5482678e-01	   6.0293103e-01	
   3.2395000e+01	   5.4566695e-01	   1.4956568e-01	   5.9429121e-01	
   3.2450000e+01	   5.4785120e-01	   1.4345838e-01	   5.8533784e-01	
   3.2505000e+01	   5.4966879e-01	   1.3662183e-01	   5.7621827e-01	
   3.2560000e+01	   5.5112581e-01	   1.2918665e-01	   5.6706501e-01	
   3.2615000e+01	   5.5224934e-01	   1.2130027e-01	   5.5798686e-01	
   3.2670000e+01	   5.5308824e-01	   1.1312840e-01	   5.4906106e-01	
   3.2725000e+01	   5.5371122e-01	   1.0485382e-01	   5.4032628e-01	
   3.2780000e+01	   5.5420178e-01	   9.6672039e-02	   5.3177853e-01	
   3.2835000e+01	   5.5465147e-01	   8.8783200e-02	   5.2337152e-01	
   3.2890000e+01	   5.5515300e-01	   8.1380352e-02	   5.1502174e-01	
   3.2945000e+01	   5.5579377e-01	   7.4636412e-02	   5.0661695e-01	
   3.3000000e+01	   5.5664983e-01	   6.8694099e-02	   4.9802659e-01	
   3.3055000e+01	   5.5778121e-01	   6.3661554e-02	   4.8911305e-01	
   3.3110000e+01	   5.5922936e-01	   5.9612766e-02	   4.7974269e-01	
   3.3165000e+01	   5.6101636e-01	   5.6590621e-02	   4.6979735e-01	
   3.3220000e+01	   5.6314536e-01	   5.4611753e-02	   4.5918760e-01	
   3.3275000e+01	   5.6560216e-01	   5.3672650e-02	   4.4786651e-01	
   3.3330000e+01	   5.6835733e-01	   5.3755659e-02	   4.3584017e-01	
   3.3385000e+01	   5.7136757e-01	   5.4833919e-02	   4.2317164e-01	
   3.3440000e+01	   5.7457582e-01	   5.6875520e-02	   4.0997923e-01	
   3.3495000e+01	   5.7791103e-01	   5.9847077e-02	   3.9643159e-01	
   3.3550000e+01	   5.8128878e-01	   6.3715804e-02	   3.8274104e-01	
   3.3605000e+01	   5.8461358e-01	   6.8449181e-02	   3.6915431e-01	
   3.3660000e+01	   5.8778297e-01	   7.4012499e-02	   3.5594092e-01	
   3.3715000e+01	   5.9069293e-01	   8.0365547e-02	   3.4337996e-01	
   3.3770000e+01	   5.9324343e-01	   8.7459619e-02	   3.3174569e-01	
   3.3825000e+01	   5.9534294e-01	   9.5235494e-02	   3.2129336e-01	
   3.3880000e+01	   5.9691128e-01	   1.0362330e-01	   3.1224799e-01	
   3.3935000e+01	   5.9788116e-01	   1.1254531e-01	   3.0479883e-01	
   3.3990000e+01	   5.9819925e-01	   1.2192149e-01	   2.9909946e-01	
   3.4045000e+01	   5.9782645e-01	   1.3167599e-01	   2.9527070e-01	
   3.4100000e+01	   5.9673762e-01	   1.4174312e-01	   2.9340247e-01	
   3.4155000e+01	   5.9492052e-01	   1.5207248e-01	   2.9355342e-01	
   3.4210000e+01	   5.9237391e-01	   1.6263195e-01	   2.9574776e-01	
   3.4265000e+01	   5.8910420e-01	   1.7340694e-01	   2.9997013e-01	
   3.4320000e+01	   5.8512171e-01	   1.8439506e-01	   3.0616064e-01	
   3.4375000e+01	   5.8043831e-01	   1.9559808e-01	   3.1421191e-01	
   3.4430000e+01	   5.7506728e-01	   2.0701296e-01	   3.2396870e-01	
   3.4485000e+01	   5.6902450e-01	   2.1862410e-01	   3.3523080e-01	
   3.4540000e+01	   5.6233021e-01	   2.3039749e-01	   3.4776033e-01	
   3.4595000e+01	   5.5501138e-01	   2.4227637e-01	   3.6129337e-01	
   3.4650000e+01	   5.4710416e-01	   2.5417726e-01	   3.7555299e-01	
   3.4705000e+01	   5.3865601e-01	   2.6598632e-01	   3.9026048e-01	
   3.4760000e+01	   5.2972744e-01	   2.7755748e-01	   4.0514452e-01	
   3.4815000e+01	   5.2039306e-01	   2.8871371e-01	   4.1994836e-01	
   3.4870000e+01	   5.1074090e-01	   2.9925191e-01	   4.3443486e-01	
   3.4925000e+01	   5.0086975e-01	   3.0895004e-01	   4.4838932e-01	
   3.4980000e+01	   4.9088487e-01	   3.1757506e-01	   4.6162034e-01	
   3.5035000e+01	   4.8089306e-01	   3.2489055e-01	   4.7395877e-01	
   3.5090000e+01	   4.7099707e-01	   3.3066493e-01	   4.8525479e-01	
   3.5145000e+01	   4.6129015e-01	   3.3468207e-01	   4.9537400e-01	
   3.5200000e+01	   4.5185220e-01	   3.3675493e-01	   5.0419370e-01	
   3.5255000e+01	   4.4274813e-01	   3.3674074e-01	   5.1160050e-01	
   3.5310000e+01	   4.3402738e-01	   3.3455432e-01	   5.1748941e-01	
   3.5365000e+01	   4.2572350e-01	   3.3017629e-01	   5.2176461e-01	
   3.5420000e+01	   4.1785415e-01	   3.2365572e-01	   5.2434095e-01	
   3.5475000e+01	   4.1042222e-01	   3.1510733e-01	   5.2514414e-01	
   3.5530000e+01	   4.0341802e-01	   3.0470435e-01	   5.2410962e-01	
   3.5585000e+01	   3.9682187e-01	   2.9266828e-01	   5.2118218e-01	
   3.5640000e+01	   3.9060699e-01	   2.7925740e-01	   5.1631848e-01	
   3.5695000e+01	   3.8474323e-01	   2.6475528e-01	   5.0949205e-01	
   3.5750000e+01	   3.7920153e-01	   2.4945969e-01	   5.0069927e-01	
   3.5805000e+01	   3.7395832e-01	   2.3367218e-01	   4.8996484e-01	
   3.5860000e+01	   3.6899908e-01	   2.1768849e-01	   4.7734693e-01	
   3.5915000e+01	   3.6432007e-01	   2.0179067e-01	   4.6294222e-01	
   3.5970000e+01	   3.5992824e-01	   1.8624145e-01	   4.4688856e-01	
   3.6025000e+01	   3.5583872e-01	   1.7128160e-01	   4.2936306e-01	
   3.6080000e+01	   3.5207050e-01	   1.5712992e-01	   4.1057470e-01	
   3.6135000e+01	   3.4864091e-01	   1.4398472e-01	   3.9075298e-01	
   3.6190000e+01	   3.4556024e-01	   1.3202526e-01	   3.7013504e-01	
   3.6245000e+01	   3.4282785e-01	   1.2141193e-01	   3.4895453e-01	
   3.6300000e+01	   3.4043100e-01	   1.1228602e-01	   3.2743425e-01	
   3.6355000e+01	   3.3834632e-01	   1.0477006e-01	   3.0578211e-01	
   3.6410000e+01	   3.3654242e-01	   9.8969510e-02	   2.8418882e-01	
   3.6465000e+01	   3.3498177e-01	   9.4974925e-02	   2.6282555e-01	
   3.6520000e+01	   3.3362127e-01	   9.2862308e-02	   2.4184192e-01	
   3.6575000e+01	   3.3241153e-01	   9.2689223e-02	   2.2136539e-01	
   3.6630000e+01	   3.3129565e-01	   9.4487035e-02	   2.0150289e-01	
   3.6685000e+01	   3.3020913e-01	   9.8252889e-02	   1.8234466e-01	
   3.6740000e+01	   3.2908192e-01	   1.0394455e-01	   1.6397011e-01	
   3.6795000e+01	   3.2784238e-01	   1.1147783e-01	   1.4645453e-01	
   3.6850000e+01	   3.2642215e-01	   1.2072519e-01	   1.2987400e-01	
   3.6905000e+01	   3.2476108e-01	   1.3151609e-01	   1.1430728e-01	
   3.6960000e+01	   3.2281212e-01	   1.4364081e-01	   9.9836002e-02	
   3.7015000e+01	   3.2054573e-01	   1.5685802e-01	   8.6545566e-02	
   3.7070000e+01	   3.1795315e-01	   1.7090365e-01	   7.4527520e-02	
   3.7125000e+01	   3.1504850e-01	   1.8549952e-01	   6.3881920e-02	
   3.7180000e+01	   3.1186969e-01	   2.0036236e-01	   5.4717571e-02	
   3.7235000e+01	   3.0847803e-01	   2.1521367e-01	   4.7148845e-02	
   3.7290000e+01	   3.0495596e-01	   2.2978919e-01	   4.1288591e-02	
   3.7345000e+01	   3.0140300e-01	   2.4384564e-01	   3.7238256e-02	
   3.7400000e+01	   2.9793042e-01	   2.5716471e-01	   3.5077766e-02	
   3.7455000e+01	   2.9465537e-01	   2.6955435e-01	   3.4856895e-02	
   3.7510000e+01	   2.9169447e-01	   2.8084822e-01	   3.6588305e-02	
   3.7565000e+01	   2.8915770e-01	   2.9090435e-01	   4.0242640e-02	
   3.7620000e+01	   2.8714342e-01	   2.9960515e-01	   4.5746783e-02	
   3.7675000e+01	   2.8573465e-01	   3.0685958e-01	   5.2985771e-02	
   3.7730000e+01	   2.8499621e-01	   3.1260665e-01	   6.1807857e-02	
   3.7785000e+01	   2.8497287e-01	   3.1681867e-01	   7.2032103e-02	
   3.7840000e+01	   2.8568922e-01	   3.1950467e-01	   8.3458099e-02	
   3.7895000e+01	   2.8715114e-01	   3.2071402e-01	   9.5876148e-02	
   3.7950000e+01	   2.8934735e-01	   3.2053904e-01	   1.0907552e-01	
   3.8005000e+01	   2.9225010e-01	   3.1911341e-01	   1.2285007e-01	
   3.8060000e+01	   2.9581493e-01	   3.1660421e-01	   1.3700240e-01	
   3.8115000e+01	   2.9998055e-01	   3.1319912e-01	   1.5134729e-01	
   3.8170000e+01	   3.0466913e-01	   3.0909289e-01	   1.6571418e-01	
   3.8225000e+01	   3.0978727e-01	   3.0447737e-01	   1.7994892e-01	
   3.8280000e+01	   3.1522769e-01	   2.9953672e-01	   1.9391559e-01	
   3.8335000e+01	   3.2087104e-01	   2.9444694e-01	   2.0749815e-01	
   3.8390000e+01	   3.2658707e-01	   2.8937696e-01	   2.2060122e-01	
   3.8445000e+01	   3.3223505e-01	   2.8448856e-01	   2.3314908e-01	
   3.8500000e+01	   3.3766446e-01	   2.7993431e-01	   2.4508318e-01	
   3.8555000e+01	   3.4271768e-01	   2.7585341e-01	   2.5635860e-01	
   3.8610000e+01	   3.4723469e-01	   2.7236570e-01	   2.6694021e-01	
   3.8665000e+01	   3.5105904e-01	   2.6956470e-01	   2.7679887e-01	
   3.8720000e+01	   3.5404361e-01	   2.6751181e-01	   2.8590853e-01	
   3.8775000e+01	   3.5605502e-01	   2.6623255e-01	   2.9424436e-01	
   3.8830000e+01	   3.5697593e-01	   2.6571460e-01	   3.0178161e-01	
   3.8885000e+01	   3.5670540e-01	   2.6590769e-01	   3.0849479e-01	
   3.8940000e+01	   3.5515888e-01	   2.6672675e-01	   3.1435819e-01	
   3.8995000e+01	   3.5226892e-01	   2.6805817e-01	   3.1934892e-01	
   3.9050000e+01	   3.4798723e-01	   2.6976779e-01	   3.2345233e-01	
   3.9105000e+01	   3.4228746e-01	   2.7170946e-01	   3.2666847e-01	
   3.9160000e+01	   3.3516823e-01	   2.7373425e-01	   3.2901756e-01	
   3.9215000e+01	   3.2665554e-01	   2.7569966e-01	   3.3054281e-01	
   3.9270000e+01	   3.1680409e-01	   2.7747723e-01	   3.3130949e-01	
   3.9325000e+01	   3.0569785e-01	   2.7895757e-01	   3.3140125e-01	
   3.9380000e+01	   2.9344959e-01	   2.8005210e-01	   3.3091466e-01	
   3.9435000e+01	   2.8019869e-01	   2.8069193e-01	   3.2995299e-01	
   3.9490000e+01	   2.6610700e-01	   2.8082467e-01	   3.2861940e-01	
   3.9545000e+01	   2.5135335e-01	   2.8041088e-01	   3.2701011e-01	
   3.9600000e+01	   2.3612794e-01	   2.7942091e-01	   3.2520863e-01	
   3.9655000e+01	   2.2062671e-01	   2.7783142e-01	   3.2328256e-01	
   3.9710000e+01	   2.0504531e-01	   2.7562101e-01	   3.2128340e-01	
   3.9765000e+01	   1.8957285e-01	   2.7276594e-01	   3.1924865e-01	
   3.9820000e+01	   1.7438689e-01	   2.6923810e-01	   3.1720406e-01	
   3.9875000e+01	   1.5964989e-01	   2.6500603e-01	   3.1516480e-01	
   3.9930000e+01	   1.4550653e-01	   2.6003897e-01	   3.1313642e-01	
   3.9985000e+01	   1.3208164e-01	   2.5431389e-01	   3.1111676e-01	
   4.0040000e+01	   1.1948005e-01	   2.4782397e-01	   3.0909963e-01	
   4.0095000e+01	   1.0778777e-01	   2.4058550e-01	   3.0707826e-01	
   4.0150000e+01	   9.7073027e-02	   2.3263981e-01	   3.0504714e-01	
   4.0205000e+01	   8.7385624e-02	   2.2404996e-01	   3.0300232e-01	
   4.0260000e+01	   7.8755768e-02	   2.1489466e-01	   3.0094105e-01	
   4.0315000e+01	   7.1192837e-02	   2.0526191e-01	   2.9886053e-01	
   4.0370000e+01	   6.4683687e-02	   1.9524375e-01	   2.9675607e-01	
   4.0425000e+01	   5.9190448e-02	   1.8493213e-01	   2.9462044e-01	
   4.0480000e+01	   5.4648827e-02	   1.7441585e-01	   2.9244537e-01	
   4.0535000e+01	   5.0967865e-02	   1.6377885e-01	   2.9022450e-01	
   4.0590000e+01	   4.8031800e-02	   1.5310089e-01	   2.8795678e-01	
   4.0645000e+01	   4.5704620e-02	   1.4246170e-01	   2.8564976e-01	
   4.0700000e+01	   4.3837218e-02	   1.3194697e-01	   2.8332101e-01	
   4.0755000e+01	   4.2276395e-02	   1.2165328e-01	   2.8099638e-01	
   4.0810000e+01	   4.0874694e-02	   1.1168931e-01	   2.7870483e-01	
   4.0865000e+01	   3.9499754e-02	   1.0217284e-01	   2.7647186e-01	
   4.0920000e+01	   3.8041630e-02	   9.3224906e-02	   2.7431231e-01	
   4.0975000e+01	   3.6416849e-02	   8.4962658e-02	   2.7222354e-01	
   4.1030000e+01	   3.4568968e-02	   7.7492646e-02	   2.7018036e-01	
   4.1085000e+01	   3.2466609e-02	   7.0905667e-02	   2.6813363e-01	
   4.1140000e+01	   3.0100583e-02	   6.5274425e-02	   2.6601245e-01	
   4.1195000e+01	   2.7480951e-02	   6.0653885e-02	   2.6372818e-01	
   4.1250000e+01	   2.4633696e-02	   5.7082552e-02	   2.6117792e-01	
   4.1305000e+01	   2.1596588e-02	   5.4582745e-02	   2.5824708e-01	
   4.1360000e+01	   1.8414451e-02	   5.3159237e-02	   2.5481168e-01	
   4.1415000e+01	   1.5134351e-02	   5.2796714e-02	   2.5074068e-01	
   4.1470000e+01	   1.1801084e-02	   5.3457134e-02	   2.4589819e-01	
   4.1525000e+01	   8.4535913e-03	   5.5078623e-02	   2.4014663e-01	
   4.1580000e+01	   5.1233139e-03	   5.7577241e-02	   2.3335237e-01	
   4.1635000e+01	   1.8348740e-03	   6.0851119e-02	   2.2539392e-01	
   4.1690000e+01	  -1.3914948e-03	   6.4785128e-02	   2.1617106e-01	
   4.1745000e+01	  -4.5365070e-03	   6.9255724e-02	   2.0561407e-01	
   4.1800000e+01	  -7.5779605e-03	   7.4137398e-02	   1.9369224e-01	
   4.1855000e+01	  -1.0487577e-02	   7.9310680e-02	   1.8042012e-01	
   4.1910000e+01	  -1.3229805e-02	   8.4669690e-02	   1.6586002e-01	
   4.1965000e+01	  -1.5762778e-02	   9.0128271e-02	   1.5012120e-01	
   4.2020000e+01	  -1.8040874e-02	   9.5624803e-02	   1.3335694e-01	
   4.2075000e+01	  -2.0018467e-02	   1.0112436e-01	   1.1575924e-01	
   4.2130000e+01	  -2.1654186e-02	   1.0661632e-01	   9.7550833e-02	
   4.2185000e+01	  -2.2914270e-02	   1.1210786e-01	   7.8975938e-02	
   4.2240000e+01	  -2.3773802e-02	   1.1761578e-01	   6.0290657e-02	
   4.2295000e+01	  -2.4216163e-02	   1.2315846e-01	   4.1751802e-02	
   4.2350000e+01	  -2.4232237e-02	   1.2874905e-01	   2.3602899e-02	
   4.2405000e+01	  -2.3820415e-02	   1.3439065e-01	   6.0599830e-03	
   4.2460000e+01	  -2.2987376e-02	   1.4007434e-01	  -1.0698160e-02	
   4.2515000e+01	  -2.1749068e-02	   1.4578017e-01	  -2.6533279e-02	
   4.2570000e+01	  -2.0131157e-02	   1.5147990e-01	  -4.1345733e-02	
   4.2625000e+01	  -1.8168369e-02	   1.5714127e-01	  -5.5069634e-02	
   4.2680000e+01	  -1.5902550e-02	   1.6273293e-01	  -6.7666819e-02	
   4.2735000e+01	  -1.3379635e-02	   1.6822863e-01	  -7.9120887e-02	
   4.2790000e+01	  -1.0645822e-02	   1.7360800e-01	  -8.9432176e-02	
   4.2845000e+01	  -7.7434680e-03	   1.7885356e-01	  -9.8614491e-02	
   4.2900000e+01	  -4.7074808e-03	   1.8394584e-01	  -1.0669411e-01	
   4.2955000e+01	  -1.5631687e-03	   1.8885918e-01	  -1.1371083e-01	
   4.3010000e+01	   1.6741794e-03	   1.9356001e-01	  -1.1972003e-01	
   4.3065000e+01	   4.9987429e-03	   1.9800892e-01	  -1.2479371e-01	
   4.3120000e+01	   8.4135602e-03	   2.0216639e-01	  -1.2901864e-01	
   4.3175000e+01	   1.1929696e-02	   2.0600031e-01	  -1.3249121e-01	
   4.3230000e+01	   1.5564351e-02	   2.0949308e-01	  -1.3531006e-01	
   4.3285000e+01	   1.9337976e-02	   2.1264542e-01	  -1.3756803e-01	
   4.3340000e+01	   2.3271465e-02	   2.1547597e-01	  -1.3934545e-01	
   4.3395000e+01	   2.7384280e-02	   2.1801765e-01	  -1.4070723e-01	
   4.3450000e+01	   3.1693645e-02	   2.2031311e-01	  -1.4170534e-01	
   4.3505000e+01	   3.6214853e-02	   2.2241063e-01	  -1.4238495e-01	
   4.3560000e+01	   4.0962650e-02	   2.2436020e-01	  -1.4279089e-01	
   4.3615000e+01	   4.5953022e-02	   2.2620895e-01	  -1.4297251e-01	
   4.3670000e+01	   5.1204312e-02	   2.2799547e-01	  -1.4298646e-01	
   4.3725000e+01	   5.6737143e-02	   2.2974407e-01	  -1.4289729e-01	
   4.3780000e+01	   6.2573456e-02	   2.3146014e-01	  -1.4277545e-01	
   4.3835000e+01	   6.8734828e-02	   2.3312771e-01	  -1.4269323e-01	
   4.3890000e+01	   7.5239844e-02	   2.3471116e-01	  -1.4271903e-01	
   4.3945000e+01	   8.2100998e-02	   2.3616248e-01	  -1.4291154e-01	
   4.4000000e+01	   8.9322225e-02	   2.3743175e-01	  -1.4331534e-01	
   4.4055000e+01	   9.6897234e-02	   2.3847515e-01	  -1.4396032e-01	
   4.4110000e+01	   1.0480790e-01	   2.3925669e-01	  -1.4486539e-01	
   4.4165000e+01	   1.1302287e-01	   2.3974423e-01	  -1.4604443e-01	
   4.4220000e+01	   1.2149751e-01	   2.3990344e-01	  -1.4751072e-01	
   4.4275000e+01	   1.3017544e-01	   2.3969189e-01	  -1.4927771e-01	
   4.4330000e+01	   1.3899063e-01	   2.3905447e-01	  -1.5135699e-01	
   4.4385000e+01	   1.4786885e-01	   2.3792106e-01	  -1.5375523e-01	
   4.4440000e+01	   1.5672887e-01	   2.3620716e-01	  -1.5647111e-01	
   4.4495000e+01	   1.6548307e-01	   2.3381604e-01	  -1.5949285e-01	
   4.4550000e+01	   1.7403785e-01	   2.3064065e-01	  -1.6279752e-01	
   4.4605000e+01	   1.8229412e-01	   2.2656603e-01	  -1.6635269e-01	
   4.4660000e+01	   1.9014878e-01	   2.2147510e-01	  -1.7012000e-01	
   4.4715000e+01	   1.9749743e-01	   2.1525884e-01	  -1.7405958e-01	
   4.4770000e+01	   2.0423781e-01	   2.0782770e-01	  -1.7813426e-01	
   4.4825000e+01	   2.1027369e-01	   1.9912062e-01	  -1.8231214e-01	
   4.4880000e+01	   2.1551876e-01	   1.8911004e-01	  -1.8656713e-01	
   4.4935000e+01	   2.1990018e-01	   1.7780381e-01	  -1.9087810e-01	
   4.4990000e+01	   2.2336110e-01	   1.6524530e-01	  -1.9522709e-01	
   4.5045000e+01	   2.2586235e-01	   1.5151181e-01	  -1.9959613e-01	
   4.5100000e+01	   2.2738365e-01	   1.3671133e-01	  -2.0396291e-01	
   4.5155000e+01	   2.2792463e-01	   1.2097733e-01	  -2.0829736e-01	
   4.5210000e+01	   2.2750539e-01	   1.0446241e-01	  -2.1256069e-01	
   4.5265000e+01	   2.2616635e-01	   8.7331823e-02	  -2.1670707e-01	
   4.5320000e+01	   2.2396767e-01	   6.9757859e-02	  -2.2068755e-01	
   4.5375000e+01	   2.2098787e-01	   5.1915467e-02	  -2.2445585e-01	
   4.5430000e+01	   2.1732095e-01	   3.3978114e-02	  -2.2797556e-01	
   4.5485000e+01	   2.1307210e-01	   1.6113738e-02	  -2.3122703e-01	
   4.5540000e+01	   2.0835323e-01	  -1.5184391e-03	  -2.3421224e-01	
   4.5595000e+01	   2.0327898e-01	  -1.8770359e-02	  -2.3695789e-01	
   4.5650000e+01	   1.9796356e-01	  -3.5507632e-02	  -2.3951733e-01	
   4.5705000e+01	   1.9251790e-01	  -5.1611817e-02	  -2.4197136e-01	
   4.5760000e+01	   1.8704688e-01	  -6.6981389e-02	  -2.4442662e-01	
   4.5815000e+01	   1.8164637e-01	  -8.1531091e-02	  -2.4701091e-01	
   4.5870000e+01	   1.7640046e-01	  -9.5190544e-02	  -2.4986549e-01	
   4.5925000e+01	   1.7137920e-01	  -1.0790307e-01	  -2.5313461e-01	
   4.5980000e+01	   1.6663703e-01	  -1.1962476e-01	  -2.5695426e-01	
   4.6035000e+01	   1.6221185e-01	  -1.3032360e-01	  -2.6144358e-01	
   4.6090000e+01	   1.5812443e-01	  -1.3997919e-01	  -2.6670146e-01	
   4.6145000e+01	   1.5437829e-01	  -1.4858380e-01	  -2.7280692e-01	
   4.6200000e+01	   1.5096073e-01	  -1.5614483e-01	  -2.7982000e-01	
   4.6255000e+01	   1.4784538e-01	  -1.6268801e-01	  -2.8778136e-01	
   4.6310000e+01	   1.4499494e-01	  -1.6826021e-01	  -2.9671046e-01	
   4.6365000e+01	   1.4236309e-01	  -1.7293084e-01	  -3.0660233e-01	
   4.6420000e+01	   1.3989582e-01	  -1.7679055e-01	  -3.1742290e-01	
   4.6475000e+01	   1.3753284e-01	  -1.7994754e-01	  -3.2910282e-01	
   4.6530000e+01	   1.3520947e-01	  -1.8252287e-01	  -3.4153165e-01	
   4.6585000e+01	   1.3285852e-01	  -1.8464589e-01	  -3.5455431e-01	
   4.6640000e+01	   1.3041255e-01	  -1.8644941e-01	  -3.6797054e-01	
   4.6695000e+01	   1.2780664e-01	  -1.8806418e-01	  -3.8153820e-01	
   4.6750000e+01	   1.2498109e-01	  -1.8961220e-01	  -3.9498188e-01	
   4.6805000e+01	   1.2188480e-01	  -1.9119937e-01	  -4.0800692e-01	
   4.6860000e+01	   1.1847945e-01	  -1.9290830e-01	  -4.2031567e-01	
   4.6915000e+01	   1.1474343e-01	  -1.9479428e-01	  -4.3162307e-01	
   4.6970000e+01	   1.1067397e-01	  -1.9688645e-01	  -4.4167062e-01	
   4.7025000e+01	   1.0628658e-01	  -1.9919314e-01	  -4.5023880e-01	
   4.7080000e+01	   1.0161240e-01	  -2.0170811e-01	  -4.5715719e-01	
   4.7135000e+01	   9.6694068e-02	  -2.0441474e-01	  -4.6231124e-01	
   4.7190000e+01	   9.1581194e-02	  -2.0728793e-01	  -4.6564511e-01	
   4.7245000e+01	   8.6326351e-02	  -2.1029399e-01	  -4.6716096e-01	
   4.7300000e+01	   8.0982741e-02	  -2.1338964e-01	  -4.6691512e-01	
   4.7355000e+01	   7.5603817e-02	  -2.1652176e-01	  -4.6501275e-01	
   4.7410000e+01	   7.0243359e-02	  -2.1962882e-01	  -4.6160239e-01	
   4.7465000e+01	   6.4954242e-02	  -2.2264463e-01	  -4.5687064e-01	
   4.7520000e+01	   5.9785749e-02	  -2.2550346e-01	  -4.5103519e-01	
   4.7575000e+01	   5.4780535e-02	  -2.2814587e-01	  -4.4433536e-01	
   4.7630000e+01	   4.9972030e-02	  -2.3052525e-01	  -4.3702210e-01	
   4.7685000e+01	   4.5382687e-02	  -2.3261420e-01	  -4.2934938e-01	
   4.7740000e+01	   4.1023995e-02	  -2.3440940e-01	  -4.2156723e-01	
   4.7795000e+01	   3.6899020e-02	  -2.3593375e-01	  -4.1391471e-01	
   4.7850000e+01	   3.3006415e-02	  -2.3723629e-01	  -4.0661196e-01	
   4.7905000e+01	   2.9343457e-02	  -2.3839057e-01	  -3.9985184e-01	
   4.7960000e+01	   2.5906585e-02	  -2.3949099e-01	  -3.9379424e-01	
   4.8015000e+01	   2.2689828e-02	  -2.4064623e-01	  -3.8856471e-01	
   4.8070000e+01	   1.9682505e-02	  -2.4197179e-01	  -3.8425730e-01	
   4.8125000e+01	   1.6867810e-02	  -2.4358364e-01	  -3.8093845e-01	
   4.8180000e+01	   1.4223434e-02	  -2.4559284e-01	  -3.7864860e-01	
   4.8235000e+01	   1.1723919e-02	  -2.4809967e-01	  -3.7740068e-01	
   4.8290000e+01	   9.3428530e-03	  -2.5118751e-01	  -3.7717745e-01	
   4.8345000e+01	   7.0534234e-03	  -2.5491750e-01	  -3.7793025e-01	
   4.8400000e+01	   4.8277171e-03	  -2.5932441e-01	  -3.7957903e-01	
   4.8455000e+01	   2.6360233e-03	  -2.6441457e-01	  -3.8201355e-01	
   4.8510000e+01	   4.4646302e-04	  -2.7016786e-01	  -3.8509705e-01	
   4.8565000e+01	  -1.7754195e-03	  -2.7654378e-01	  -3.8867432e-01	
   4.8620000e+01	  -4.0671936e-03	  -2.8348947e-01	  -3.9258331e-01	
   4.8675000e+01	  -6.4700378e-03	  -2.9094755e-01	  -3.9666706e-01	
   4.8730000e+01	  -9.0291310e-03	  -2.9886339e-01	  -4.0078299e-01	
   4.8785000e+01	  -1.1793710e-02	  -3.0719080e-01	  -4.0480877e-01	
   4.8840000e+01	  -1.4816218e-02	  -3.1589401e-01	  -4.0864567e-01	
   4.8895000e+01	  -1.8150322e-02	  -3.2494505e-01	  -4.1222057e-01	
   4.8950000e+01	  -2.1848685e-02	  -3.3431818e-01	  -4.1548812e-01	
   4.9005000e+01	  -2.5961725e-02	  -3.4398412e-01	  -4.1843365e-01	
   4.9060000e+01	  -3.0537179e-02	  -3.5390513e-01	  -4.2107559e-01	
   4.9115000e+01	  -3.5618963e-02	  -3.6403098e-01	  -4.2346663e-01	
   4.9170000e+01	  -4.1244606e-02	  -3.7429651e-01	  -4.2569361e-01	
   4.9225000e+01	  -4.7442196e-02	  -3.8462144e-01	  -4.2787582e-01	
   4.9280000e+01	  -5.4228267e-02	  -3.9491234e-01	  -4.3015976e-01	
   4.9335000e+01	  -6.1607172e-02	  -4.0506777e-01	  -4.3270945e-01	
   4.9390000e+01	  -6.9571470e-02	  -4.1498732e-01	  -4.3569441e-01	
   4.9445000e+01	  -7.8102394e-02	  -4.2458403e-01	  -4.3927816e-01	
   4.9500000e+01	  -8.7169808e-02	  -4.3379561e-01	  -4.4360799e-01	
   4.9555000e+01	  -9.6731684e-02	  -4.4259058e-01	  -4.4880549e-01	
   4.9610000e+01	  -1.0673370e-01	  -4.5096912e-01	  -4.5495821e-01	
   4.9665000e+01	  -1.1710977e-01	  -4.5896037e-01	  -4.6211450e-01	
   4.9720000e+01	  -1.2778385e-01	  -4.6661731e-01	  -4.7028260e-01	
   4.9775000e+01	  -1.3867257e-01	  -4.7400947e-01	  -4.7943351e-01	
   4.9830000e+01	  -1.4968761e-01	  -4.8121474e-01	  -4.8950528e-01	
   4.9885000e+01	  -1.6073722e-01	  -4.8831147e-01	  -5.0040726e-01	
   4.9940000e+01	  -1.7172687e-01	  -4.9537123e-01	  -5.1202508e-01	
   4.9995000e+01	  -1.8255983e-01	  -5.0245252e-01	  -5.2422758e-01	
   5.0050000e+01	  -1.9313847e-01	  -5.0959580e-01	  -5.3687566e-01	
   5.0105000e+01	  -2.0336630e-01	  -5.1682071e-01	  -5.4983208e-01	
   5.0160000e+01	  -2.1315090e-01	  -5.2412477e-01	  -5.6297058e-01	
   5.0215000e+01	  -2.2240751e-01	  -5.3148321e-01	  -5.7618223e-01	
   5.0270000e+01	  -2.3106194e-01	  -5.3884973e-01	  -5.8937777e-01	
   5.0325000e+01	  -2.3905188e-01	  -5.4615874e-01	  -6.0248695e-01	
   5.0380000e+01	  -2.4632629e-01	  -5.5332891e-01	  -6.1545616e-01	
   5.0435000e+01	  -2.5284363e-01	  -5.6026665e-01	  -6.2824469e-01	
   5.0490000e+01	  -2.5856989e-01	  -5.6686863e-01	  -6.4082001e-01	
   5.0545000e+01	  -2.6347662e-01	  -5.7302433e-01	  -6.5315321e-01	
   5.0600000e+01	  -2.6753910e-01	  -5.7862012e-01	  -6.6521556e-01	
   5.0655000e+01	  -2.7073501e-01	  -5.8354543e-01	  -6.7697571e-01	
   5.0710000e+01	  -2.7304428e-01	  -5.8770026e-01	  -6.8839684e-01	
   5.0765000e+01	  -2.7445070e-01	  -5.9100248e-01	  -6.9943373e-01	
   5.0820000e+01	  -2.7494504e-01	  -5.9339250e-01	  -7.1003039e-01	
   5.0875000e+01	  -2.7452805e-01	  -5.9483417e-01	  -7.2011903e-01	
   5.0930000e+01	  -2.7321227e-01	  -5.9531271e-01	  -7.2962183e-01	
   5.0985000e+01	  -2.7102292e-01	  -5.9483108e-01	  -7.3845640e-01	
   5.1040000e+01	  -2.6799832e-01	  -5.9340527e-01	  -7.4654335e-01	
   5.1095000e+01	  -2.6418917e-01	  -5.9105832e-01	  -7.5381209e-01	
   5.1150000e+01	  -2.5965680e-01	  -5.8781382e-01	  -7.6020309e-01	
   5.1205000e+01	  -2.5447106e-01	  -5.8369092e-01	  -7.6566747e-01	
   5.1260000e+01	  -2.4870872e-01	  -5.7870276e-01	  -7.7016523e-01	
   5.1315000e+01	  -2.4245266e-01	  -5.7285821e-01	  -7.7366370e-01	
   5.1370000e+01	  -2.3579160e-01	  -5.6616520e-01	  -7.7613737e-01	
   5.1425000e+01	  -2.2882010e-01	  -5.5863374e-01	  -7.7756981e-01	
   5.1480000e+01	  -2.2163825e-01	  -5.5027718e-01	  -7.7795650e-01	
   5.1535000e+01	  -2.1435041e-01	  -5.4111139e-01	  -7.7730616e-01	
   5.1590000e+01	  -2.0706291e-01	  -5.3115272e-01	  -7.7563971e-01	
   5.1645000e+01	  -1.9988144e-01	  -5.2041618e-01	  -7.7298843e-01	
   5.1700000e+01	  -1.9290834e-01	  -5.0891446e-01	  -7.6939256e-01	
   5.1755000e+01	  -1.8623954e-01	  -4.9665805e-01	  -7.6489936e-01	
   5.1810000e+01	  -1.7996177e-01	  -4.8365666e-01	  -7.5955919e-01	
   5.1865000e+01	  -1.7415062e-01	  -4.6992238e-01	  -7.5342040e-01	
   5.1920000e+01	  -1.6886974e-01	  -4.5547402e-01	  -7.4652490e-01	
   5.1975000e+01	  -1.6417041e-01	  -4.4034110e-01	  -7.3890557e-01	
   5.2030000e+01	  -1.6009086e-01	  -4.2456607e-01	  -7.3058561e-01	
   5.2085000e+01	  -1.5665531e-01	  -4.0820354e-01	  -7.2158094e-01	
   5.2140000e+01	  -1.5387181e-01	  -3.9131635e-01	  -7.1190500e-01	
   5.2195000e+01	  -1.5172884e-01	  -3.7397072e-01	  -7.0157351e-01	
   5.2250000e+01	  -1.5019166e-01	  -3.5623318e-01	  -6.9060715e-01	
   5.2305000e+01	  -1.4920019e-01	  -3.3817037e-01	  -6.7903209e-01	
   5.2360000e+01	  -1.4866911e-01	  -3.1985000e-01	  -6.6687834e-01	
   5.2415000e+01	  -1.4848982e-01	  -3.0134153e-01	  -6.5417682e-01	
   5.2470000e+01	  -1.4853302e-01	  -2.8271637e-01	  -6.4095639e-01	
   5.2525000e+01	  -1.4865205e-01	  -2.6404871e-01	  -6.2724308e-01	
   5.2580000e+01	  -1.4868708e-01	  -2.4541619e-01	  -6.1306204e-01	
   5.2635000e+01	  -1.4847075e-01	  -2.2689890e-01	  -5.9844051e-01	
   5.2690000e+01	  -1.4783481e-01	  -2.0857651e-01	  -5.8340947e-01	
   5.2745000e+01	  -1.4661810e-01	  -1.9052525e-01	  -5.6800323e-01	
   5.2800000e+01	  -1.4467504e-01	  -1.7281580e-01	  -5.5225756e-01	
   5.2855000e+01	  -1.4188352e-01	  -1.5551114e-01	  -5.3620738e-01	
   5.2910000e+01	  -1.3815062e-01	  -1.3866326e-01	  -5.1988412e-01	
   5.2965000e+01	  -1.3341509e-01	  -1.2230965e-01	  -5.0331192e-01	
   5.3020000e+01	  -1.2764688e-01	  -1.0647029e-01	  -4.8650276e-01	
   5.3075000e+01	  -1.2084477e-01	  -9.1145181e-02	  -4.6945201e-01	
   5.3130000e+01	  -1.1303366e-01	  -7.6313590e-02	  -4.5213827e-01	
   5.3185000e+01	  -1.0426304e-01	  -6.1936683e-02	  -4.3453002e-01	
   5.3240000e+01	  -9.4606619e-02	  -4.7962722e-02	  -4.1659716e-01	
   5.3295000e+01	  -8.4161650e-02	  -3.4331976e-02	  -3.9832309e-01	
   5.3350000e+01	  -7.3046813e-02	  -2.0980097e-02	  -3.7971401e-01	
   5.3405000e+01	  -6.1399033e-02	  -7.8414818e-03	  -3.6080477e-01	
   5.3460000e+01	  -4.9370238e-02	   5.1455727e-03	  -3.4165991e-01	
   5.3515000e+01	  -3.7124183e-02	   1.8032335e-02	  -3.2236947e-01	
   5.3570000e+01	  -2.4832725e-02	   3.0853819e-02	  -3.0304049e-01	
   5.3625000e+01	  -1.2670899e-02	   4.3625303e-02	  -2.8378662e-01	
   5.3680000e+01	  -8.1052701e-04	   5.6341989e-02	  -2.6471737e-01	
   5.3735000e+01	   1.0587455e-02	   6.8981889e-02	  -2.4592833e-01	
   5.3790000e+01	   2.1381113e-02	   8.1510490e-02	  -2.2749382e-01	
   5.3845000e+01	   3.1454617e-02	   9.3885066e-02	  -2.0946392e-01	
   5.3900000e+01	   4.0722926e-02	   1.0605796e-01	  -1.9186567e-01	
   5.3955000e+01	   4.9133764e-02	   1.1797947e-01	  -1.7470716e-01	
   5.4010000e+01	   5.6667417e-02	   1.2960063e-01	  -1.5798370e-01	
   5.4065000e+01	   6.3334986e-02	   1.4087597e-01	  -1.4168588e-01	
   5.4120000e+01	   6.9175658e-02	   1.5176606e-01	  -1.2580794e-01	
   5.4175000e+01	   7.4253697e-02	   1.6223943e-01	  -1.1035384e-01	
   5.4230000e+01	   7.8655542e-02	   1.7227334e-01	  -9.5340461e-02	
   5.4285000e+01	   8.2486329e-02	   1.8185325e-01	  -8.0798163e-02	
   5.4340000e+01	   8.5864667e-02	   1.9097148e-01	  -6.6769285e-02	
   5.4395000e+01	   8.8915771e-02	   1.9962653e-01	  -5.3304024e-02	
   5.4450000e+01	   9.1764677e-02	   2.0782458e-01	  -4.0453884e-02	
   5.4505000e+01	   9.4530777e-02	   2.1558182e-01	  -2.8264584e-02	
   5.4560000e+01	   9.7323431e-02	   2.2292525e-01	  -1.6771030e-02	
   5.4615000e+01	   1.0023820e-01	   2.2989075e-01	  -5.9951988e-03	
   5.4670000e+01	   1.0335386e-01	   2.3651940e-01	   4.0537445e-03	
   5.4725000e+01	   1.0673001e-01	   2.4285315e-01	   1.3377468e-02	
   5.4780000e+01	   1.1040491e-01	   2.4893013e-01	   2.1984617e-02	
   5.4835000e+01	   1.1439414e-01	   2.5478038e-01	   2.9886534e-02	
   5.4890000e+01	   1.1869113e-01	   2.6042304e-01	   3.7095031e-02	
   5.4945000e+01	   1.2326989e-01	   2.6586609e-01	   4.3622906e-02	
   5.5000000e+01	   1.2808966e-01	   2.7110863e-01	   4.9485698e-02	
   5.5055000e+01	   1.3310115e-01	   2.7614598e-01	   5.4703374e-02	
   5.5110000e+01	   1.3825307e-01	   2.8097531e-01	   5.9301583e-02	
   5.5165000e+01	   1.4349740e-01	   2.8559969e-01	   6.3312051e-02	
   5.5220000e+01	   1.4879253e-01	   2.9002896e-01	   6.6772006e-02	
   5.5275000e+01	   1.5410480e-01	   2.9427802e-01	   6.9723383e-02	
   5.5330000e+01	   1.5940850e-01	   2.9836309e-01	   7.2212677e-02	
   5.5385000e+01	   1.6468432e-01	   3.0229720e-01	   7.4292070e-02	
   5.5440000e+01	   1.6991617e-01	   3.0608605e-01	   7.6022664e-02	
   5.5495000e+01	   1.7508769e-01	   3.0972628e-01	   7.7480031e-02	
   5.5550000e+01	   1.8017996e-01	   3.1320734e-01	   7.8760259e-02	
   5.5605000e+01	   1.8517129e-01	   3.1651716e-01	   7.9983219e-02	
   5.5660000e+01	   1.9003915e-01	   3.1964977e-01	   8.1290577e-02	
   5.5715000e+01	   1.9476310e-01	   3.2261301e-01	   8.2838060e-02	
   5.5770000e+01	   1.9932747e-01	   3.2543461e-01	   8.4783679e-02	
   5.5825000e+01	   2.0372300e-01	   3.2816490e-01	   8.7275302e-02	
   5.5880000e+01	   2.0794707e-01	   3.3087508e-01	   9.0440978e-02	
   5.5935000e+01	   2.1200268e-01	   3.3365204e-01	   9.4383681e-02	
   5.5990000e+01	   2.1589707e-01	   3.3659161e-01	   9.9180362e-02	
   5.6045000e+01	   2.1964003e-01	   3.3979109e-01	   1.0488428e-01	
   5.6100000e+01	   2.2324176e-01	   3.4334152e-01	   1.1152943e-01	
   5.6155000e+01	   2.2671020e-01	   3.4732136e-01	   1.1913598e-01	
   5.6210000e+01	   2.3004888e-01	   3.5179265e-01	   1.2771550e-01	
   5.6265000e+01	   2.3325658e-01	   3.5679961e-01	   1.3727379e-01	
   5.6320000e+01	   2.3632898e-01	   3.6236925e-01	   1.4781095e-01	
   5.6375000e+01	   2.3926153e-01	   3.6851405e-01	   1.5932059e-01	
   5.6430000e+01	   2.4205274e-01	   3.7523740e-01	   1.7179022e-01	
   5.6485000e+01	   2.4470662e-01	   3.8253959e-01	   1.8520320e-01	
   5.6540000e+01	   2.4723349e-01	   3.9042147e-01	   1.9954037e-01	
   5.6595000e+01	   2.4964957e-01	   3.9888388e-01	   2.1477974e-01	
   5.6650000e+01	   2.5197660e-01	   4.0792484e-01	   2.3089302e-01	
   5.6705000e+01	   2.5424217e-01	   4.1753698e-01	   2.4783941e-01	
   5.6760000e+01	   2.5648053e-01	   4.2770571e-01	   2.6555863e-01	
   5.6815000e+01	   2.5873258e-01	   4.3840784e-01	   2.8396621e-01	
   5.6870000e+01	   2.6104404e-01	   4.4961043e-01	   3.0295372e-01	
   5.6925000e+01	   2.6346153e-01	   4.6127051e-01	   3.2239444e-01	
   5.6980000e+01	   2.6602712e-01	   4.7333481e-01	   3.4215217e-01	
   5.7035000e+01	   2.6877293e-01	   4.8573936e-01	   3.6209065e-01	
   5.7090000e+01	   2.7171752e-01	   4.9840922e-01	   3.8208195e-01	
   5.7145000e+01	   2.7486437e-01	   5.1125899e-01	   4.0201308e-01	
   5.7200000e+01	   2.7820139e-01	   5.2419360e-01	   4.2178939e-01	
   5.7255000e+01	   2.8170077e-01	   5.3710945e-01	   4.4133391e-01	
   5.7310000e+01	   2.8531948e-01	   5.4989611e-01	   4.6058301e-01	
   5.7365000e+01	   2.8900031e-01	   5.6243831e-01	   4.7947998e-01	
   5.7420000e+01	   2.9267360e-01	   5.7461749e-01	   4.9796777e-01	
   5.7475000e+01	   2.9625981e-01	   5.8631328e-01	   5.1598286e-01	
   5.7530000e+01	   2.9967341e-01	   5.9740570e-01	   5.3345241e-01	
   5.7585000e+01	   3.0282784e-01	   6.0777941e-01	   5.5029551e-01	
   5.7640000e+01	   3.0564049e-01	   6.1732993e-01	   5.6642803e-01	
   5.7695000e+01	   3.0803685e-01	   6.2597163e-01	   5.8176955e-01	
   5.7750000e+01	   3.0995364e-01	   6.3364596e-01	   5.9625157e-01	
   5.7805000e+01	   3.1134055e-01	   6.4032712e-01	   6.0982558e-01	
   5.7860000e+01	   3.1216020e-01	   6.4602220e-01	   6.2246943e-01	
   5.7915000e+01	   3.1238707e-01	   6.5076527e-01	   6.3419090e-01	
   5.7970000e+01	   3.1200606e-01	   6.5460829e-01	   6.4502807e-01	
   5.8025000e+01	   3.1101122e-01	   6.5761166e-01	   6.5504654e-01	
   5.8080000e+01	   3.0940397e-01	   6.5983527e-01	   6.6433335e-01	
   5.8135000e+01	   3.0719021e-01	   6.6132993e-01	   6.7298781e-01	
   5.8190000e+01	   3.0437679e-01	   6.6213051e-01	   6.8111057e-01	
   5.8245000e+01	   3.0096817e-01	   6.6225202e-01	   6.8879321e-01	
   5.8300000e+01	   2.9696407e-01	   6.6168904e-01	   6.9611082e-01	
   5.8355000e+01	   2.9235848e-01	   6.6041864e-01	   7.0311899e-01	
   5.8410000e+01	   2.8713955e-01	   6.5840630e-01	   7.0985511e-01	
   5.8465000e+01	   2.8129060e-01	   6.5561353e-01	   7.1634174e-01	
   5.8520000e+01	   2.7479243e-01	   6.5200610e-01	   7.2258967e-01	
   5.8575000e+01	   2.6762777e-01	   6.4756262e-01	   7.2859874e-01	
   5.8630000e+01	   2.5978766e-01	   6.4228235e-01	   7.3435652e-01	
   5.8685000e+01	   2.5127808e-01	   6.3619088e-01	   7.3983503e-01	
   5.8740000e+01	   2.4212511e-01	   6.2934303e-01	   7.4498665e-01	
   5.8795000e+01	   2.3237758e-01	   6.2182397e-01	   7.4974110e-01	
   5.8850000e+01	   2.2210762e-01	   6.1374960e-01	   7.5400541e-01	
   5.8905000e+01	   2.1140887e-01	   6.0526573e-01	   7.5766768e-01	
   5.8960000e+01	   2.0039272e-01	   5.9654508e-01	   7.6060503e-01	
   5.9015000e+01	   1.8918271e-01	   5.8778163e-01	   7.6269442e-01	
   5.9070000e+01	   1.7790817e-01	   5.7918354e-01	   7.6382409e-01	
   5.9125000e+01	   1.6669736e-01	   5.7096525e-01	   7.6390242e-01	
   5.9180000e+01	   1.5567029e-01	   5.6333849e-01	   7.6286276e-01	
   5.9235000e+01	   1.4493184e-01	   5.5650260e-01	   7.6066444e-01	
   5.9290000e+01	   1.3456639e-01	   5.5063620e-01	   7.5729158e-01	
   5.9345000e+01	   1.2463512e-01	   5.4589166e-01	   7.5275136e-01	
   5.9400000e+01	   1.1517619e-01	   5.4239130e-01	   7.4707266e-01	
   5.9455000e+01	   1.0620747e-01	   5.4022396e-01	   7.4030546e-01	
   5.9510000e+01	   9.7731458e-02	   5.3944238e-01	   7.3252130e-01	
   5.9565000e+01	   8.9741249e-02	   5.4006193e-01	   7.2381385e-01	
   5.9620000e+01	   8.2225670e-02	   5.4206004e-01	   7.1429828e-01	
   5.9675000e+01	   7.5172640e-02	   5.4537683e-01	   7.0410892e-01	
   5.9730000e+01	   6.8571387e-02	   5.4991776e-01	   6.9339649e-01	
   5.9785000e+01	   6.2414327e-02	   5.5555866e-01	   6.8232444e-01	
   5.9840000e+01	   5.6698514e-02	   5.6215199e-01	   6.7106300e-01	
   5.9895000e+01	   5.1426327e-02	   5.6953444e-01	   6.5978061e-01	
   5.9950000e+01	   4.6605432e-02	   5.7753580e-01	   6.4863523e-01	
   6.0005000e+01	   4.2248098e-02	   5.8598866e-01	   6.3776788e-01	
   6.0060000e+01	   3.8370064e-02	   5.9473673e-01	   6.2729858e-01	
   6.0115000e+01	   3.4989096e-02	   6.0364076e-01	   6.1732388e-01	
   6.0170000e+01	   3.2123147e-02	   6.1258259e-01	   6.0791584e-01	
   6.0225000e+01	   2.9787895e-02	   6.2146794e-01	   5.9912311e-01	
   6.0280000e+01	   2.7993644e-02	   6.3022774e-01	   5.9097490e-01	
   6.0335000e+01	   2.6742039e-02	   6.3881678e-01	   5.8348771e-01	
   6.0390000e+01	   2.6023412e-02	   6.4720853e-01	   5.7667370e-01	
   6.0445000e+01	   2.5815262e-02	   6.5538658e-01	   5.7054853e-01	
   6.0500000e+01	   2.6081747e-02	   6.6333440e-01	   5.6513562e-01	
   6.0555000e+01	   2.6774218e-02	   6.7102601e-01	   5.6046552e-01	
   6.0610000e+01	   2.7833399e-02	   6.7841986e-01	   5.5657157e-01	
   6.0665000e+01	   2.9193390e-02	   6.8545631e-01	   5.5348407e-01	
   6.0720000e+01	   3.0786143e-02	   6.9205729e-01	   5.5122416e-01	
   6.0775000e+01	   3.2544590e-02	   6.9812623e-01	   5.4979827e-01	
   6.0830000e+01	   3.4403976e-02	   7.0354847e-01	   5.4919379e-01	
   6.0885000e+01	   3.6302501e-02	   7.0819235e-01	   5.4937546e-01	
   6.0940000e+01	   3.8182270e-02	   7.1191140e-01	   5.5028185e-01	
   6.0995000e+01	   3.9990715e-02	   7.1454846e-01	   5.5182261e-01	
   6.1050000e+01	   4.1682341e-02	   7.1594401e-01	   5.5387759e-01	
   6.1105000e+01	   4.3220458e-02	   7.1594831e-01	   5.5629872e-01	
   6.1160000e+01	   4.4578157e-02	   7.1443361e-01	   5.5891397e-01	
   6.1215000e+01	   4.5738189e-02	   7.1130340e-01	   5.6153261e-01	
   6.1270000e+01	   4.6692445e-02	   7.0649792e-01	   5.6395181e-01	
   6.1325000e+01	   4.7441539e-02	   6.9999618e-01	   5.6596556e-01	
   6.1380000e+01	   4.7994076e-02	   6.9181375e-01	   5.6737562e-01	
   6.1435000e+01	   4.8365252e-02	   6.8199671e-01	   5.6800168e-01	
   6.1490000e+01	   4.8575283e-02	   6.7061380e-01	   5.6768876e-01	
   6.1545000e+01	   4.8648309e-02	   6.5774993e-01	   5.6631150e-01	
   6.1600000e+01	   4.8611606e-02	   6.4350253e-01	   5.6377597e-01	
   6.1655000e+01	   4.8494683e-02	   6.2798130e-01	   5.6001986e-01	
   6.1710000e+01	   4.8328348e-02	   6.1131028e-01	   5.5501252e-01	
   6.1765000e+01	   4.8143983e-02	   5.9363099e-01	   5.4875535e-01	
   6.1820000e+01	   4.7972783e-02	   5.7510406e-01	   5.4128104e-01	
   6.1875000e+01	   4.7844615e-02	   5.5590845e-01	   5.3264999e-01	
   6.1930000e+01	   4.7786375e-02	   5.3623891e-01	   5.2294491e-01	
   6.1985000e+01	   4.7819884e-02	   5.1630420e-01	   5.1226541e-01	
   6.2040000e+01	   4.7958966e-02	   4.9632735e-01	   5.0072302e-01	
   6.2095000e+01	   4.8205361e-02	   4.7654675e-01	   4.8843549e-01	
   6.2150000e+01	   4.8544093e-02	   4.5721600e-01	   4.7552055e-01	
   6.2205000e+01	   4.8940224e-02	   4.3860016e-01	   4.6209068e-01	
   6.2260000e+01	   4.9338985e-02	   4.2096807e-01	   4.4824889e-01	
   6.2315000e+01	   4.9670090e-02	   4.0458185e-01	   4.3408613e-01	
   6.2370000e+01	   4.9855711e-02	   3.8968636e-01	   4.1968102e-01	
   6.2425000e+01	   4.9820537e-02	   3.7650094e-01	   4.0510179e-01	
   6.2480000e+01	   4.9501769e-02	   3.6521286e-01	   3.9040856e-01	
   6.2535000e+01	   4.8857115e-02	   3.5597124e-01	   3.7565375e-01	
   6.2590000e+01	   4.7870053e-02	   3.4888148e-01	   3.6088015e-01	
   6.2645000e+01	   4.6552867e-02	   3.4400068e-01	   3.4611720e-01	
   6.2700000e+01	   4.4948287e-02	   3.4133429e-01	   3.3137726e-01	
   6.2755000e+01	   4.3129632e-02	   3.4083322e-01	   3.1665390e-01	
   6.2810000e+01	   4.1198538e-02	   3.4239185e-01	   3.0192309e-01	
   6.2865000e+01	   3.9279892e-02	   3.4584834e-01	   2.8714664e-01	
   6.2920000e+01	   3.7514297e-02	   3.5098907e-01	   2.7227667e-01	
   6.2975000e+01	   3.6048209e-02	   3.5755790e-01	   2.5726042e-01	
   6.3030000e+01	   3.5022013e-02	   3.6526973e-01	   2.4204480e-01	
   6.3085000e+01	   3.4557387e-02	   3.7382681e-01	   2.2658095e-01	
   6.3140000e+01	   3.4746207e-02	   3.8293604e-01	   2.1083002e-01	
   6.3195000e+01	   3.5643244e-02	   3.9232484e-01	   1.9476995e-01	
   6.3250000e+01	   3.7263957e-02	   4.0175324e-01	   1.7840144e-01	
   6.3305000e+01	   3.9587056e-02	   4.1102086e-01	   1.6175188e-01	
   6.3360000e+01	   4.2559682e-02	   4.1996891e-01	   1.4487669e-01	
   6.3415000e+01	   4.6102569e-02	   4.2847891e-01	   1.2785842e-01	
   6.3470000e+01	   5.0113898e-02	   4.3646987e-01	   1.1080506e-01	
   6.3525000e+01	   5.4472629e-02	   4.4389471e-01	   9.3848799e-02	
   6.3580000e+01	   5.9042617e-02	   4.5073675e-01	   7.7145538e-02	
   6.3635000e+01	   6.3677785e-02	   4.5700726e-01	   6.0873713e-02	
   6.3690000e+01	   6.8227880e-02	   4.6274478e-01	   4.5231218e-02	
   6.3745000e+01	   7.2544455e-02	   4.6801566e-01	   3.0429981e-02	
   6.3800000e+01	   7.6486879e-02	   4.7291241e-01	   1.6687781e-02	
   6.3855000e+01	   7.9928377e-02	   4.7754689e-01	   4.2170716e-03	
   6.3910000e+01	   8.2762189e-02	   4.8203836e-01	  -6.7882936e-03	
   6.3965000e+01	   8.4907330e-02	   4.8649947e-01	  -1.6166694e-02	
   6.4020000e+01	   8.6312636e-02	   4.9102236e-01	  -2.3801351e-02	
   6.4075000e+01	   8.6958129e-02	   4.9566528e-01	  -2.9630673e-02	
   6.4130000e+01	   8.6853971e-02	   5.0044037e-01	  -3.3654329e-02	
   6.4185000e+01	   8.6037958e-02	   5.0530459e-01	  -3.5933073e-02	
   6.4240000e+01	   8.4572175e-02	   5.1015659e-01	  -3.6582356e-02	
   6.4295000e+01	   8.2538951e-02	   5.1484045e-01	  -3.5761585e-02	
   6.4350000e+01	   8.0036133e-02	   5.1915577e-01	  -3.3660566e-02	
   6.4405000e+01	   7.7171586e-02	   5.2287261e-01	  -3.0484660e-02	
   6.4460000e+01	   7.4056699e-02	   5.2574892e-01	  -2.6441514e-02	
   6.4515000e+01	   7.0799058e-02	   5.2754799e-01	  -2.1732043e-02	
   6.4570000e+01	   6.7494863e-02	   5.2805455e-01	  -1.6546074e-02	
   6.4625000e+01	   6.4221844e-02	   5.2708878e-01	  -1.1061190e-02	
   6.4680000e+01	   6.1033545e-02	   5.2451653e-01	  -5.4431527e-03	
   6.4735000e+01	   5.7955663e-02	   5.2025339e-01	   1.5280162e-04	
   6.4790000e+01	   5.4984709e-02	   5.1426323e-01	   5.5800991e-03	
   6.4845000e+01	   5.2089117e-02	   5.0655341e-01	   1.0699368e-02	
   6.4900000e+01	   4.9212742e-02	   4.9716978e-01	   1.5378549e-02	
   6.4955000e+01	   4.6279740e-02	   4.8619255e-01	   1.9494505e-02	
   6.5010000e+01	   4.3199776e-02	   4.7373212e-01	   2.2935260e-02	
   6.5065000e+01	   3.9873257e-02	   4.5992427e-01	   2.5602463e-02	
   6.5120000e+01	   3.6196774e-02	   4.4492508e-01	   2.7413792e-02	
   6.5175000e+01	   3.2068701e-02	   4.2890583e-01	   2.8304440e-02	
   6.5230000e+01	   2.7394865e-02	   4.1204727e-01	   2.8227170e-02	
   6.5285000e+01	   2.2094127e-02	   3.9453332e-01	   2.7151411e-02	
   6.5340000e+01	   1.6103212e-02	   3.7654484e-01	   2.5061474e-02	
   6.5395000e+01	   9.3797358e-03	   3.5825376e-01	   2.1952519e-02	
   6.5450000e+01	   1.9031644e-03	   3.3981805e-01	   1.7823698e-02	
   6.5505000e+01	  -6.3252110e-03	   3.2137920e-01	   1.2671207e-02	
   6.5560000e+01	  -1.5282298e-02	   3.0306288e-01	   6.4857014e-03	
   6.5615000e+01	  -2.4923606e-02	   2.8498123e-01	  -7.4431487e-04	
   6.5670000e+01	  -3.5184799e-02	   2.6723508e-01	  -9.0257470e-03	
   6.5725000e+01	  -4.5984186e-02	   2.4991612e-01	  -1.8354546e-02	
   6.5780000e+01	  -5.7225464e-02	   2.3310959e-01	  -2.8711728e-02	
   6.5835000e+01	  -6.8800818e-02	   2.1689608e-01	  -4.0062021e-02	
   6.5890000e+01	  -8.0594915e-02	   2.0135028e-01	  -5.2354991e-02	
   6.5945000e+01	  -9.2489556e-02	   1.8653815e-01	  -6.5528627e-02	
   6.6000000e+01	  -1.0436842e-01	   1.7251526e-01	  -7.9514787e-02	
   6.6055000e+01	  -1.1612183e-01	   1.5932667e-01	  -9.4245351e-02	
   6.6110000e+01	  -1.2765158e-01	   1.4700723e-01	  -1.0965762e-01	
   6.6165000e+01	  -1.3887509e-01	   1.3558187e-01	  -1.2569738e-01	
   6.6220000e+01	  -1.4972871e-01	   1.2506665e-01	  -1.4231862e-01	
   6.6275000e+01	  -1.6017033e-01	   1.1546974e-01	  -1.5948036e-01	
   6.6330000e+01	  -1.7018167e-01	   1.0679041e-01	  -1.7714230e-01	
   6.6385000e+01	  -1.7976923e-01	   9.9016535e-02	  -1.9526043e-01	
   6.6440000e+01	  -1.8896246e-01	   9.2124109e-02	  -2.1378384e-01	
   6.6495000e+01	  -1.9780890e-01	   8.6081401e-02	  -2.3265338e-01	
   6.6550000e+01	  -2.0636782e-01	   8.0857693e-02	  -2.5180207e-01	
   6.6605000e+01	  -2.1470333e-01	   7.6434249e-02	  -2.7115675e-01	
   6.6660000e+01	  -2.2287769e-01	   7.2814147e-02	  -2.9064149e-01	
   6.6715000e+01	  -2.3094553e-01	   7.0027010e-02	  -3.1018376e-01	
   6.6770000e+01	  -2.3894995e-01	   6.8125763e-02	  -3.2972301e-01	
   6.6825000e+01	  -2.4692083e-01	   6.7175743e-02	  -3.4921807e-01	
   6.6880000e+01	  -2.5487405e-01	   6.7239172e-02	  -3.6864857e-01	
   6.6935000e+01	  -2.6281090e-01	   6.8358618e-02	  -3.8800884e-01	
   6.6990000e+01	  -2.7071747e-01	   7.0543157e-02	  -4.0729726e-01	
   6.7045000e+01	  -2.7856447e-01	   7.3761212e-02	  -4.2650439e-01	
   6.7100000e+01	  -2.8630789e-01	   7.7941466e-02	  -4.4560120e-01	
   6.7155000e+01	  -2.9389070e-01	   8.2979265e-02	  -4.6452947e-01	
   6.7210000e+01	  -3.0124633e-01	   8.8745150e-02	  -4.8319730e-01	
   6.7265000e+01	  -3.0830346e-01	   9.5093896e-02	  -5.0148171e-01	
   6.7320000e+01	  -3.1499136e-01	   1.0187276e-01	  -5.1923757e-01	
   6.7375000e+01	  -3.2124496e-01	   1.0892710e-01	  -5.3631055e-01	
   6.7430000e+01	  -3.2700925e-01	   1.1610224e-01	  -5.5255142e-01	
   6.7485000e+01	  -3.3224291e-01	   1.2324220e-01	  -5.6782891e-01	
   6.7540000e+01	  -3.3692029e-01	   1.3018799e-01	  -5.8203867e-01	
   6.7595000e+01	  -3.4103150e-01	   1.3677696e-01	  -5.9510793e-01	
   6.7650000e+01	  -3.4458052e-01	   1.4284379e-01	  -6.0699651e-01	
   6.7705000e+01	  -3.4758182e-01	   1.4822270e-01	  -6.1769486e-01	
   6.7760000e+01	  -3.5005642e-01	   1.5275100e-01	  -6.2721940e-01	
   6.7815000e+01	  -3.5202797e-01	   1.5627344e-01	  -6.3560651e-01	
   6.7870000e+01	  -3.5351979e-01	   1.5864713e-01	  -6.4290632e-01	
   6.7925000e+01	  -3.5455294e-01	   1.5974742e-01	  -6.4917601e-01	
   6.7980000e+01	  -3.5514404e-01	   1.5947404e-01	  -6.5447206e-01	
   6.8035000e+01	  -3.5530302e-01	   1.5775567e-01	  -6.5884338e-01	
   6.8090000e+01	  -3.5503194e-01	   1.5455195e-01	  -6.6232860e-01	
   6.8145000e+01	  -3.5432655e-01	   1.4985420e-01	  -6.6495821e-01	
   6.8200000e+01	  -3.5317989e-01	   1.4368536e-01	  -6.6675930e-01	
   6.8255000e+01	  -3.5158664e-01	   1.3609820e-01	  -6.6776114e-01	
   6.8310000e+01	  -3.4954739e-01	   1.2717087e-01	  -6.6800065e-01	
   6.8365000e+01	  -3.4707167e-01	   1.1700168e-01	  -6.6752749e-01	
   6.8420000e+01	  -3.4417944e-01	   1.0570570e-01	  -6.6640810e-01	
   6.8475000e+01	  -3.4090125e-01	   9.3413337e-02	  -6.6472837e-01	
   6.8530000e+01	  -3.3727725e-01	   8.0269752e-02	  -6.6259423e-01	
   6.8585000e+01	  -3.3335470e-01	   6.6434184e-02	  -6.6012944e-01	
   6.8640000e+01	  -3.2918423e-01	   5.2078422e-02	  -6.5747015e-01	
   6.8695000e+01	  -3.2481553e-01	   3.7383617e-02	  -6.5475779e-01	
   6.8750000e+01	  -3.2029300e-01	   2.2535316e-02	  -6.5213162e-01	
   6.8805000e+01	  -3.1565117e-01	   7.7178092e-03	  -6.4972221e-01	
   6.8860000e+01	  -3.1091053e-01	  -6.8913453e-03	  -6.4764612e-01	
   6.8915000e+01	  -3.0607558e-01	  -2.1126904e-02	  -6.4600241e-01	
   6.8970000e+01	  -3.0113601e-01	  -3.4841836e-02	  -6.4487050e-01	
   6.9025000e+01	  -2.9607142e-01	  -4.7912219e-02	  -6.4430870e-01	
   6.9080000e+01	  -2.9085842e-01	  -6.0238699e-02	  -6.4435183e-01	
   6.9135000e+01	  -2.8547849e-01	  -7.1743114e-02	  -6.4500763e-01	
   6.9190000e+01	  -2.7992456e-01	  -8.2361499e-02	  -6.4625349e-01	
   6.9245000e+01	  -2.7420465e-01	  -9.2036208e-02	  -6.4803581e-01	
   6.9300000e+01	  -2.6834175e-01	  -1.0070967e-01	  -6.5027378e-01	
   6.9355000e+01	  -2.6237086e-01	  -1.0832143e-01	  -6.5286864e-01	
   6.9410000e+01	  -2.5633514e-01	  -1.1480951e-01	  -6.5571637e-01	
   6.9465000e+01	  -2.5028274e-01	  -1.2011502e-01	  -6.5872007e-01	
   6.9520000e+01	  -2.4426420e-01	  -1.2418784e-01	  -6.6179780e-01	
   6.9575000e+01	  -2.3832970e-01	  -1.2699154e-01	  -6.6488535e-01	
   6.9630000e+01	  -2.3252642e-01	  -1.2850763e-01	  -6.6793491e-01	
   6.9685000e+01	  -2.2689652e-01	  -1.2873869e-01	  -6.7091145e-01	
   6.9740000e+01	  -2.2147529e-01	  -1.2770876e-01	  -6.7378739e-01	
   6.9795000e+01	  -2.1628914e-01	  -1.2546062e-01	  -6.7653608e-01	
   6.9850000e+01	  -2.1135359e-01	  -1.2205078e-01	  -6.7912613e-01	
   6.9905000e+01	  -2.0667193e-01	  -1.1754400e-01	  -6.8151824e-01	
   6.9960000e+01	  -2.0223463e-01	  -1.1200914e-01	  -6.8366556e-01	
   7.0015000e+01	  -1.9801894e-01	  -1.0551766e-01	  -6.8551727e-01	
   7.0070000e+01	  -1.9398884e-01	  -9.8144376e-02	  -6.8702386e-01	
   7.0125000e+01	  -1.9009566e-01	  -8.9969305e-02	  -6.8814205e-01	
   7.0180000e+01	  -1.8627940e-01	  -8.1079699e-02	  -6.8883818e-01	
   7.0235000e+01	  -1.8247147e-01	  -7.1572955e-02	  -6.8909021e-01	
   7.0290000e+01	  -1.7859988e-01	  -6.1560058e-02	  -6.8888828e-01	
   7.0345000e+01	  -1.7459638e-01	  -5.1167581e-02	  -6.8823326e-01	
   7.0400000e+01	  -1.7040348e-01	  -4.0536536e-02	  -6.8713260e-01	
   7.0455000e+01	  -1.6597974e-01	  -2.9818515e-02	  -6.8559457e-01	
   7.0510000e+01	  -1.6130276e-01	  -1.9170097e-02	  -6.8362165e-01	
   7.0565000e+01	  -1.5636975e-01	  -8.7455621e-03	  -6.8120500e-01	
   7.0620000e+01	  -1.5119658e-01	   1.3117905e-03	  -6.7832278e-01	
   7.0675000e+01	  -1.4581586e-01	   1.0878483e-02	  -6.7494456e-01	
   7.0730000e+01	  -1.4027480e-01	   1.9858532e-02	  -6.7104090e-01	
   7.0785000e+01	  -1.3463224e-01	   2.8188465e-02	  -6.6659334e-01	
   7.0840000e+01	  -1.2895467e-01	   3.5837797e-02	  -6.6160152e-01	
   7.0895000e+01	  -1.2331247e-01	   4.2803667e-02	  -6.5608725e-01	
   7.0950000e+01	  -1.1777759e-01	   4.9100203e-02	  -6.5009638e-01	
   7.1005000e+01	  -1.1242260e-01	   5.4745049e-02	  -6.4369772e-01	
   7.1060000e+01	  -1.0732001e-01	   5.9746563e-02	  -6.3697801e-01	
   7.1115000e+01	  -1.0254078e-01	   6.4094781e-02	  -6.3003467e-01	
   7.1170000e+01	  -9.8151918e-02	   6.7757574e-02	  -6.2296879e-01	
   7.1225000e+01	  -9.4212799e-02	   7.0681914e-02	  -6.1587891e-01	
   7.1280000e+01	  -9.0770778e-02	   7.2799297e-02	  -6.0885470e-01	
   7.1335000e+01	  -8.7857180e-02	   7.4034206e-02	  -6.0197157e-01	
   7.1390000e+01	  -8.5485044e-02	   7.4314619e-02	  -5.9528753e-01	
   7.1445000e+01	  -8.3648591e-02	   7.3583536e-02	  -5.8884162e-01	
   7.1500000e+01	  -8.2323881e-02	   7.1809700e-02	  -5.8265230e-01	
   7.1555000e+01	  -8.1470543e-02	   6.8995300e-02	  -5.7671599e-01	
   7.1610000e+01	  -8.1034294e-02	   6.5179339e-02	  -5.7100573e-01	
   7.1665000e+01	  -8.0949429e-02	   6.0436486e-02	  -5.6547056e-01	
   7.1720000e+01	  -8.1140817e-02	   5.4871542e-02	  -5.6003746e-01	
   7.1775000e+01	  -8.1525973e-02	   4.8609885e-02	  -5.5461837e-01	
   7.1830000e+01	  -8.2017602e-02	   4.1785526e-02	  -5.4912174e-01	
   7.1885000e+01	  -8.2526169e-02	   3.4529437e-02	  -5.4346496e-01	
   7.1940000e+01	  -8.2962212e-02	   2.6960094e-02	  -5.3758386e-01	
   7.1995000e+01	  -8.3238631e-02	   1.9177049e-02	  -5.3143806e-01	
   7.2050000e+01	  -8.3272933e-02	   1.1258656e-02	  -5.2501213e-01	
   7.2105000e+01	  -8.2989030e-02	   3.2653226e-03	  -5.1831391e-01	
   7.2160000e+01	  -8.2318647e-02	  -4.7519412e-03	  -5.1137163e-01	
   7.2215000e+01	  -8.1202811e-02	  -1.2739884e-02	  -5.0423106e-01	
   7.2270000e+01	  -7.9593699e-02	  -2.0631608e-02	  -4.9695275e-01	
   7.2325000e+01	  -7.7456895e-02	  -2.8339347e-02	  -4.8960884e-01	
   7.2380000e+01	  -7.4774293e-02	  -3.5754403e-02	  -4.8228000e-01	
   7.2435000e+01	  -7.1547927e-02	  -4.2753659e-02	  -4.7505308e-01	
   7.2490000e+01	  -6.7804125e-02	  -4.9208909e-02	  -4.6801979e-01	
   7.2545000e+01	  -6.3596226e-02	  -5.4995837e-02	  -4.6127615e-01	
   7.2600000e+01	  -5.9004412e-02	  -6.0001310e-02	  -4.5492163e-01	
   7.2655000e+01	  -5.4132552e-02	  -6.4127609e-02	  -4.4905693e-01	
   7.2710000e+01	  -4.9102976e-02	  -6.7292457e-02	  -4.4378078e-01	
   7.2765000e+01	  -4.4050409e-02	  -6.9426581e-02	  -4.3918691e-01	
   7.2820000e+01	  -3.9116310e-02	  -7.0473008e-02	  -4.3536284e-01	
   7.2875000e+01	  -3.4444142e-02	  -7.0390325e-02	  -4.3239009e-01	
   7.2930000e+01	  -3.0175086e-02	  -6.9158752e-02	  -4.3034398e-01	
   7.2985000e+01	  -2.6443800e-02	  -6.6787183e-02	  -4.2929193e-01	
   7.3040000e+01	  -2.3374458e-02	  -6.3320206e-02	  -4.2929082e-01	
   7.3095000e+01	  -2.1077365e-02	  -5.8843761e-02	  -4.3038451e-01	
   7.3150000e+01	  -1.9646268e-02	  -5.3488211e-02	  -4.3260195e-01	
   7.3205000e+01	  -1.9156326e-02	  -4.7428958e-02	  -4.3595580e-01	
   7.3260000e+01	  -1.9662328e-02	  -4.0884541e-02	  -4.4044119e-01	
   7.3315000e+01	  -2.1196645e-02	  -3.4110493e-02	  -4.4603441e-01	
   7.3370000e+01	  -2.3766790e-02	  -2.7387274e-02	  -4.5269150e-01	
   7.3425000e+01	  -2.7353009e-02	  -2.1003056e-02	  -4.6034673e-01	
   7.3480000e+01	  -3.1906553e-02	  -1.5234878e-02	  -4.6891206e-01	
   7.3535000e+01	  -3.7349255e-02	  -1.0331806e-02	  -4.7827913e-01	
   7.3590000e+01	  -4.3575206e-02	  -6.5017612e-03	  -4.8832375e-01	
   7.3645000e+01	  -5.0455334e-02	  -3.9021323e-03	  -4.9891152e-01	
   7.3700000e+01	  -5.7844793e-02	  -2.6338251e-03	  -5.0990379e-01	
   7.3755000e+01	  -6.5591647e-02	  -2.7382184e-03	  -5.2116317e-01	
   7.3810000e+01	  -7.3545013e-02	  -4.1973023e-03	  -5.3255910e-01	
   7.3865000e+01	  -8.1561504e-02	  -6.9380063e-03	  -5.4397224e-01	
   7.3920000e+01	  -8.9509666e-02	  -1.0840657e-02	  -5.5529646e-01	
   7.3975000e+01	  -9.7272584e-02	  -1.5750053e-02	  -5.6643787e-01	
   7.4030000e+01	  -1.0474903e-01	  -2.1487547e-02	  -5.7731194e-01	
   7.4085000e+01	  -1.1185355e-01	  -2.7862634e-02	  -5.8784069e-01	
   7.4140000e+01	  -1.1851605e-01	  -3.4682236e-02	  -5.9795009e-01	
   7.4195000e+01	  -1.2468068e-01	  -4.1756632e-02	  -6.0756804e-01	
   7.4250000e+01	  -1.3030369e-01	  -4.8902649e-02	  -6.1662320e-01	
   7.4305000e+01	  -1.3535025e-01	  -5.5945891e-02	  -6.2504543e-01	
   7.4360000e+01	  -1.3979143e-01	  -6.2723742e-02	  -6.3276817e-01	
   7.4415000e+01	  -1.4360241e-01	  -6.9090232e-02	  -6.3973315e-01	
   7.4470000e+01	  -1.4676246e-01	  -7.4922415e-02	  -6.4589593e-01	
   7.4525000e+01	  -1.4925599e-01	  -8.0126401e-02	  -6.5122987e-01	
   7.4580000e+01	  -1.5107372e-01	  -8.4641251e-02	  -6.5572703e-01	
   7.4635000e+01	  -1.5221306e-01	  -8.8440210e-02	  -6.5939604e-01	
   7.4690000e+01	  -1.5267802e-01	  -9.1528803e-02	  -6.6225770e-01	
   7.4745000e+01	  -1.5247834e-01	  -9.3939044e-02	  -6.6433879e-01	
   7.4800000e+01	  -1.5162817e-01	  -9.5721039e-02	  -6.6566577e-01	
   7.4855000e+01	  -1.5014415e-01	  -9.6935413e-02	  -6.6625962e-01	
   7.4910000e+01	  -1.4804280e-01	  -9.7648631e-02	  -6.6613241e-01	
   7.4965000e+01	  -1.4533729e-01	  -9.7930276e-02	  -6.6528556e-01	
   7.5020000e+01	  -1.4203489e-01	  -9.7850344e-02	  -6.6371077e-01	
   7.5075000e+01	  -1.3813677e-01	  -9.7475854e-02	  -6.6139502e-01	
   7.5130000e+01	  -1.3364099e-01	  -9.6867501e-02	  -6.5832903e-01	
   7.5185000e+01	  -1.2854721e-01	  -9.6077250e-02	  -6.5451661e-01	
   7.5240000e+01	  -1.2286135e-01	  -9.5147281e-02	  -6.4998070e-01	
   7.5295000e+01	  -1.1659930e-01	  -9.4110643e-02	  -6.4476378e-01	
   7.5350000e+01	  -1.0978919e-01	  -9.2993640e-02	  -6.3892307e-01	
   7.5405000e+01	  -1.0247231e-01	  -9.1818853e-02	  -6.3252270e-01	
   7.5460000e+01	  -9.4702499e-02	  -9.0607226e-02	  -6.2562482e-01	
   7.5515000e+01	  -8.6544657e-02	  -8.9378300e-02	  -6.1828151e-01	
   7.5570000e+01	  -7.8072770e-02	  -8.8148554e-02	  -6.1052867e-01	
   7.5625000e+01	  -6.9367381e-02	  -8.6928560e-02	  -6.0238320e-01	
   7.5680000e+01	  -6.0513086e-02	  -8.5720423e-02	  -5.9384416e-01	
   7.5735000e+01	  -5.1597008e-02	  -8.4517345e-02	  -5.8489771e-01	
   7.5790000e+01	  -4.2708595e-02	  -8.3306253e-02	  -5.7552498e-01	
   7.5845000e+01	  -3.3940538e-02	  -8.2073106e-02	  -5.6571101e-01	
   7.5900000e+01	  -2.5390306e-02	  -8.0809306e-02	  -5.5545272e-01	
   7.5955000e+01	  -1.7160976e-02	  -7.9516905e-02	  -5.4476456e-01	
   7.6010000e+01	  -9.3597624e-03	  -7.8211296e-02	  -5.3368146e-01	
   7.6065000e+01	  -2.0940298e-03	  -7.6922177e-02	  -5.2226074e-01	
   7.6120000e+01	   4.5340115e-03	  -7.5693624e-02	  -5.1058402e-01	
   7.6175000e+01	   1.0432805e-02	  -7.4582431e-02	  -4.9875768e-01	
   7.6230000e+01	   1.5526499e-02	  -7.3654059e-02	  -4.8691043e-01	
   7.6285000e+01	   1.9759131e-02	  -7.2976887e-02	  -4.7518868e-01	
   7.6340000e+01	   2.3097977e-02	  -7.2615545e-02	  -4.6375052e-01	
   7.6395000e+01	   2.5536572e-02	  -7.2624005e-02	  -4.5275901e-01	
   7.6450000e+01	   2.7097094e-02	  -7.3040270e-02	  -4.4237564e-01	
   7.6505000e+01	   2.7830390e-02	  -7.3884677e-02	  -4.3275473e-01	
   7.6560000e+01	   2.7812328e-02	  -7.5162265e-02	  -4.2403919e-01	
   7.6615000e+01	   2.7137109e-02	  -7.6868415e-02	  -4.1635693e-01	
   7.6670000e+01	   2.5909326e-02	  -7.8996337e-02	  -4.0981713e-01	
   7.6725000e+01	   2.4236627e-02	  -8.1543199e-02	  -4.0450578e-01	
   7.6780000e+01	   2.2224503e-02	  -8.4510543e-02	  -4.0047982e-01	
   7.6835000e+01	   1.9973648e-02	  -8.7897634e-02	  -3.9776105e-01	
   7.6890000e+01	   1.7579008e-02	  -9.1691616e-02	  -3.9633123e-01	
   7.6945000e+01	   1.5129194e-02	  -9.5860186e-02	  -3.9612999e-01	
   7.7000000e+01	   1.2705200e-02	  -1.0034971e-01	  -3.9705619e-01	
   7.7055000e+01	   1.0378267e-02	  -1.0508819e-01	  -3.9897283e-01	
   7.7110000e+01	   8.2079074e-03	  -1.0999099e-01	  -4.0171475e-01	
   7.7165000e+01	   6.2413761e-03	  -1.1496665e-01	  -4.0509779e-01	
   7.7220000e+01	   4.5147151e-03	  -1.1992094e-01	  -4.0892742e-01	
   7.7275000e+01	   3.0543209e-03	  -1.2475823e-01	  -4.1300569e-01	
   7.7330000e+01	   1.8783977e-03	  -1.2938077e-01	  -4.1713639e-01	
   7.7385000e+01	   9.9866585e-04	  -1.3368671e-01	  -4.2112818e-01	
   7.7440000e+01	   4.2258405e-04	  -1.3756830e-01	  -4.2479558e-01	
   7.7495000e+01	   1.5553837e-04	  -1.4091150e-01	  -4.2795956e-01	
   7.7550000e+01	   2.0242128e-04	  -1.4359768e-01	  -4.3044949e-01	
   7.7605000e+01	   5.6849460e-04	  -1.4550709e-01	  -4.3210722e-01	
   7.7660000e+01	   1.2593263e-03	  -1.4652395e-01	  -4.3279302e-01	
   7.7715000e+01	   2.2793131e-03	  -1.4654290e-01	  -4.3239293e-01	
   7.7770000e+01	   3.6287636e-03	  -1.4547640e-01	  -4.3082603e-01	
   7.7825000e+01	   5.3002948e-03	  -1.4326203e-01	  -4.2805107e-01	
   7.7880000e+01	   7.2755394e-03	  -1.3986887e-01	  -4.2407150e-01	
   7.7935000e+01	   9.5232055e-03	  -1.3530207e-01	  -4.1893745e-01	
   7.7990000e+01	   1.1999588e-02	  -1.2960399e-01	  -4.1274227e-01	
   7.8045000e+01	   1.4651774e-02	  -1.2285250e-01	  -4.0561354e-01	
   7.8100000e+01	   1.7422311e-02	  -1.1515796e-01	  -3.9770149e-01	
   7.8155000e+01	   2.0253744e-02	  -1.0666024e-01	  -3.8916790e-01	
   7.8210000e+01	   2.3092354e-02	  -9.7524885e-02	  -3.8017634e-01	
   7.8265000e+01	   2.5891195e-02	  -8.7937738e-02	  -3.7088391e-01	
   7.8320000e+01	   2.8612582e-02	  -7.8097994e-02	  -3.6143433e-01	
   7.8375000e+01	   3.1229819e-02	  -6.8209998e-02	  -3.5195143e-01	
   7.8430000e+01	   3.3727540e-02	  -5.8474627e-02	  -3.4253356e-01	
   7.8485000e+01	   3.6100415e-02	  -4.9081325e-02	  -3.3325037e-01	
   7.8540000e+01	   3.8350827e-02	  -4.0201569e-02	  -3.2414325e-01	
   7.8595000e+01	   4.0486346e-02	  -3.1984092e-02	  -3.1522881e-01	
   7.8650000e+01	   4.2517302e-02	  -2.4551858e-02	  -3.0650377e-01	
   7.8705000e+01	   4.4454551e-02	  -1.8000229e-02	  -2.9794953e-01	
   7.8760000e+01	   4.6307862e-02	  -1.2395745e-02	  -2.8953523e-01	
   7.8815000e+01	   4.8085585e-02	  -7.7755297e-03	  -2.8121994e-01	
   7.8870000e+01	   4.9795843e-02	  -4.1481838e-03	  -2.7295488e-01	
   7.8925000e+01	   5.1449124e-02	  -1.4965246e-03	  -2.6468570e-01	
   7.8980000e+01	   5.3061754e-02	   2.1887576e-04	  -2.5635464e-01	
   7.9035000e+01	   5.4659174e-02	   1.0567458e-03	  -2.4790345e-01	
   7.9090000e+01	   5.6277629e-02	   1.0931109e-03	  -2.3927746e-01	
   7.9145000e+01	   5.7963520e-02	   4.1975373e-04	  -2.3043024e-01	
   7.9200000e+01	   5.9770542e-02	  -8.5751463e-04	  -2.2132820e-01	
   7.9255000e+01	   6.1755355e-02	  -2.6215761e-03	  -2.1195532e-01	
   7.9310000e+01	   6.3973165e-02	  -4.7482486e-03	  -2.0231750e-01	
   7.9365000e+01	   6.6474628e-02	  -7.1116117e-03	  -1.9244470e-01	
   7.9420000e+01	   6.9304120e-02	  -9.5895538e-03	  -1.8238927e-01	
   7.9475000e+01	   7.2498101e-02	  -1.2069394e-02	  -1.7222079e-01	
   7.9530000e+01	   7.6082666e-02	  -1.4453619e-02	  -1.6201970e-01	
   7.9585000e+01	   8.0070275e-02	  -1.6664675e-02	  -1.5187244e-01	
   7.9640000e+01	   8.4455857e-02	  -1.8647323e-02	  -1.4186991e-01	
   7.9695000e+01	   8.9212712e-02	  -2.0368207e-02	  -1.3210921e-01	
   7.9750000e+01	   9.4289302e-02	  -2.1813358e-02	  -1.2269769e-01	
   7.9805000e+01	   9.9607943e-02	  -2.2984453e-02	  -1.1375762e-01	
   7.9860000e+01	   1.0506550e-01	  -2.3894966e-02	  -1.0542904e-01	
   7.9915000e+01	   1.1053597e-01	  -2.4567566e-02	  -9.7868114e-02	
   7.9970000e+01	   1.1587514e-01	  -2.5033317e-02	  -9.1239443e-02	
   8.0025000e+01	   1.2092733e-01	  -2.5331499e-02	  -8.5703842e-02	
   8.0080000e+01	   1.2553315e-01	  -2.5508009e-02	  -8.1405189e-02	
   8.0135000e+01	   1.2953716e-01	  -2.5611518e-02	  -7.8458592e-02	
   8.0190000e+01	   1.3279507e-01	  -2.5688562e-02	  -7.6940454e-02	
   8.0245000e+01	   1.3518062e-01	  -2.5778971e-02	  -7.6880787e-02	
   8.0300000e+01	   1.3659210e-01	  -2.5911889e-02	  -7.8258634e-02	
   8.0355000e+01	   1.3695839e-01	  -2.6102436e-02	  -8.1001483e-02	
   8.0410000e+01	   1.3624348e-01	  -2.6349946e-02	  -8.4989278e-02	
   8.0465000e+01	   1.3444857e-01	  -2.6638766e-02	  -9.0062850e-02	
   8.0520000e+01	   1.3161144e-01	  -2.6941212e-02	  -9.6035021e-02	
   8.0575000e+01	   1.2780342e-01	  -2.7221238e-02	  -1.0270153e-01	
   8.0630000e+01	   1.2312475e-01	  -2.7437623e-02	  -1.0984962e-01	
   8.0685000e+01	   1.1769916e-01	  -2.7546023e-02	  -1.1726396e-01	
   8.0740000e+01	   1.1166874e-01	  -2.7499489e-02	  -1.2473055e-01	
   8.0795000e+01	   1.0518875e-01	  -2.7247546e-02	  -1.3203972e-01	
   8.0850000e+01	   9.8421390e-02	  -2.6734329e-02	  -1.3898820e-01	
   8.0905000e+01	   9.1527876e-02	  -2.5896090e-02	  -1.4538016e-01	
   8.0960000e+01	   8.4659628e-02	  -2.4658506e-02	  -1.5102826e-01	
   8.1015000e+01	   7.7950803e-02	  -2.2934958e-02	  -1.5575720e-01	
   8.1070000e+01	   7.1513742e-02	  -2.0627513e-02	  -1.5941111e-01	
   8.1125000e+01	   6.5437275e-02	  -1.7631786e-02	  -1.6186297e-01	
   8.1180000e+01	   5.9786302e-02	  -1.3845363e-02	  -1.6302341e-01	
   8.1235000e+01	   5.4601033e-02	  -9.1781865e-03	  -1.6284715e-01	
   8.1290000e+01	   4.9895617e-02	  -3.5627656e-03	  -1.6133591e-01	
   8.1345000e+01	   4.5657221e-02	   3.0373609e-03	  -1.5853720e-01	
   8.1400000e+01	   4.1846348e-02	   1.0622207e-02	  -1.5453998e-01	
   8.1455000e+01	   3.8398403e-02	   1.9154389e-02	  -1.4946861e-01	
   8.1510000e+01	   3.5226715e-02	   2.8563135e-02	  -1.4347604e-01	
   8.1565000e+01	   3.2227626e-02	   3.8751531e-02	  -1.3673557e-01	
   8.1620000e+01	   2.9287657e-02	   4.9604181e-02	  -1.2943089e-01	
   8.1675000e+01	   2.6291767e-02	   6.0993097e-02	  -1.2174484e-01	
   8.1730000e+01	   2.3131368e-02	   7.2780749e-02	  -1.1384894e-01	
   8.1785000e+01	   1.9711204e-02	   8.4820748e-02	  -1.0589548e-01	
   8.1840000e+01	   1.5954620e-02	   9.6957892e-02	  -9.8013206e-02	
   8.1895000e+01	   1.1806768e-02	   1.0902902e-01	  -9.0306008e-02	
   8.1950000e+01	   7.2354336e-03	   1.2086498e-01	  -8.2853585e-02	
   8.2005000e+01	   2.2302077e-03	   1.3229370e-01	  -7.5712776e-02	
   8.2060000e+01	  -3.1986649e-03	   1.4314439e-01	  -6.8918974e-02	
   8.2115000e+01	  -9.0211848e-03	   1.5325201e-01	  -6.2487194e-02	
   8.2170000e+01	  -1.5188699e-02	   1.6246103e-01	  -5.6412406e-02	
   8.2225000e+01	  -2.1635505e-02	   1.7062841e-01	  -5.0669068e-02	
   8.2280000e+01	  -2.8280990e-02	   1.7762643e-01	  -4.5210561e-02	
   8.2335000e+01	  -3.5032791e-02	   1.8334565e-01	  -3.9969871e-02	
   8.2390000e+01	  -4.1791393e-02	   1.8769702e-01	  -3.4862422e-02	
   8.2445000e+01	  -4.8455743e-02	   1.9061281e-01	  -2.9790725e-02	
   8.2500000e+01	  -5.4929427e-02	   1.9204708e-01	  -2.4650359e-02	
   8.2555000e+01	  -6.1127323e-02	   1.9197621e-01	  -1.9337003e-02	
   8.2610000e+01	  -6.6982096e-02	   1.9040073e-01	  -1.3753457e-02	
   8.2665000e+01	  -7.2449250e-02	   1.8734988e-01	  -7.8152445e-03	
   8.2720000e+01	  -7.7509570e-02	   1.8288828e-01	  -1.4548985e-03	
   8.2775000e+01	  -8.2168389e-02	   1.7712129e-01	   5.3737493e-03	
   8.2830000e+01	  -8.6452030e-02	   1.7019663e-01	   1.2690977e-02	
   8.2885000e+01	  -9.0403034e-02	   1.6230248e-01	   2.0487310e-02	
   8.2940000e+01	  -9.4076264e-02	   1.5366294e-01	   2.8721652e-02	
   8.2995000e+01	  -9.7536980e-02	   1.4453119e-01	   3.7322186e-02	
   8.3050000e+01	  -1.0086058e-01	   1.3517973e-01	   4.6189627e-02	
   8.3105000e+01	  -1.0413314e-01	   1.2588848e-01	   5.5201472e-02	
   8.3160000e+01	  -1.0745140e-01	   1.1693250e-01	   6.4216577e-02	
   8.3215000e+01	  -1.1092086e-01	   1.0857084e-01	   7.3081062e-02	
   8.3270000e+01	  -1.1465103e-01	   1.0103731e-01	   8.1636293e-02	
   8.3325000e+01	  -1.1874880e-01	   9.4533063e-02	   8.9728053e-02	
   8.3380000e+01	  -1.2331108e-01	   8.9220112e-02	   9.7215508e-02	
   8.3435000e+01	  -1.2841787e-01	   8.5215981e-02	   1.0397863e-01	
   8.3490000e+01	  -1.3412692e-01	   8.2590133e-02	   1.0992275e-01	
   8.3545000e+01	  -1.4047038e-01	   8.1363869e-02	   1.1498011e-01	
   8.3600000e+01	  -1.4745322e-01	   8.1515037e-02	   1.1910976e-01	
   8.3655000e+01	  -1.5505267e-01	   8.2986794e-02	   1.2229706e-01	
   8.3710000e+01	  -1.6321888e-01	   8.5697438e-02	   1.2455231e-01	
   8.3765000e+01	  -1.7187738e-01	   8.9547968e-02	   1.2590823e-01	
   8.3820000e+01	  -1.8093341e-01	   9.4425462e-02	   1.2641591e-01	
   8.3875000e+01	  -1.9027713e-01	   1.0020226e-01	   1.2613915e-01	
   8.3930000e+01	  -1.9978896e-01	   1.0673288e-01	   1.2514683e-01	
   8.3985000e+01	  -2.0934388e-01	   1.1385130e-01	   1.2350476e-01	
   8.4040000e+01	  -2.1881495e-01	   1.2137038e-01	   1.2126949e-01	
   8.4095000e+01	  -2.2807632e-01	   1.2908467e-01	   1.1848510e-01	
   8.4150000e+01	  -2.3700626e-01	   1.3677786e-01	   1.1518268e-01	
   8.4205000e+01	  -2.4549004e-01	   1.4423451e-01	   1.1138212e-01	
   8.4260000e+01	  -2.5342311e-01	   1.5125297e-01	   1.0709626e-01	
   8.4315000e+01	  -2.6071449e-01	   1.5765688e-01	   1.0233771e-01	
   8.4370000e+01	  -2.6728949e-01	   1.6330456e-01	   9.7127795e-02	
   8.4425000e+01	  -2.7309122e-01	   1.6809538e-01	   9.1505317e-02	
   8.4480000e+01	  -2.7808098e-01	   1.7197139e-01	   8.5531412e-02	
   8.4535000e+01	  -2.8223818e-01	   1.7491405e-01	   7.9288248e-02	
   8.4590000e+01	  -2.8555977e-01	   1.7693738e-01	   7.2872195e-02	
   8.4645000e+01	  -2.8805939e-01	   1.7807902e-01	   6.6383681e-02	
   8.4700000e+01	  -2.8976627e-01	   1.7839018e-01	   5.9916459e-02	
   8.4755000e+01	  -2.9072359e-01	   1.7792599e-01	   5.3549126e-02	
   8.4810000e+01	  -2.9098602e-01	   1.7673820e-01	   4.7341208e-02	
   8.4865000e+01	  -2.9061655e-01	   1.7487126e-01	   4.1334268e-02	
   8.4920000e+01	  -2.8968285e-01	   1.7236267e-01	   3.5556456e-02	
   8.4975000e+01	  -2.8825384e-01	   1.6924741e-01	   3.0027979e-02	
   8.5030000e+01	  -2.8639752e-01	   1.6556508e-01	   2.4765020e-02	
   8.5085000e+01	  -2.8418058e-01	   1.6136706e-01	   1.9780711e-02	
   8.5140000e+01	  -2.8166879e-01	   1.5672191e-01	   1.5083665e-02	
   8.5195000e+01	  -2.7892681e-01	   1.5171833e-01	   1.0675765e-02	
   8.5250000e+01	  -2.7601705e-01	   1.4646508e-01	   6.5508544e-03	
   8.5305000e+01	  -2.7299785e-01	   1.4108738e-01	   2.6953392e-03	
   8.5360000e+01	  -2.6992193e-01	   1.3571906e-01	  -9.0892056e-04	
   8.5415000e+01	  -2.6683541e-01	   1.3049062e-01	  -4.2799963e-03	
   8.5470000e+01	  -2.6377717e-01	   1.2551619e-01	  -7.4305263e-03	
   8.5525000e+01	  -2.6077858e-01	   1.2088413e-01	  -1.0362256e-02	
   8.5580000e+01	  -2.5786394e-01	   1.1665461e-01	  -1.3061117e-02	
   8.5635000e+01	  -2.5505197e-01	   1.1286293e-01	  -1.5493907e-02	
   8.5690000e+01	  -2.5235823e-01	   1.0952516e-01	  -1.7608061e-02	
   8.5745000e+01	  -2.4979800e-01	   1.0664236e-01	  -1.9335770e-02	
   8.5800000e+01	  -2.4738823e-01	   1.0420260e-01	  -2.0601998e-02	
   8.5855000e+01	  -2.4514736e-01	   1.0218158e-01	  -2.1333615e-02	
   8.5910000e+01	  -2.4309291e-01	   1.0054302e-01	  -2.1466776e-02	
   8.5965000e+01	  -2.4123820e-01	   9.9238447e-02	  -2.0951329e-02	
   8.6020000e+01	  -2.3958973e-01	   9.8206285e-02	  -1.9751949e-02	
   8.6075000e+01	  -2.3814606e-01	   9.7371350e-02	  -1.7846049e-02	
   8.6130000e+01	  -2.3689872e-01	   9.6645595e-02	  -1.5219670e-02	
   8.6185000e+01	  -2.3583422e-01	   9.5930571e-02	  -1.1863229e-02	
   8.6240000e+01	  -2.3493545e-01	   9.5122401e-02	  -7.7679342e-03	
   8.6295000e+01	  -2.3418189e-01	   9.4120045e-02	  -2.9229988e-03	
   8.6350000e+01	  -2.3354934e-01	   9.2835656e-02	   2.6854230e-03	
   8.6405000e+01	  -2.3301021e-01	   9.1204095e-02	   9.0725459e-03	
   8.6460000e+01	  -2.3253499e-01	   8.9188208e-02	   1.6250763e-02	
   8.6515000e+01	  -2.3209461e-01	   8.6777596e-02	   2.4223955e-02	
   8.6570000e+01	  -2.3166359e-01	   8.3981983e-02	   3.2981395e-02	
   8.6625000e+01	  -2.3122270e-01	   8.0823403e-02	   4.2492663e-02	
   8.6680000e+01	  -2.3076076e-01	   7.7330738e-02	   5.2704294e-02	
   8.6735000e+01	  -2.3027559e-01	   7.3536983e-02	   6.3537700e-02	
   8.6790000e+01	  -2.2977442e-01	   6.9477612e-02	   7.4888413e-02	
   8.6845000e+01	  -2.2927345e-01	   6.5187997e-02	   8.6628145e-02	
   8.6900000e+01	  -2.2879742e-01	   6.0698743e-02	   9.8611226e-02	
   8.6955000e+01	  -2.2837917e-01	   5.6030190e-02	   1.1068512e-01	
   8.7010000e+01	  -2.2805903e-01	   5.1189348e-02	   1.2270202e-01	
   8.7065000e+01	  -2.2788334e-01	   4.6170730e-02	   1.3452707e-01	
   8.7120000e+01	  -2.2790256e-01	   4.0958549e-02	   1.4604060e-01	
   8.7175000e+01	  -2.2816888e-01	   3.5527039e-02	   1.5713536e-01	
   8.7230000e+01	  -2.2873342e-01	   2.9838926e-02	   1.6771220e-01	
   8.7285000e+01	  -2.2964272e-01	   2.3844293e-02	   1.7767649e-01	
   8.7340000e+01	  -2.3093528e-01	   1.7481572e-02	   1.8693626e-01	
   8.7395000e+01	  -2.3263762e-01	   1.0681582e-02	   1.9540272e-01	
   8.7450000e+01	  -2.3476034e-01	   3.3750929e-03	   2.0299309e-01	
   8.7505000e+01	  -2.3729522e-01	  -4.4963785e-03	   2.0963529e-01	
   8.7560000e+01	  -2.4021564e-01	  -1.2968191e-02	   2.1527284e-01	
   8.7615000e+01	  -2.4348037e-01	  -2.2042066e-02	   2.1986895e-01	
   8.7670000e+01	  -2.4703873e-01	  -3.1681109e-02	   2.2340853e-01	
   8.7725000e+01	  -2.5083512e-01	  -4.1811260e-02	   2.2589734e-01	
   8.7780000e+01	  -2.5481210e-01	  -5.2327402e-02	   2.2735791e-01	
   8.7835000e+01	  -2.5891200e-01	  -6.3102493e-02	   2.2782263e-01	
   8.7890000e+01	  -2.6307794e-01	  -7.3999082e-02	   2.2732462e-01	
   8.7945000e+01	  -2.6725445e-01	  -8.4882119e-02	   2.2588765e-01	
   8.8000000e+01	  -2.7138790e-01	  -9.5631150e-02	   2.2351907e-01	
   8.8055000e+01	  -2.7542614e-01	  -1.0614980e-01	   2.2020813e-01	
   8.8110000e+01	  -2.7931741e-01	  -1.1637091e-01	   2.1592962e-01	
   8.8165000e+01	  -2.8300887e-01	  -1.2625693e-01	   2.1064997e-01	
   8.8220000e+01	  -2.8644599e-01	  -1.3579650e-01	   2.0433379e-01	
   8.8275000e+01	  -2.8957396e-01	  -1.4499847e-01	   1.9694980e-01	
   8.8330000e+01	  -2.9234123e-01	  -1.5388473e-01	   1.8847587e-01	
   8.8385000e+01	  -2.9470436e-01	  -1.6248406e-01	   1.7890259e-01	
   8.8440000e+01	  -2.9663316e-01	  -1.7082847e-01	   1.6823453e-01	
   8.8495000e+01	  -2.9811567e-01	  -1.7895245e-01	   1.5648914e-01	
   8.8550000e+01	  -2.9916160e-01	  -1.8689365e-01	   1.4369509e-01	
   8.8605000e+01	  -2.9980241e-01	  -1.9469346e-01	   1.2989224e-01	
   8.8660000e+01	  -3.0008720e-01	  -2.0239616e-01	   1.1513467e-01	
   8.8715000e+01	  -3.0007603e-01	  -2.1004628e-01	   9.9496074e-02	
   8.8770000e+01	  -2.9983276e-01	  -2.1768412e-01	   8.3074994e-02	
   8.8825000e+01	  -2.9941875e-01	  -2.2533977e-01	   6.5997241e-02	
   8.8880000e+01	  -2.9888833e-01	  -2.3302726e-01	   4.8414878e-02	
   8.8935000e+01	  -2.9828649e-01	  -2.4073963e-01	   3.0502934e-02	
   8.8990000e+01	  -2.9764877e-01	  -2.4844550e-01	   1.2455156e-02	
   8.9045000e+01	  -2.9700288e-01	  -2.5608794e-01	  -5.5204125e-03	
   8.9100000e+01	  -2.9637136e-01	  -2.6358610e-01	  -2.3205753e-02	
   8.9155000e+01	  -2.9577410e-01	  -2.7084002e-01	  -4.0377487e-02	
   8.9210000e+01	  -2.9522994e-01	  -2.7773841e-01	  -5.6812202e-02	
   8.9265000e+01	  -2.9475675e-01	  -2.8416856e-01	  -7.2292028e-02	
   8.9320000e+01	  -2.9437050e-01	  -2.9002633e-01	  -8.6609447e-02	
   8.9375000e+01	  -2.9408423e-01	  -2.9522443e-01	  -9.9571134e-02	
   8.9430000e+01	  -2.9390731e-01	  -2.9969784e-01	  -1.1100128e-01	
   8.9485000e+01	  -2.9384467e-01	  -3.0340650e-01	  -1.2074498e-01	
   8.9540000e+01	  -2.9389610e-01	  -3.0633559e-01	  -1.2867200e-01	
   8.9595000e+01	  -2.9405662e-01	  -3.0849361e-01	  -1.3468102e-01	
   8.9650000e+01	  -2.9431765e-01	  -3.0990825e-01	  -1.3870296e-01	
   8.9705000e+01	  -2.9466867e-01	  -3.1062051e-01	  -1.4070269e-01	
   8.9760000e+01	  -2.9509846e-01	  -3.1067818e-01	  -1.4068007e-01	
   8.9815000e+01	  -2.9559625e-01	  -3.1012991e-01	  -1.3867109e-01	
   8.9870000e+01	  -2.9615258e-01	  -3.0902060e-01	  -1.3474812e-01	
   8.9925000e+01	  -2.9676021e-01	  -3.0738920e-01	  -1.2901913e-01	
   8.9980000e+01	  -2.9741486e-01	  -3.0526955e-01	  -1.2162643e-01	
   9.0035000e+01	  -2.9811546e-01	  -3.0269351e-01	  -1.1274512e-01	
   9.0090000e+01	  -2.9886347e-01	  -2.9969409e-01	  -1.0257974e-01	
   9.0145000e+01	  -2.9966098e-01	  -2.9630696e-01	  -9.1358546e-02	
   9.0200000e+01	  -3.0050814e-01	  -2.9256989e-01	  -7.9326219e-02	
   9.0255000e+01	  -3.0140071e-01	  -2.8852134e-01	  -6.6736162e-02	
   9.0310000e+01	  -3.0232889e-01	  -2.8419969e-01	  -5.3842996e-02	
   9.0365000e+01	  -3.0327848e-01	  -2.7964447e-01	  -4.0896115e-02	
   9.0420000e+01	  -3.0423394e-01	  -2.7489857e-01	  -2.8135264e-02	
   9.0475000e+01	  -3.0518121e-01	  -2.7000928e-01	  -1.5788290e-02	
   9.0530000e+01	  -3.0610936e-01	  -2.6502807e-01	  -4.0706858e-03	
   9.0585000e+01	  -3.0701156e-01	  -2.6001019e-01	   6.8137811e-03	
   9.0640000e+01	  -3.0788617e-01	  -2.5501496e-01	   1.6672442e-02	
   9.0695000e+01	  -3.0873811e-01	  -2.5010659e-01	   2.5323971e-02	
   9.0750000e+01	  -3.0958024e-01	  -2.4535421e-01	   3.2600173e-02	
   9.0805000e+01	  -3.1043421e-01	  -2.4082956e-01	   3.8350676e-02	
   9.0860000e+01	  -3.1133038e-01	  -2.3660195e-01	   4.2451534e-02	
   9.0915000e+01	  -3.1230715e-01	  -2.3273274e-01	   4.4816318e-02	
   9.0970000e+01	  -3.1341052e-01	  -2.2927192e-01	   4.5406375e-02	
   9.1025000e+01	  -3.1469393e-01	  -2.2625680e-01	   4.4237254e-02	
   9.1080000e+01	  -3.1621741e-01	  -2.2371206e-01	   4.1379962e-02	
   9.1135000e+01	  -3.1804599e-01	  -2.2165098e-01	   3.6957112e-02	
   9.1190000e+01	  -3.2024741e-01	  -2.2007839e-01	   3.1135059e-02	
   9.1245000e+01	  -3.2288914e-01	  -2.1899330e-01	   2.4113727e-02	
   9.1300000e+01	  -3.2603447e-01	  -2.1838921e-01	   1.6115596e-02	
   9.1355000e+01	  -3.2973770e-01	  -2.1825187e-01	   7.3747159e-03	
   9.1410000e+01	  -3.3403894e-01	  -2.1855648e-01	  -1.8733570e-03	
   9.1465000e+01	  -3.3895977e-01	  -2.1926651e-01	  -1.1399446e-02	
   9.1520000e+01	  -3.4450065e-01	  -2.2033476e-01	  -2.0985904e-02	
   9.1575000e+01	  -3.5064082e-01	  -2.2170571e-01	  -3.0430291e-02	
   9.1630000e+01	  -3.5733993e-01	  -2.2331761e-01	  -3.9549564e-02	
   9.1685000e+01	  -3.6454127e-01	  -2.2510378e-01	  -4.8185175e-02	
   9.1740000e+01	  -3.7217595e-01	  -2.2699396e-01	  -5.6207548e-02	
   9.1795000e+01	  -3.8016739e-01	  -2.2891690e-01	  -6.3518655e-02	
   9.1850000e+01	  -3.8843461e-01	  -2.3080381e-01	  -7.0053028e-02	
   9.1905000e+01	  -3.9689376e-01	  -2.3259170e-01	  -7.5777678e-02	
   9.1960000e+01	  -4.0545830e-01	  -2.3422575e-01	  -8.0690149e-02	
   9.2015000e+01	  -4.1403812e-01	  -2.3566015e-01	  -8.4813472e-02	
   9.2070000e+01	  -4.2253858e-01	  -2.3685721e-01	  -8.8187644e-02	
   9.2125000e+01	  -4.3085999e-01	  -2.3778447e-01	  -9.0858969e-02	
   9.2180000e+01	  -4.3889782e-01	  -2.3841008e-01	  -9.2869899e-02	
   9.2235000e+01	  -4.4654396e-01	  -2.3869751e-01	  -9.4251674e-02	
   9.2290000e+01	  -4.5368913e-01	  -2.3860128e-01	  -9.5020360e-02	
   9.2345000e+01	  -4.6022641e-01	  -2.3806529e-01	  -9.5175969e-02	
   9.2400000e+01	  -4.6605578e-01	  -2.3702430e-01	  -9.4704590e-02	
   9.2455000e+01	  -4.7108903e-01	  -2.3540872e-01	  -9.3583705e-02	
   9.2510000e+01	  -4.7525468e-01	  -2.3315142e-01	  -9.1790032e-02	
   9.2565000e+01	  -4.7850167e-01	  -2.3019506e-01	  -8.9307727e-02	
   9.2620000e+01	  -4.8080104e-01	  -2.2649768e-01	  -8.6134270e-02	
   9.2675000e+01	  -4.8214524e-01	  -2.2203574e-01	  -8.2282773e-02	
   9.2730000e+01	  -4.8254658e-01	  -2.1680450e-01	  -7.7781444e-02	
   9.2785000e+01	  -4.8203522e-01	  -2.1081749e-01	  -7.2671906e-02	
   9.2840000e+01	  -4.8065681e-01	  -2.0410649e-01	  -6.7008074e-02	
   9.2895000e+01	  -4.7847006e-01	  -1.9672294e-01	  -6.0856849e-02	
   9.2950000e+01	  -4.7554477e-01	  -1.8874006e-01	  -5.4300733e-02	
   9.3005000e+01	  -4.7196064e-01	  -1.8025462e-01	  -4.7441052e-02	
   9.3060000e+01	  -4.6780626e-01	  -1.7138800e-01	  -4.0399364e-02	
   9.3115000e+01	  -4.6317792e-01	  -1.6228595e-01	  -3.3314598e-02	
   9.3170000e+01	  -4.5817736e-01	  -1.5311464e-01	  -2.6335364e-02	
   9.3225000e+01	  -4.5290855e-01	  -1.4405148e-01	  -1.9609902e-02	
   9.3280000e+01	  -4.4747430e-01	  -1.3527145e-01	  -1.3277753e-02	
   9.3335000e+01	  -4.4197362e-01	  -1.2693189e-01	  -7.4656309e-03	
   9.3390000e+01	  -4.3650018e-01	  -1.1915893e-01	  -2.2866309e-03	
   9.3445000e+01	  -4.3114117e-01	  -1.1203824e-01	   2.1599031e-03	
   9.3500000e+01	  -4.2597590e-01	  -1.0561042e-01	   5.7905597e-03	
   9.3555000e+01	  -4.2107327e-01	  -9.9869025e-02	   8.5437210e-03	
   9.3610000e+01	  -4.1648825e-01	  -9.4760917e-02	   1.0388348e-02	
   9.3665000e+01	  -4.1225898e-01	  -9.0190497e-02	   1.1332725e-02	
   9.3720000e+01	  -4.0840521e-01	  -8.6028405e-02	   1.1430360e-02	
   9.3775000e+01	  -4.0492794e-01	  -8.2123135e-02	   1.0781672e-02	
   9.3830000e+01	  -4.0180997e-01	  -7.8314417e-02	   9.5306660e-03	
   9.3885000e+01	  -3.9901764e-01	  -7.4447911e-02	   7.8561636e-03	
   9.3940000e+01	  -3.9650423e-01	  -7.0390124e-02	   5.9585127e-03	
   9.3995000e+01	  -3.9421478e-01	  -6.6041528e-02	   4.0447902e-03	
   9.4050000e+01	  -3.9209205e-01	  -6.1345420e-02	   2.3160288e-03	
   9.4105000e+01	  -3.9008267e-01	  -5.6290700e-02	   9.5793350e-04	
   9.4160000e+01	  -3.8814200e-01	  -5.0908904e-02	   1.3412565e-04	
   9.4215000e+01	  -3.8623678e-01	  -4.5268171e-02	  -1.9129278e-05	
   9.4270000e+01	  -3.8434606e-01	  -3.9466674e-02	   6.0344249e-04	
   9.4325000e+01	  -3.8246102e-01	  -3.3625732e-02	   2.0742228e-03	
   9.4380000e+01	  -3.8058420e-01	  -2.7881795e-02	   4.4314434e-03	
   9.4435000e+01	  -3.7872822e-01	  -2.2377613e-02	   7.6774116e-03	
   9.4490000e+01	  -3.7691476e-01	  -1.7253098e-02	   1.1776962e-02	
   9.4545000e+01	  -3.7517340e-01	  -1.2635765e-02	   1.6658359e-02	
   9.4600000e+01	  -3.7353998e-01	  -8.6317675e-03	   2.2217832e-02	
   9.4655000e+01	  -3.7205472e-01	  -5.3196234e-03	   2.8326653e-02	
   9.4710000e+01	  -3.7076041e-01	  -2.7467419e-03	   3.4838344e-02	
   9.4765000e+01	  -3.6970065e-01	  -9.2638384e-04	   4.1594332e-02	
   9.4820000e+01	  -3.6891807e-01	   1.6673605e-04	   4.8428350e-02	
   9.4875000e+01	  -3.6845214e-01	   6.0154526e-04	   5.5171444e-02	
   9.4930000e+01	  -3.6833686e-01	   4.9403557e-04	   6.1659163e-02	
   9.4985000e+01	  -3.6859832e-01	   6.4755826e-06	   6.7740496e-02	
   9.5040000e+01	  -3.6925256e-01	  -6.5904519e-04	   7.3286655e-02	
   9.5095000e+01	  -3.7030368e-01	  -1.2725520e-03	   7.8198216e-02	
   9.5150000e+01	  -3.7174237e-01	  -1.5921048e-03	   8.2409494e-02	
   9.5205000e+01	  -3.7354545e-01	  -1.3820119e-03	   8.5888559e-02	
   9.5260000e+01	  -3.7567677e-01	  -4.3206711e-04	   8.8632488e-02	
   9.5315000e+01	  -3.7808865e-01	   1.4239863e-03	   9.0660016e-02	
   9.5370000e+01	  -3.8072302e-01	   4.2941873e-03	   9.2004377e-02	
   9.5425000e+01	  -3.8351195e-01	   8.2223901e-03	   9.2707746e-02	
   9.5480000e+01	  -3.8637834e-01	   1.3192396e-02	   9.2817688e-02	
   9.5535000e+01	  -3.8923755e-01	   1.9139341e-02	   9.2385695e-02	
