
0   5   7
   0.0000000e+00	   1.7906007e-01	  -1.6345680e-01	
   5.5000000e-02	   1.9959226e-01	  -1.4718509e-01	
   1.1000000e-01	   2.2027369e-01	  -1.3135512e-01	
   1.6500000e-01	   2.4109503e-01	  -1.1611485e-01	
   2.2000000e-01	   2.6204414e-01	  -1.0159580e-01	
   2.7500000e-01	   2.8310169e-01	  -8.7909778e-02	
   3.3000000e-01	   3.0423729e-01	  -7.5147532e-02	
   3.8500000e-01	   3.2540710e-01	  -6.3377921e-02	
   4.4000000e-01	   3.4655378e-01	  -5.2646125e-02	
   4.9500000e-01	   3.6760998e-01	  -4.2970058e-02	
   5.5000000e-01	   3.8850506e-01	  -3.4335640e-02	
   6.0500000e-01	   4.0917349e-01	  -2.6692466e-02	
   6.6000000e-01	   4.2956257e-01	  -1.9951576e-02	
   7.1500000e-01	   4.4963786e-01	  -1.3986685e-02	
   7.7000000e-01	   4.6938457e-01	  -8.6394771e-03	
   8.2500000e-01	   4.8880357e-01	  -3.7285088e-03	
   8.8000000e-01	   5.0790312e-01	   9.3970101e-04	
   9.3500000e-01	   5.2668895e-01	   5.5589478e-03	
   9.9000000e-01	   5.4515490e-01	   1.0312053e-02	
   1.0450000e+00	   5.6327474e-01	   1.5360972e-02	
   1.1000000e+00	   5.8099600e-01	   2.0839250e-02	
   1.1550000e+00	   5.9823630e-01	   2.6847228e-02	
   1.2100000e+00	   6.1488225e-01	   3.3449950e-02	
   1.2650000e+00	   6.3079107e-01	   4.0677941e-02	
   1.3200000e+00	   6.4579603e-01	   4.8530751e-02	
   1.3750000e+00	   6.5971566e-01	   5.6982014e-02	
   1.4300000e+00	   6.7236576e-01	   6.5984270e-02	
   1.4850000e+00	   6.8357267e-01	   7.5472548e-02	
   1.5400000e+00	   6.9318688e-01	   8.5366417e-02	
   1.5950000e+00	   7.0109540e-01	   9.5570288e-02	
   1.6500000e+00	   7.0723127e-01	   1.0597219e-01	
   1.7050000e+00	   7.1157900e-01	   1.1644238e-01	
   1.7600000e+00	   7.1417701e-01	   1.2683352e-01	
   1.8150000e+00	   7.1511817e-01	   1.3698307e-01	
   1.8700000e+00	   7.1454956e-01	   1.4671758e-01	
   1.9250000e+00	   7.1267099e-01	   1.5585814e-01	
   1.9800000e+00	   7.0973196e-01	   1.6422602e-01	
   2.0350000e+00	   7.0602640e-01	   1.7164754e-01	
   2.0900000e+00	   7.0188485e-01	   1.7795765e-01	
   2.1450000e+00	   6.9766366e-01	   1.8300295e-01	
   2.2000000e+00	   6.9373047e-01	   1.8664538e-01	
   2.2550000e+00	   6.9044496e-01	   1.8876739e-01	
   2.3100000e+00	   6.8813488e-01	   1.8927911e-01	
   2.3650000e+00	   6.8706926e-01	   1.8812739e-01	
   2.4200000e+00	   6.8743289e-01	   1.8530601e-01	
   2.4750000e+00	   6.8930808e-01	   1.8086424e-01	
   2.5300000e+00	   6.9266867e-01	   1.7491138e-01	
   2.5850000e+00	   6.9738859e-01	   1.6761527e-01	
   2.6400000e+00	   7.0326263e-01	   1.5919449e-01	
   2.6950000e+00	   7.1003336e-01	   1.4990553e-01	
   2.7500000e+00	   7.1741812e-01	   1.4002804e-01	
   2.8050000e+00	   7.2513234e-01	   1.2985040e-01	
   2.8600000e+00	   7.3290822e-01	   1.1965576e-01	
   2.9150000e+00	   7.4050895e-01	   1.0970834e-01	
   2.9700000e+00	   7.4773927e-01	   1.0024022e-01	
   3.0250000e+00	   7.5445330e-01	   9.1439350e-02	
   3.0800000e+00	   7.6055938e-01	   8.3439373e-02	
   3.1350000e+00	   7.6602141e-01	   7.6311899e-02	
   3.1900000e+00	   7.7085730e-01	   7.0062238e-02	
   3.2450000e+00	   7.7513546e-01	   6.4629619e-02	
   3.3000000e+00	   7.7897022e-01	   5.9892259e-02	
   3.3550000e+00	   7.8251605e-01	   5.5677119e-02	
   3.4100000e+00	   7.8596101e-01	   5.1773645e-02	
   3.4650000e+00	   7.8951963e-01	   4.7950002e-02	
   3.5200000e+00	   7.9342394e-01	   4.3970284e-02	
   3.5750000e+00	   7.9791104e-01	   3.9612113e-02	
   3.6300000e+00	   8.0320605e-01	   3.4684150e-02	
   3.6850000e+00	   8.0950039e-01	   2.9041691e-02	
   3.7400000e+00	   8.1692864e-01	   2.2597265e-02	
   3.7950000e+00	   8.2555058e-01	   1.5323713e-02	
   3.8500000e+00	   8.3534391e-01	   7.2489319e-03	
   3.9050000e+00	   8.4620814e-01	  -1.5564052e-03	
   3.9600000e+00	   8.5797582e-01	  -1.0994802e-02	
   4.0150000e+00	   8.7042647e-01	  -2.0957296e-02	
   4.0700000e+00	   8.8330075e-01	  -3.1334990e-02	
   4.1250000e+00	   8.9631532e-01	  -4.2025632e-02	
   4.1800000e+00	   9.0917874e-01	  -5.2935601e-02	
   4.2350000e+00	   9.2160749e-01	  -6.3978300e-02	
   4.2900000e+00	   9.3334028e-01	  -7.5070645e-02	
   4.3450000e+00	   9.4414930e-01	  -8.6129869e-02	
   4.4000000e+00	   9.5384765e-01	  -9.7072024e-02	
   4.4550000e+00	   9.6229283e-01	  -1.0781194e-01	
   4.5100000e+00	   9.6938640e-01	  -1.1826399e-01	
   4.5650000e+00	   9.7507006e-01	  -1.2834413e-01	
   4.6200000e+00	   9.7931894e-01	  -1.3797417e-01	
   4.6750000e+00	   9.8213349e-01	  -1.4708773e-01	
   4.7300000e+00	   9.8353138e-01	  -1.5563651e-01	
   4.7850000e+00	   9.8354032e-01	  -1.6359545e-01	
   4.8400000e+00	   9.8219244e-01	  -1.7096570e-01	
   4.8950000e+00	   9.7952136e-01	  -1.7777374e-01	
   4.9500000e+00	   9.7556256e-01	  -1.8406642e-01	
   5.0050000e+00	   9.7035560e-01	  -1.8990314e-01	
   5.0600000e+00	   9.6394520e-01	  -1.9534788e-01	
   5.1150000e+00	   9.5637990e-01	  -2.0046229e-01	
   5.1700000e+00	   9.4770896e-01	  -2.0530047e-01	
   5.2250000e+00	   9.3797897e-01	  -2.0990601e-01	
   5.2800000e+00	   9.2723141e-01	  -2.1431106e-01	
   5.3350000e+00	   9.1550207e-01	  -2.1853696e-01	
   5.3900000e+00	   9.0282187e-01	  -2.2259604e-01	
   5.4450000e+00	   8.8921837e-01	  -2.2649463e-01	
   5.5000000e+00	   8.7471814e-01	  -2.3023618e-01	
   5.5550000e+00	   8.5935173e-01	  -2.3382251e-01	
   5.6100000e+00	   8.4316218e-01	  -2.3725219e-01	
   5.6650000e+00	   8.2621494e-01	  -2.4051719e-01	
   5.7200000e+00	   8.0860587e-01	  -2.4359904e-01	
   5.7750000e+00	   7.9046488e-01	  -2.4646589e-01	
   5.8300000e+00	   7.7195422e-01	  -2.4907197e-01	
   5.8850000e+00	   7.5326176e-01	  -2.5136030e-01	
   5.9400000e+00	   7.3459073e-01	  -2.5326856e-01	
   5.9950000e+00	   7.1614825e-01	  -2.5473671e-01	
   6.0500000e+00	   6.9813368e-01	  -2.5571438e-01	
   6.1050000e+00	   6.8072699e-01	  -2.5616629e-01	
   6.1600000e+00	   6.6407701e-01	  -2.5607409e-01	
   6.2150000e+00	   6.4828979e-01	  -2.5543413e-01	
   6.2700000e+00	   6.3341659e-01	  -2.5425137e-01	
   6.3250000e+00	   6.1944325e-01	  -2.5253053e-01	
   6.3800000e+00	   6.0628535e-01	  -2.5026624e-01	
   6.4350000e+00	   5.9379459e-01	  -2.4743588e-01	
   6.4900000e+00	   5.8177655e-01	  -2.4399779e-01	
   6.5450000e+00	   5.7001457e-01	  -2.3989524e-01	
   6.6000000e+00	   5.5829297e-01	  -2.3506384e-01	
   6.6550000e+00	   5.4641564e-01	  -2.2944070e-01	
   6.7100000e+00	   5.3421950e-01	  -2.2297444e-01	
   6.7650000e+00	   5.2158409e-01	  -2.1563573e-01	
   6.8200000e+00	   5.0843831e-01	  -2.0742749e-01	
   6.8750000e+00	   4.9476385e-01	  -1.9839384e-01	
   6.9300000e+00	   4.8059433e-01	  -1.8862656e-01	
   6.9850000e+00	   4.6601086e-01	  -1.7826755e-01	
   7.0400000e+00	   4.5113596e-01	  -1.6750575e-01	
   7.0950000e+00	   4.3612728e-01	  -1.5656873e-01	
   7.1500000e+00	   4.2117078e-01	  -1.4570996e-01	
   7.2050000e+00	   4.0647160e-01	  -1.3519286e-01	
   7.2600000e+00	   3.9224082e-01	  -1.2527338e-01	
   7.3150000e+00	   3.7867633e-01	  -1.1618264e-01	
   7.3700000e+00	   3.6593968e-01	  -1.0811107e-01	
   7.4250000e+00	   3.5413468e-01	  -1.0119523e-01	
   7.4800000e+00	   3.4329376e-01	  -9.5509317e-02	
   7.5350000e+00	   3.3337476e-01	  -9.1064325e-02	
   7.5900000e+00	   3.2426832e-01	  -8.7816323e-02	
   7.6450000e+00	   3.1581506e-01	  -8.5682522e-02	
   7.7000000e+00	   3.0782917e-01	  -8.4561078e-02	
   7.7550000e+00	   3.0012346e-01	  -8.4349367e-02	
   7.8100000e+00	   2.9253178e-01	  -8.4956601e-02	
   7.8650000e+00	   2.8492725e-01	  -8.6308933e-02	
   7.9200000e+00	   2.7723477e-01	  -8.8347149e-02	
   7.9750000e+00	   2.6943660e-01	  -9.1018718e-02	
   8.0300000e+00	   2.6156998e-01	  -9.4266921e-02	
   8.0850000e+00	   2.5371541e-01	  -9.8019570e-02	
   8.1400000e+00	   2.4597489e-01	  -1.0217877e-01	
   8.1950000e+00	   2.3844132e-01	  -1.0661233e-01	
   8.2500000e+00	   2.3116500e-01	  -1.1114751e-01	
   8.3050000e+00	   2.2412479e-01	  -1.1556834e-01	
   8.3600000e+00	   2.1720908e-01	  -1.1961874e-01	
   8.4150000e+00	   2.1020832e-01	  -1.2301292e-01	
   8.4700000e+00	   2.0282027e-01	  -1.2545286e-01	
   8.5250000e+00	   1.9466805e-01	  -1.2665032e-01	
   8.5800000e+00	   1.8532808e-01	  -1.2634949e-01	
   8.6350000e+00	   1.7436260e-01	  -1.2434654e-01	
   8.6900000e+00	   1.6135305e-01	  -1.2050299e-01	
   8.7450000e+00	   1.4593245e-01	  -1.1475189e-01	
   8.8000000e+00	   1.2781390e-01	  -1.0709812e-01	
   8.8550000e+00	   1.0681247e-01	  -9.7615286e-02	
   8.9100000e+00	   8.2859274e-02	  -8.6440718e-02	
   8.9650000e+00	   5.6007204e-02	  -7.3769114e-02	
   9.0200000e+00	   2.6428349e-02	  -5.9844856e-02	
   9.0750000e+00	  -5.5972169e-03	  -4.4952376e-02	
   9.1300000e+00	  -3.9700989e-02	  -2.9403899e-02	
   9.1850000e+00	  -7.5452801e-02	  -1.3525057e-02	
   9.2400000e+00	  -1.1239118e-01	   2.3599770e-03	
   9.2950000e+00	  -1.5005135e-01	   1.7942315e-02	
   9.3500000e+00	  -1.8798565e-01	   3.2940444e-02	
   9.4050000e+00	  -2.2577493e-01	   4.7110322e-02	
   9.4600000e+00	  -2.6303262e-01	   6.0252898e-02	
   9.5150000e+00	  -2.9940489e-01	   7.2218323e-02	
   9.5700000e+00	  -3.3456985e-01	   8.2906338e-02	
   9.6250000e+00	  -3.6823727e-01	   9.2263159e-02	
   9.6800000e+00	  -4.0014984e-01	   1.0027591e-01	
   9.7350000e+00	  -4.3008640e-01	   1.0696591e-01	
   9.7900000e+00	  -4.5786702e-01	   1.1238124e-01	
   9.8450000e+00	  -4.8335941e-01	   1.1658879e-01	
   9.9000000e+00	  -5.0648518e-01	   1.1966603e-01	
   9.9550000e+00	  -5.2722400e-01	   1.2169417e-01	
   1.0010000e+01	  -5.4561310e-01	   1.2275471e-01	
   1.0065000e+01	  -5.6174084e-01	   1.2292994e-01	
   1.0120000e+01	  -5.7573506e-01	   1.2230657e-01	
   1.0175000e+01	  -5.8774927e-01	   1.2098087e-01	
   1.0230000e+01	  -5.9794996e-01	   1.1906276e-01	
   1.0285000e+01	  -6.0650659e-01	   1.1667705e-01	
   1.0340000e+01	  -6.1358360e-01	   1.1396180e-01	
   1.0395000e+01	  -6.1933325e-01	   1.1106521e-01	
   1.0450000e+01	  -6.2388988e-01	   1.0814160e-01	
   1.0505000e+01	  -6.2736766e-01	   1.0534661e-01	
   1.0560000e+01	  -6.2986283e-01	   1.0283110e-01	
   1.0615000e+01	  -6.3145847e-01	   1.0073454e-01	
   1.0670000e+01	  -6.3222939e-01	   9.9178624e-02	
   1.0725000e+01	  -6.3224591e-01	   9.8261817e-02	
   1.0780000e+01	  -6.3157575e-01	   9.8056762e-02	
   1.0835000e+01	  -6.3028242e-01	   9.8611854e-02	
   1.0890000e+01	  -6.2842063e-01	   9.9956634e-02	
   1.0945000e+01	  -6.2603009e-01	   1.0210875e-01	
   1.1000000e+01	  -6.2312980e-01	   1.0508061e-01	
   1.1055000e+01	  -6.1971432e-01	   1.0888429e-01	
   1.1110000e+01	  -6.1575364e-01	   1.1353311e-01	
   1.1165000e+01	  -6.1119828e-01	   1.1903895e-01	
   1.1220000e+01	  -6.0598879e-01	   1.2540594e-01	
   1.1275000e+01	  -6.0006775e-01	   1.3262233e-01	
   1.1330000e+01	  -5.9339215e-01	   1.4065220e-01	
   1.1385000e+01	  -5.8594460e-01	   1.4942865e-01	
   1.1440000e+01	  -5.7774243e-01	   1.5884978e-01	
   1.1495000e+01	  -5.6884335e-01	   1.6877830e-01	
   1.1550000e+01	  -5.5934687e-01	   1.7904482e-01	
   1.1605000e+01	  -5.4939130e-01	   1.8945491e-01	
   1.1660000e+01	  -5.3914689e-01	   1.9979979e-01	
   1.1715000e+01	  -5.2880631e-01	   2.0986948e-01	
   1.1770000e+01	  -5.1857431e-01	   2.1946612e-01	
   1.1825000e+01	  -5.0865758e-01	   2.2841530e-01	
   1.1880000e+01	  -4.9925542e-01	   2.3657386e-01	
   1.1935000e+01	  -4.9055116e-01	   2.4383360e-01	
   1.1990000e+01	  -4.8270419e-01	   2.5012094e-01	
   1.2045000e+01	  -4.7584228e-01	   2.5539419e-01	
   1.2100000e+01	  -4.7005521e-01	   2.5963967e-01	
   1.2155000e+01	  -4.6539129e-01	   2.6286777e-01	
   1.2210000e+01	  -4.6185779e-01	   2.6510933e-01	
   1.2265000e+01	  -4.5942477e-01	   2.6641246e-01	
   1.2320000e+01	  -4.5803055e-01	   2.6684057e-01	
   1.2375000e+01	  -4.5758849e-01	   2.6647140e-01	
   1.2430000e+01	  -4.5799505e-01	   2.6539662e-01	
   1.2485000e+01	  -4.5913826e-01	   2.6372066e-01	
   1.2540000e+01	  -4.6090562e-01	   2.6155753e-01	
   1.2595000e+01	  -4.6319029e-01	   2.5902529e-01	
   1.2650000e+01	  -4.6589560e-01	   2.5623921e-01	
   1.2705000e+01	  -4.6893781e-01	   2.5330510e-01	
   1.2760000e+01	  -4.7224760e-01	   2.5031365e-01	
   1.2815000e+01	  -4.7577092e-01	   2.4733608e-01	
   1.2870000e+01	  -4.7946952e-01	   2.4442152e-01	
   1.2925000e+01	  -4.8332023e-01	   2.4159674e-01	
   1.2980000e+01	  -4.8731180e-01	   2.3886806e-01	
   1.3035000e+01	  -4.9143901e-01	   2.3622500e-01	
   1.3090000e+01	  -4.9569557e-01	   2.3364520e-01	
   1.3145000e+01	  -5.0006814e-01	   2.3109966e-01	
   1.3200000e+01	  -5.0453369e-01	   2.2855732e-01	
   1.3255000e+01	  -5.0906079e-01	   2.2598822e-01	
   1.3310000e+01	  -5.1361318e-01	   2.2336513e-01	
   1.3365000e+01	  -5.1815327e-01	   2.2066423e-01	
   1.3420000e+01	  -5.2264374e-01	   2.1786482e-01	
   1.3475000e+01	  -5.2704770e-01	   2.1494848e-01	
   1.3530000e+01	  -5.3132818e-01	   2.1189842e-01	
   1.3585000e+01	  -5.3544723e-01	   2.0869969e-01	
   1.3640000e+01	  -5.3936472e-01	   2.0534015e-01	
   1.3695000e+01	  -5.4303645e-01	   2.0181245e-01	
   1.3750000e+01	  -5.4641191e-01	   1.9811678e-01	
   1.3805000e+01	  -5.4943218e-01	   1.9426417e-01	
   1.3860000e+01	  -5.5202957e-01	   1.9027885e-01	
   1.3915000e+01	  -5.5412931e-01	   1.8619914e-01	
   1.3970000e+01	  -5.5565309e-01	   1.8207678e-01	
   1.4025000e+01	  -5.5652340e-01	   1.7797536e-01	
   1.4080000e+01	  -5.5666882e-01	   1.7396704e-01	
   1.4135000e+01	  -5.5603040e-01	   1.7012734e-01	
   1.4190000e+01	  -5.5456852e-01	   1.6652820e-01	
   1.4245000e+01	  -5.5226907e-01	   1.6323069e-01	
   1.4300000e+01	  -5.4914800e-01	   1.6027818e-01	
   1.4355000e+01	  -5.4525380e-01	   1.5769113e-01	
   1.4410000e+01	  -5.4066765e-01	   1.5546432e-01	
   1.4465000e+01	  -5.3550081e-01	   1.5356718e-01	
   1.4520000e+01	  -5.2988906e-01	   1.5194723e-01	
   1.4575000e+01	  -5.2398443e-01	   1.5053604e-01	
   1.4630000e+01	  -5.1794564e-01	   1.4925607e-01	
   1.4685000e+01	  -5.1192857e-01	   1.4802753e-01	
   1.4740000e+01	  -5.0607778e-01	   1.4677433e-01	
   1.4795000e+01	  -5.0051908e-01	   1.4542805e-01	
   1.4850000e+01	  -4.9535391e-01	   1.4392877e-01	
   1.4905000e+01	  -4.9065645e-01	   1.4222218e-01	
   1.4960000e+01	  -4.8647348e-01	   1.4025434e-01	
   1.5015000e+01	  -4.8282587e-01	   1.3796650e-01	
   1.5070000e+01	  -4.7971127e-01	   1.3529129e-01	
   1.5125000e+01	  -4.7710872e-01	   1.3215058e-01	
   1.5180000e+01	  -4.7498518e-01	   1.2845593e-01	
   1.5235000e+01	  -4.7330324e-01	   1.2411254e-01	
   1.5290000e+01	  -4.7202828e-01	   1.1902665e-01	
   1.5345000e+01	  -4.7113389e-01	   1.1311519e-01	
   1.5400000e+01	  -4.7060466e-01	   1.0631611e-01	
   1.5455000e+01	  -4.7043641e-01	   9.8597531e-02	
   1.5510000e+01	  -4.7063506e-01	   8.9964071e-02	
   1.5565000e+01	  -4.7121555e-01	   8.0459094e-02	
   1.5620000e+01	  -4.7220109e-01	   7.0163240e-02	
   1.5675000e+01	  -4.7362319e-01	   5.9189575e-02	
   1.5730000e+01	  -4.7552254e-01	   4.7675228e-02	
   1.5785000e+01	  -4.7795045e-01	   3.5769971e-02	
   1.5840000e+01	  -4.8096948e-01	   2.3623728e-02	
   1.5895000e+01	  -4.8465218e-01	   1.1375328e-02	
   1.5950000e+01	  -4.8907844e-01	  -8.5606245e-04	
   1.6005000e+01	  -4.9433074e-01	  -1.2975777e-02	
   1.6060000e+01	  -5.0048673e-01	  -2.4914129e-02	
   1.6115000e+01	  -5.0760961e-01	  -3.6623316e-02	
   1.6170000e+01	  -5.1573953e-01	  -4.8072944e-02	
   1.6225000e+01	  -5.2488810e-01	  -5.9245936e-02	
   1.6280000e+01	  -5.3503593e-01	  -7.0135380e-02	
   1.6335000e+01	  -5.4613257e-01	  -8.0742816e-02	
   1.6390000e+01	  -5.5809912e-01	  -9.1078599e-02	
   1.6445000e+01	  -5.7083329e-01	  -1.0116368e-01	
   1.6500000e+01	  -5.8421585e-01	  -1.1103120e-01	
   1.6555000e+01	  -5.9811818e-01	  -1.2072707e-01	
   1.6610000e+01	  -6.1241076e-01	  -1.3030990e-01	
   1.6665000e+01	  -6.2697142e-01	  -1.3985002e-01	
   1.6720000e+01	  -6.4169070e-01	  -1.4942685e-01	
   1.6775000e+01	  -6.5647297e-01	  -1.5912427e-01	
   1.6830000e+01	  -6.7123397e-01	  -1.6902430e-01	
   1.6885000e+01	  -6.8589635e-01	  -1.7920000e-01	
   1.6940000e+01	  -7.0038580e-01	  -1.8970879e-01	
   1.6995000e+01	  -7.1463050e-01	  -2.0058780e-01	
   1.7050000e+01	  -7.2856555e-01	  -2.1185219e-01	
   1.7105000e+01	  -7.4214081e-01	  -2.2349630e-01	
   1.7160000e+01	  -7.5532892e-01	  -2.3549705e-01	
   1.7215000e+01	  -7.6813067e-01	  -2.4781799e-01	
   1.7270000e+01	  -7.8057651e-01	  -2.6041226e-01	
   1.7325000e+01	  -7.9272384e-01	  -2.7322355e-01	
   1.7380000e+01	  -8.0465179e-01	  -2.8618556e-01	
   1.7435000e+01	  -8.1645519e-01	  -2.9922131e-01	
   1.7490000e+01	  -8.2823866e-01	  -3.1224219e-01	
   1.7545000e+01	  -8.4011060e-01	  -3.2514628e-01	
   1.7600000e+01	  -8.5217727e-01	  -3.3781619e-01	
   1.7655000e+01	  -8.6453782e-01	  -3.5011782e-01	
   1.7710000e+01	  -8.7728060e-01	  -3.6190091e-01	
   1.7765000e+01	  -8.9048007e-01	  -3.7300160e-01	
   1.7820000e+01	  -9.0419443e-01	  -3.8324774e-01	
   1.7875000e+01	  -9.1846472e-01	  -3.9246733e-01	
   1.7930000e+01	  -9.3331569e-01	  -4.0049910e-01	
   1.7985000e+01	  -9.4875707e-01	  -4.0720250e-01	
   1.8040000e+01	  -9.6478456e-01	  -4.1246525e-01	
   1.8095000e+01	  -9.8138031e-01	  -4.1620727e-01	
   1.8150000e+01	  -9.9851231e-01	  -4.1838057e-01	
   1.8205000e+01	  -1.0161325e+00	  -4.1896557e-01	
   1.8260000e+01	  -1.0341742e+00	  -4.1796595e-01	
   1.8315000e+01	  -1.0525493e+00	  -4.1540417e-01	
   1.8370000e+01	  -1.0711452e+00	  -4.1131831e-01	
   1.8425000e+01	  -1.0898238e+00	  -4.0576054e-01	
   1.8480000e+01	  -1.1084227e+00	  -3.9879702e-01	
   1.8535000e+01	  -1.1267594e+00	  -3.9050899e-01	
   1.8590000e+01	  -1.1446393e+00	  -3.8099433e-01	
   1.8645000e+01	  -1.1618628e+00	  -3.7036943e-01	
   1.8700000e+01	  -1.1782353e+00	  -3.5877052e-01	
   1.8755000e+01	  -1.1935738e+00	  -3.4635240e-01	
   1.8810000e+01	  -1.2077108e+00	  -3.3328268e-01	
   1.8865000e+01	  -1.2204955e+00	  -3.1973223e-01	
   1.8920000e+01	  -1.2317944e+00	  -3.0586456e-01	
   1.8975000e+01	  -1.2414922e+00	  -2.9182652e-01	
   1.9030000e+01	  -1.2494935e+00	  -2.7774162e-01	
   1.9085000e+01	  -1.2557241e+00	  -2.6370656e-01	
   1.9140000e+01	  -1.2601311e+00	  -2.4979094e-01	
   1.9195000e+01	  -1.2626839e+00	  -2.3603965e-01	
   1.9250000e+01	  -1.2633736e+00	  -2.2247733e-01	
   1.9305000e+01	  -1.2622129e+00	  -2.0911427e-01	
   1.9360000e+01	  -1.2592351e+00	  -1.9595316e-01	
   1.9415000e+01	  -1.2544923e+00	  -1.8299508e-01	
   1.9470000e+01	  -1.2480523e+00	  -1.7024313e-01	
   1.9525000e+01	  -1.2399949e+00	  -1.5770289e-01	
   1.9580000e+01	  -1.2304085e+00	  -1.4538068e-01	
   1.9635000e+01	  -1.2193880e+00	  -1.3328131e-01	
   1.9690000e+01	  -1.2070333e+00	  -1.2140673e-01	
   1.9745000e+01	  -1.1934476e+00	  -1.0975581e-01	
   1.9800000e+01	  -1.1787372e+00	  -9.8324900e-02	
   1.9855000e+01	  -1.1630103e+00	  -8.7107930e-02	
   1.9910000e+01	  -1.1463759e+00	  -7.6096489e-02	
   1.9965000e+01	  -1.1289423e+00	  -6.5280699e-02	
   2.0020000e+01	  -1.1108166e+00	  -5.4651429e-02	
   2.0075000e+01	  -1.0921041e+00	  -4.4202872e-02	
   2.0130000e+01	  -1.0729064e+00	  -3.3934123e-02	
   2.0185000e+01	  -1.0533191e+00	  -2.3848763e-02	
   2.0240000e+01	  -1.0334289e+00	  -1.3952021e-02	
   2.0295000e+01	  -1.0133095e+00	  -4.2459313e-03	
   2.0350000e+01	  -9.9301728e-01	   5.2760239e-03	
   2.0405000e+01	  -9.7258825e-01	   1.4632738e-02	
   2.0460000e+01	  -9.5203769e-01	   2.3856410e-02	
   2.0515000e+01	  -9.3136411e-01	   3.2990342e-02	
   2.0570000e+01	  -9.1055578e-01	   4.2083948e-02	
   2.0625000e+01	  -8.8959920e-01	   5.1185512e-02	
   2.0680000e+01	  -8.6848851e-01	   6.0333936e-02	
   2.0735000e+01	  -8.4723420e-01	   6.9551167e-02	
   2.0790000e+01	  -8.2586959e-01	   7.8836447e-02	
   2.0845000e+01	  -8.0445425e-01	   8.8162910e-02	
   2.0900000e+01	  -7.8307421e-01	   9.7477083e-02	
   2.0955000e+01	  -7.6183870e-01	   1.0670184e-01	
   2.1010000e+01	  -7.4087337e-01	   1.1574304e-01	
   2.1065000e+01	  -7.2031070e-01	   1.2449936e-01	
   2.1120000e+01	  -7.0027876e-01	   1.3287410e-01	
   2.1175000e+01	  -6.8088961e-01	   1.4078631e-01	
   2.1230000e+01	  -6.6223003e-01	   1.4817870e-01	
   2.1285000e+01	  -6.4435620e-01	   1.5502123e-01	
   2.1340000e+01	  -6.2729266e-01	   1.6131077e-01	
   2.1395000e+01	  -6.1103464e-01	   1.6706809e-01	
   2.1450000e+01	  -5.9555336e-01	   1.7233249e-01	
   2.1505000e+01	  -5.8080316e-01	   1.7715471e-01	
   2.1560000e+01	  -5.6672898e-01	   1.8158959e-01	
   2.1615000e+01	  -5.5327337e-01	   1.8568969e-01	
   2.1670000e+01	  -5.4038295e-01	   1.8950065e-01	
   2.1725000e+01	  -5.2801322e-01	   1.9305939e-01	
   2.1780000e+01	  -5.1613062e-01	   1.9639567e-01	
   2.1835000e+01	  -5.0471178e-01	   1.9953549e-01	
   2.1890000e+01	  -4.9374135e-01	   2.0250373e-01	
   2.1945000e+01	  -4.8320921e-01	   2.0532485e-01	
   2.2000000e+01	  -4.7310766e-01	   2.0802224e-01	
   2.2055000e+01	  -4.6342995e-01	   2.1061632e-01	
   2.2110000e+01	  -4.5416964e-01	   2.1312193e-01	
   2.2165000e+01	  -4.4531972e-01	   2.1554550e-01	
   2.2220000e+01	  -4.3687059e-01	   2.1788306e-01	
   2.2275000e+01	  -4.2880792e-01	   2.2011926e-01	
   2.2330000e+01	  -4.2111176e-01	   2.2222735e-01	
   2.2385000e+01	  -4.1375702e-01	   2.2417017e-01	
   2.2440000e+01	  -4.0671442e-01	   2.2590244e-01	
   2.2495000e+01	  -3.9995098e-01	   2.2737453e-01	
   2.2550000e+01	  -3.9343020e-01	   2.2853712e-01	
   2.2605000e+01	  -3.8711210e-01	   2.2934575e-01	
   2.2660000e+01	  -3.8095424e-01	   2.2976457e-01	
   2.2715000e+01	  -3.7491417e-01	   2.2976879e-01	
   2.2770000e+01	  -3.6895316e-01	   2.2934541e-01	
   2.2825000e+01	  -3.6303995e-01	   2.2849258e-01	
   2.2880000e+01	  -3.5715341e-01	   2.2721781e-01	
   2.2935000e+01	  -3.5128380e-01	   2.2553532e-01	
   2.2990000e+01	  -3.4543278e-01	   2.2346286e-01	
   2.3045000e+01	  -3.3961227e-01	   2.2101900e-01	
   2.3100000e+01	  -3.3384218e-01	   2.1822127e-01	
   2.3155000e+01	  -3.2814797e-01	   2.1508584e-01	
   2.3210000e+01	  -3.2255755e-01	   2.1162929e-01	
   2.3265000e+01	  -3.1709706e-01	   2.0787336e-01	
   2.3320000e+01	  -3.1178538e-01	   2.0385130e-01	
   2.3375000e+01	  -3.0662941e-01	   1.9961340e-01	
   2.3430000e+01	  -3.0162125e-01	   1.9522984e-01	
   2.3485000e+01	  -2.9673867e-01	   1.9079057e-01	
   2.3540000e+01	  -2.9194902e-01	   1.8640216e-01	
   2.3595000e+01	  -2.8721585e-01	   1.8218238e-01	
   2.3650000e+01	  -2.8250620e-01	   1.7825383e-01	
   2.3705000e+01	  -2.7779627e-01	   1.7473811e-01	
   2.3760000e+01	  -2.7307430e-01	   1.7175098e-01	
   2.3815000e+01	  -2.6834029e-01	   1.6939849e-01	
   2.3870000e+01	  -2.6360266e-01	   1.6777475e-01	
   2.3925000e+01	  -2.5887376e-01	   1.6696118e-01	
   2.3980000e+01	  -2.5416760e-01	   1.6702590e-01	
   2.4035000e+01	  -2.4950069e-01	   1.6802251e-01	
   2.4090000e+01	  -2.4489324e-01	   1.6998849e-01	
   2.4145000e+01	  -2.4036858e-01	   1.7294371e-01	
   2.4200000e+01	  -2.3595077e-01	   1.7688892e-01	
   2.4255000e+01	  -2.3166185e-01	   1.8180349e-01	
   2.4310000e+01	  -2.2751887e-01	   1.8764277e-01	
   2.4365000e+01	  -2.2353096e-01	   1.9433588e-01	
   2.4420000e+01	  -2.1969647e-01	   2.0178498e-01	
   2.4475000e+01	  -2.1600114e-01	   2.0986714e-01	
   2.4530000e+01	  -2.1241749e-01	   2.1843976e-01	
   2.4585000e+01	  -2.0890553e-01	   2.2734944e-01	
   2.4640000e+01	  -2.0541420e-01	   2.3644207e-01	
   2.4695000e+01	  -2.0188350e-01	   2.4557216e-01	
   2.4750000e+01	  -1.9824679e-01	   2.5460986e-01	
   2.4805000e+01	  -1.9443345e-01	   2.6344501e-01	
   2.4860000e+01	  -1.9037258e-01	   2.7198823e-01	
   2.4915000e+01	  -1.8599810e-01	   2.8016925e-01	
   2.4970000e+01	  -1.8125450e-01	   2.8793357e-01	
   2.5025000e+01	  -1.7610188e-01	   2.9523811e-01	
   2.5080000e+01	  -1.7051928e-01	   3.0204651e-01	
   2.5135000e+01	  -1.6450547e-01	   3.0832506e-01	
   2.5190000e+01	  -1.5807653e-01	   3.1404086e-01	
   2.5245000e+01	  -1.5126006e-01	   3.1916262e-01	
   2.5300000e+01	  -1.4408741e-01	   3.2366410e-01	
   2.5355000e+01	  -1.3658654e-01	   3.2752946e-01	
   2.5410000e+01	  -1.2877767e-01	   3.3075951e-01	
   2.5465000e+01	  -1.2067259e-01	   3.3337713e-01	
   2.5520000e+01	  -1.1227665e-01	   3.3543069e-01	
   2.5575000e+01	  -1.0359137e-01	   3.3699446e-01	
   2.5630000e+01	  -9.4616494e-02	   3.3816569e-01	
   2.5685000e+01	  -8.5352702e-02	   3.3905807e-01	
   2.5740000e+01	  -7.5806622e-02	   3.3979175e-01	
   2.5795000e+01	  -6.5997603e-02	   3.4048193e-01	
   2.5850000e+01	  -5.5963754e-02	   3.4122766e-01	
   2.5905000e+01	  -4.5764694e-02	   3.4210281e-01	
   2.5960000e+01	  -3.5479187e-02	   3.4315093e-01	
   2.6015000e+01	  -2.5197236e-02	   3.4438571e-01	
   2.6070000e+01	  -1.5008562e-02	   3.4579658e-01	
   2.6125000e+01	  -4.9911384e-03	   3.4735740e-01	
   2.6180000e+01	   4.7969630e-03	   3.4903550e-01	
   2.6235000e+01	   1.4321161e-02	   3.5079906e-01	
   2.6290000e+01	   2.3569755e-02	   3.5262172e-01	
   2.6345000e+01	   3.2550276e-02	   3.5448454e-01	
   2.6400000e+01	   4.1284257e-02	   3.5637600e-01	
   2.6455000e+01	   4.9801392e-02	   3.5829110e-01	
   2.6510000e+01	   5.8132790e-02	   3.6022917e-01	
   2.6565000e+01	   6.6302865e-02	   3.6218997e-01	
   2.6620000e+01	   7.4321399e-02	   3.6416896e-01	
   2.6675000e+01	   8.2178949e-02	   3.6615384e-01	
   2.6730000e+01	   8.9847361e-02	   3.6812370e-01	
   2.6785000e+01	   9.7284662e-02	   3.7005025e-01	
   2.6840000e+01	   1.0444250e-01	   3.7190070e-01	
   2.6895000e+01	   1.1127388e-01	   3.7364145e-01	
   2.6950000e+01	   1.1773874e-01	   3.7524155e-01	
   2.7005000e+01	   1.2380626e-01	   3.7667483e-01	
   2.7060000e+01	   1.2945508e-01	   3.7792082e-01	
   2.7115000e+01	   1.3467265e-01	   3.7896479e-01	
   2.7170000e+01	   1.3945365e-01	   3.7979709e-01	
   2.7225000e+01	   1.4379747e-01	   3.8041147e-01	
   2.7280000e+01	   1.4770648e-01	   3.8080240e-01	
   2.7335000e+01	   1.5118561e-01	   3.8096195e-01	
   2.7390000e+01	   1.5424236e-01	   3.8087685e-01	
   2.7445000e+01	   1.5688675e-01	   3.8052751e-01	
   2.7500000e+01	   1.5913213e-01	   3.7989027e-01	
   2.7555000e+01	   1.6099661e-01	   3.7894249e-01	
   2.7610000e+01	   1.6250407e-01	   3.7766829e-01	
   2.7665000e+01	   1.6368415e-01	   3.7606333e-01	
   2.7720000e+01	   1.6457171e-01	   3.7413776e-01	
   2.7775000e+01	   1.6520558e-01	   3.7191694e-01	
   2.7830000e+01	   1.6562544e-01	   3.6943937e-01	
   2.7885000e+01	   1.6586750e-01	   3.6675209e-01	
   2.7940000e+01	   1.6596074e-01	   3.6390451e-01	
   2.7995000e+01	   1.6592429e-01	   3.6094129e-01	
   2.8050000e+01	   1.6576527e-01	   3.5789532e-01	
   2.8105000e+01	   1.6547688e-01	   3.5478180e-01	
   2.8160000e+01	   1.6503839e-01	   3.5159537e-01	
   2.8215000e+01	   1.6441825e-01	   3.4831177e-01	
   2.8270000e+01	   1.6358000e-01	   3.4489371e-01	
   2.8325000e+01	   1.6248933e-01	   3.4129930e-01	
   2.8380000e+01	   1.6112032e-01	   3.3749052e-01	
   2.8435000e+01	   1.5945991e-01	   3.3343966e-01	
   2.8490000e+01	   1.5750967e-01	   3.2913247e-01	
   2.8545000e+01	   1.5528476e-01	   3.2456833e-01	
   2.8600000e+01	   1.5281088e-01	   3.1975806e-01	
   2.8655000e+01	   1.5012033e-01	   3.1472037e-01	
   2.8710000e+01	   1.4724814e-01	   3.0947811e-01	
   2.8765000e+01	   1.4422893e-01	   3.0405555e-01	
   2.8820000e+01	   1.4109436e-01	   2.9847759e-01	
   2.8875000e+01	   1.3787104e-01	   2.9276987e-01	
   2.8930000e+01	   1.3457939e-01	   2.8695930e-01	
   2.8985000e+01	   1.3123402e-01	   2.8107491e-01	
   2.9040000e+01	   1.2784550e-01	   2.7514911e-01	
   2.9095000e+01	   1.2442258e-01	   2.6921820e-01	
   2.9150000e+01	   1.2097361e-01	   2.6332131e-01	
   2.9205000e+01	   1.1750651e-01	   2.5749744e-01	
   2.9260000e+01	   1.1402719e-01	   2.5178092e-01	
   2.9315000e+01	   1.1053711e-01	   2.4619586e-01	
   2.9370000e+01	   1.0703136e-01	   2.4075084e-01	
   2.9425000e+01	   1.0349871e-01	   2.3543540e-01	
   2.9480000e+01	   9.9923847e-02	   2.3021892e-01	
   2.9535000e+01	   9.6290719e-02	   2.2505201e-01	
   2.9590000e+01	   9.2585961e-02	   2.1987053e-01	
   2.9645000e+01	   8.8802239e-02	   2.1460231e-01	
   2.9700000e+01	   8.4941326e-02	   2.0917520e-01	
   2.9755000e+01	   8.1015707e-02	   2.0352475e-01	
   2.9810000e+01	   7.7047879e-02	   1.9759967e-01	
   2.9865000e+01	   7.3068308e-02	   1.9136436e-01	
   2.9920000e+01	   6.9113411e-02	   1.8479828e-01	
   2.9975000e+01	   6.5223263e-02	   1.7789249e-01	
   3.0030000e+01	   6.1438213e-02	   1.7064460e-01	
   3.0085000e+01	   5.7795108e-02	   1.6305423e-01	
   3.0140000e+01	   5.4324900e-02	   1.5512042e-01	
   3.0195000e+01	   5.1052825e-02	   1.4684170e-01	
   3.0250000e+01	   4.8001353e-02	   1.3821908e-01	
   3.0305000e+01	   4.5194713e-02	   1.2926093e-01	
   3.0360000e+01	   4.2662289e-02	   1.1998781e-01	
   3.0415000e+01	   4.0438534e-02	   1.1043554e-01	
   3.0470000e+01	   3.8559647e-02	   1.0065640e-01	
   3.0525000e+01	   3.7059210e-02	   9.0719396e-02	
   3.0580000e+01	   3.5964729e-02	   8.0709592e-02	
   3.0635000e+01	   3.5296011e-02	   7.0725762e-02	
   3.0690000e+01	   3.5065990e-02	   6.0876309e-02	
   3.0745000e+01	   3.5283873e-02	   5.1273704e-02	
   3.0800000e+01	   3.5958955e-02	   4.2027488e-02	
   3.0855000e+01	   3.7103244e-02	   3.3236411e-02	
   3.0910000e+01	   3.8732511e-02	   2.4981659e-02	
   3.0965000e+01	   4.0866676e-02	   1.7323297e-02	
   3.1020000e+01	   4.3530141e-02	   1.0300048e-02	
   3.1075000e+01	   4.6751681e-02	   3.9307413e-03	
   3.1130000e+01	   5.0562930e-02	  -1.7836928e-03	
   3.1185000e+01	   5.4994744e-02	  -6.8577107e-03	
   3.1240000e+01	   6.0071243e-02	  -1.1318507e-02	
   3.1295000e+01	   6.5802311e-02	  -1.5203977e-02	
   3.1350000e+01	   7.2176352e-02	  -1.8561420e-02	
   3.1405000e+01	   7.9154913e-02	  -2.1446845e-02	
   3.1460000e+01	   8.6669420e-02	  -2.3925226e-02	
   3.1515000e+01	   9.4620023e-02	  -2.6071827e-02	
   3.1570000e+01	   1.0287727e-01	  -2.7973310e-02	
   3.1625000e+01	   1.1128713e-01	  -2.9726823e-02	
   3.1680000e+01	   1.1967884e-01	  -3.1436268e-02	
   3.1735000e+01	   1.2787547e-01	  -3.3206062e-02	
   3.1790000e+01	   1.3570661e-01	  -3.5133248e-02	
   3.1845000e+01	   1.4302173e-01	  -3.7299515e-02	
   3.1900000e+01	   1.4970176e-01	  -3.9765185e-02	
   3.1955000e+01	   1.5566714e-01	  -4.2566365e-02	
   3.2010000e+01	   1.6088235e-01	  -4.5714765e-02	
   3.2065000e+01	   1.6535698e-01	  -4.9199180e-02	
   3.2120000e+01	   1.6914335e-01	  -5.2988481e-02	
   3.2175000e+01	   1.7233109e-01	  -5.7036268e-02	
   3.2230000e+01	   1.7503973e-01	  -6.1286827e-02	
   3.2285000e+01	   1.7741013e-01	  -6.5681805e-02	
   3.2340000e+01	   1.7959504e-01	  -7.0166919e-02	
   3.2395000e+01	   1.8175000e-01	  -7.4697209e-02	
   3.2450000e+01	   1.8402704e-01	  -7.9238998e-02	
   3.2505000e+01	   1.8657175e-01	  -8.3767970e-02	
   3.2560000e+01	   1.8952234e-01	  -8.8264760e-02	
   3.2615000e+01	   1.9300843e-01	  -9.2710033e-02	
   3.2670000e+01	   1.9714899e-01	  -9.7080168e-02	
   3.2725000e+01	   2.0204941e-01	  -1.0134416e-01	
   3.2780000e+01	   2.0779757e-01	  -1.0546224e-01	
   3.2835000e+01	   2.1445879e-01	  -1.0938618e-01	
   3.2890000e+01	   2.2207078e-01	  -1.1306113e-01	
   3.2945000e+01	   2.3063941e-01	  -1.1642910e-01	
   3.3000000e+01	   2.4013543e-01	  -1.1943495e-01	
   3.3055000e+01	   2.5049276e-01	  -1.2203442e-01	
   3.3110000e+01	   2.6160989e-01	  -1.2420233e-01	
   3.3165000e+01	   2.7335514e-01	  -1.2593849e-01	
   3.3220000e+01	   2.8557476e-01	  -1.2726976e-01	
   3.3275000e+01	   2.9810252e-01	  -1.2824738e-01	
   3.3330000e+01	   3.1076950e-01	  -1.2894074e-01	
   3.3385000e+01	   3.2341287e-01	  -1.2942998e-01	
   3.3440000e+01	   3.3588177e-01	  -1.2979943e-01	
   3.3495000e+01	   3.4804001e-01	  -1.3013206e-01	
   3.3550000e+01	   3.5976643e-01	  -1.3050446e-01	
   3.3605000e+01	   3.7095372e-01	  -1.3098264e-01	
   3.3660000e+01	   3.8150596e-01	  -1.3161996e-01	
   3.3715000e+01	   3.9133490e-01	  -1.3245763e-01	
   3.3770000e+01	   4.0035532e-01	  -1.3352718e-01	
   3.3825000e+01	   4.0848050e-01	  -1.3485353e-01	
   3.3880000e+01	   4.1561910e-01	  -1.3645756e-01	
   3.3935000e+01	   4.2167538e-01	  -1.3835713e-01	
   3.3990000e+01	   4.2655369e-01	  -1.4056626e-01	
   3.4045000e+01	   4.3016629e-01	  -1.4309322e-01	
   3.4100000e+01	   4.3244111e-01	  -1.4593891e-01	
   3.4155000e+01	   4.3332665e-01	  -1.4909628e-01	
   3.4210000e+01	   4.3279354e-01	  -1.5255106e-01	
   3.4265000e+01	   4.3083386e-01	  -1.5628399e-01	
   3.4320000e+01	   4.2745853e-01	  -1.6027460e-01	
   3.4375000e+01	   4.2269313e-01	  -1.6450587e-01	
   3.4430000e+01	   4.1657354e-01	  -1.6896850e-01	
   3.4485000e+01	   4.0914247e-01	  -1.7366419e-01	
   3.4540000e+01	   4.0044774e-01	  -1.7860710e-01	
   3.4595000e+01	   3.9054328e-01	  -1.8382251e-01	
   3.4650000e+01	   3.7949286e-01	  -1.8934237e-01	
   3.4705000e+01	   3.6737507e-01	  -1.9519881e-01	
   3.4760000e+01	   3.5428736e-01	  -2.0141734e-01	
   3.4815000e+01	   3.4034848e-01	  -2.0801058e-01	
   3.4870000e+01	   3.2569987e-01	  -2.1497293e-01	
   3.4925000e+01	   3.1050604e-01	  -2.2227642e-01	
   3.4980000e+01	   2.9495300e-01	  -2.2986851e-01	
   3.5035000e+01	   2.7924409e-01	  -2.3767239e-01	
   3.5090000e+01	   2.6359298e-01	  -2.4558992e-01	
   3.5145000e+01	   2.4821491e-01	  -2.5350668e-01	
   3.5200000e+01	   2.3331750e-01	  -2.6129781e-01	
   3.5255000e+01	   2.1909341e-01	  -2.6883248e-01	
   3.5310000e+01	   2.0571539e-01	  -2.7597673e-01	
   3.5365000e+01	   1.9333353e-01	  -2.8259562e-01	
   3.5420000e+01	   1.8207323e-01	  -2.8855597e-01	
   3.5475000e+01	   1.7203341e-01	  -2.9372948e-01	
   3.5530000e+01	   1.6328486e-01	  -2.9799631e-01	
   3.5585000e+01	   1.5586881e-01	  -3.0124967e-01	
   3.5640000e+01	   1.4979601e-01	  -3.0340129e-01	
   3.5695000e+01	   1.4504682e-01	  -3.0438580e-01	
   3.5750000e+01	   1.4157375e-01	  -3.0416241e-01	
   3.5805000e+01	   1.3930677e-01	  -3.0271393e-01	
   3.5860000e+01	   1.3816090e-01	  -3.0004418e-01	
   3.5915000e+01	   1.3804421e-01	  -2.9617436e-01	
   3.5970000e+01	   1.3886484e-01	  -2.9113868e-01	
   3.6025000e+01	   1.4053584e-01	  -2.8498034e-01	
   3.6080000e+01	   1.4297763e-01	  -2.7774807e-01	
   3.6135000e+01	   1.4611893e-01	  -2.6949306e-01	
   3.6190000e+01	   1.4989651e-01	  -2.6026633e-01	
   3.6245000e+01	   1.5425453e-01	  -2.5011730e-01	
   3.6300000e+01	   1.5914374e-01	  -2.3909351e-01	
   3.6355000e+01	   1.6452136e-01	  -2.2724094e-01	
   3.6410000e+01	   1.7035169e-01	  -2.1460445e-01	
   3.6465000e+01	   1.7660740e-01	  -2.0122799e-01	
   3.6520000e+01	   1.8327165e-01	  -1.8715411e-01	
   3.6575000e+01	   1.9034038e-01	  -1.7242211e-01	
   3.6630000e+01	   1.9782306e-01	  -1.5706603e-01	
   3.6685000e+01	   2.0574105e-01	  -1.4111346e-01	
   3.6740000e+01	   2.1412430e-01	  -1.2458657e-01	
   3.6795000e+01	   2.2300744e-01	  -1.0750533e-01	
   3.6850000e+01	   2.3242474e-01	  -8.9893005e-02	
   3.6905000e+01	   2.4240368e-01	  -7.1782475e-02	
   3.6960000e+01	   2.5295816e-01	  -5.3221755e-02	
   3.7015000e+01	   2.6408382e-01	  -3.4277342e-02	
   3.7070000e+01	   2.7575620e-01	  -1.5035114e-02	
   3.7125000e+01	   2.8793112e-01	   4.4006744e-03	
   3.7180000e+01	   3.0054543e-01	   2.3909955e-02	
   3.7235000e+01	   3.1351866e-01	   4.3360948e-02	
   3.7290000e+01	   3.2675578e-01	   6.2615348e-02	
   3.7345000e+01	   3.4015100e-01	   8.1533388e-02	
   3.7400000e+01	   3.5359154e-01	   9.9977721e-02	
   3.7455000e+01	   3.6696142e-01	   1.1781579e-01	
   3.7510000e+01	   3.8014515e-01	   1.3492105e-01	
   3.7565000e+01	   3.9303165e-01	   1.5117389e-01	
   3.7620000e+01	   4.0551822e-01	   1.6646304e-01	
   3.7675000e+01	   4.1751519e-01	   1.8068865e-01	
   3.7730000e+01	   4.2895041e-01	   1.9376707e-01	
   3.7785000e+01	   4.3977284e-01	   2.0563624e-01	
   3.7840000e+01	   4.4995504e-01	   2.1626043e-01	
   3.7895000e+01	   4.5949485e-01	   2.2563314e-01	
   3.7950000e+01	   4.6841556e-01	   2.3377686e-01	
   3.8005000e+01	   4.7676266e-01	   2.4073903e-01	
   3.8060000e+01	   4.8459747e-01	   2.4658533e-01	
   3.8115000e+01	   4.9198987e-01	   2.5139217e-01	
   3.8170000e+01	   4.9901168e-01	   2.5523952e-01	
   3.8225000e+01	   5.0573036e-01	   2.5820421e-01	
   3.8280000e+01	   5.1220209e-01	   2.6035454e-01	
   3.8335000e+01	   5.1846486e-01	   2.6174740e-01	
   3.8390000e+01	   5.2453311e-01	   2.6242840e-01	
   3.8445000e+01	   5.3039538e-01	   2.6243487e-01	
   3.8500000e+01	   5.3601583e-01	   2.6180140e-01	
   3.8555000e+01	   5.4133932e-01	   2.6056692e-01	
   3.8610000e+01	   5.4629808e-01	   2.5878096e-01	
   3.8665000e+01	   5.5081781e-01	   2.5650629e-01	
   3.8720000e+01	   5.5482146e-01	   2.5381738e-01	
   3.8775000e+01	   5.5823094e-01	   2.5079568e-01	
   3.8830000e+01	   5.6096726e-01	   2.4752317e-01	
   3.8885000e+01	   5.6294950e-01	   2.4407477e-01	
   3.8940000e+01	   5.6409309e-01	   2.4051077e-01	
   3.8995000e+01	   5.6430844e-01	   2.3687044e-01	
   3.9050000e+01	   5.6350049e-01	   2.3316810e-01	
   3.9105000e+01	   5.6157020e-01	   2.2939269e-01	
   3.9160000e+01	   5.5841957e-01	   2.2551206e-01	
   3.9215000e+01	   5.5396075e-01	   2.2148186e-01	
   3.9270000e+01	   5.4812714e-01	   2.1725679e-01	
   3.9325000e+01	   5.4088283e-01	   2.1280073e-01	
   3.9380000e+01	   5.3222826e-01	   2.0809425e-01	
   3.9435000e+01	   5.2220184e-01	   2.0313910e-01	
   3.9490000e+01	   5.1087841e-01	   1.9795985e-01	
   3.9545000e+01	   4.9836527e-01	   1.9260273e-01	
   3.9600000e+01	   4.8479669e-01	   1.8713191e-01	
   3.9655000e+01	   4.7032671e-01	   1.8162411e-01	
   3.9710000e+01	   4.5512025e-01	   1.7616214e-01	
   3.9765000e+01	   4.3934327e-01	   1.7082835e-01	
   3.9820000e+01	   4.2315374e-01	   1.6569861e-01	
   3.9875000e+01	   4.0669539e-01	   1.6083829e-01	
   3.9930000e+01	   3.9009528e-01	   1.5630071e-01	
   3.9985000e+01	   3.7346466e-01	   1.5212769e-01	
   4.0040000e+01	   3.5690208e-01	   1.4835079e-01	
   4.0095000e+01	   3.4049773e-01	   1.4499230e-01	
   4.0150000e+01	   3.2433753e-01	   1.4206494e-01	
   4.0205000e+01	   3.0850531e-01	   1.3957011e-01	
   4.0260000e+01	   2.9308233e-01	   1.3749512e-01	
   4.0315000e+01	   2.7814530e-01	   1.3581069e-01	
   4.0370000e+01	   2.6376339e-01	   1.3446886e-01	
   4.0425000e+01	   2.4999452e-01	   1.3340124e-01	
   4.0480000e+01	   2.3688087e-01	   1.3251794e-01	
   4.0535000e+01	   2.2444425e-01	   1.3170806e-01	
   4.0590000e+01	   2.1268264e-01	   1.3084310e-01	
   4.0645000e+01	   2.0156981e-01	   1.2978425e-01	
   4.0700000e+01	   1.9105844e-01	   1.2839339e-01	
   4.0755000e+01	   1.8108504e-01	   1.2654577e-01	
   4.0810000e+01	   1.7157471e-01	   1.2414175e-01	
   4.0865000e+01	   1.6244529e-01	   1.2111562e-01	
   4.0920000e+01	   1.5361073e-01	   1.1744079e-01	
   4.0975000e+01	   1.4498395e-01	   1.1313094e-01	
   4.1030000e+01	   1.3647883e-01	   1.0823749e-01	
   4.1085000e+01	   1.2801137e-01	   1.0284445e-01	
   4.1140000e+01	   1.1950056e-01	   9.7061989e-02	
   4.1195000e+01	   1.1087007e-01	   9.1020503e-02	
   4.1250000e+01	   1.0205189e-01	   8.4866125e-02	
   4.1305000e+01	   9.2991768e-02	   7.8757709e-02	
   4.1360000e+01	   8.3655508e-02	   7.2864679e-02	
   4.1415000e+01	   7.4034308e-02	   6.7364282e-02	
   4.1470000e+01	   6.4147424e-02	   6.2436535e-02	
   4.1525000e+01	   5.4041272e-02	   5.8256405e-02	
   4.1580000e+01	   4.3785241e-02	   5.4984553e-02	
   4.1635000e+01	   3.3465193e-02	   5.2758336e-02	
   4.1690000e+01	   2.3175591e-02	   5.1683965e-02	
   4.1745000e+01	   1.3011638e-02	   5.1830421e-02	
   4.1800000e+01	   3.0636765e-03	   5.3226282e-02	
   4.1855000e+01	  -6.5847499e-03	   5.5860345e-02	
   4.1910000e+01	  -1.5855862e-02	   5.9685885e-02	
   4.1965000e+01	  -2.4675386e-02	   6.4627792e-02	
   4.2020000e+01	  -3.2970518e-02	   7.0591559e-02	
   4.2075000e+01	  -4.0669128e-02	   7.7472502e-02	
   4.2130000e+01	  -4.7700367e-02	   8.5163478e-02	
   4.2185000e+01	  -5.3995979e-02	   9.3560230e-02	
   4.2240000e+01	  -5.9491783e-02	   1.0256445e-01	
   4.2295000e+01	  -6.4129521e-02	   1.1208485e-01	
   4.2350000e+01	  -6.7859816e-02	   1.2203608e-01	
   4.2405000e+01	  -7.0646861e-02	   1.3233566e-01	
   4.2460000e+01	  -7.2474440e-02	   1.4290002e-01	
   4.2515000e+01	  -7.3351528e-02	   1.5364150e-01	
   4.2570000e+01	  -7.3315625e-02	   1.6446756e-01	
   4.2625000e+01	  -7.2432951e-02	   1.7528209e-01	
   4.2680000e+01	  -7.0795253e-02	   1.8598866e-01	
   4.2735000e+01	  -6.8513435e-02	   1.9649513e-01	
   4.2790000e+01	  -6.5709449e-02	   2.0671886e-01	
   4.2845000e+01	  -6.2509155e-02	   2.1659054e-01	
   4.2900000e+01	  -5.9037771e-02	   2.2605603e-01	
   4.2955000e+01	  -5.5417220e-02	   2.3507636e-01	
   4.3010000e+01	  -5.1764436e-02	   2.4362628e-01	
   4.3065000e+01	  -4.8190937e-02	   2.5169132e-01	
   4.3120000e+01	  -4.4803602e-02	   2.5926374e-01	
   4.3175000e+01	  -4.1705228e-02	   2.6633836e-01	
   4.3230000e+01	  -3.8993675e-02	   2.7290982e-01	
   4.3285000e+01	  -3.6759295e-02	   2.7897194e-01	
   4.3340000e+01	  -3.5080396e-02	   2.8451967e-01	
   4.3395000e+01	  -3.4016922e-02	   2.8955293e-01	
   4.3450000e+01	  -3.3604343e-02	   2.9408055e-01	
   4.3505000e+01	  -3.3850300e-02	   2.9812255e-01	
   4.3560000e+01	  -3.4734759e-02	   3.0171063e-01	
   4.3615000e+01	  -3.6212977e-02	   3.0488698e-01	
   4.3670000e+01	  -3.8221069e-02	   3.0770171e-01	
   4.3725000e+01	  -4.0684005e-02	   3.1020840e-01	
   4.3780000e+01	  -4.3524763e-02	   3.1245853e-01	
   4.3835000e+01	  -4.6672474e-02	   3.1449647e-01	
   4.3890000e+01	  -5.0067776e-02	   3.1635658e-01	
   4.3945000e+01	  -5.3664779e-02	   3.1806271e-01	
   4.4000000e+01	  -5.7430315e-02	   3.1962957e-01	
   4.4055000e+01	  -6.1341506e-02	   3.2106484e-01	
   4.4110000e+01	  -6.5382069e-02	   3.2237144e-01	
   4.4165000e+01	  -6.9537358e-02	   3.2354925e-01	
   4.4220000e+01	  -7.3789065e-02	   3.2459568e-01	
   4.4275000e+01	  -7.8111599e-02	   3.2550469e-01	
   4.4330000e+01	  -8.2471581e-02	   3.2626450e-01	
   4.4385000e+01	  -8.6830071e-02	   3.2685432e-01	
   4.4440000e+01	  -9.1146079e-02	   3.2724097e-01	
   4.4495000e+01	  -9.5380248e-02	   3.2737638e-01	
   4.4550000e+01	  -9.9498562e-02	   3.2719672e-01	
   4.4605000e+01	  -1.0347601e-01	   3.2662369e-01	
   4.4660000e+01	  -1.0729953e-01	   3.2556875e-01	
   4.4715000e+01	  -1.1096949e-01	   3.2394086e-01	
   4.4770000e+01	  -1.1450012e-01	   3.2165608e-01	
   4.4825000e+01	  -1.1791938e-01	   3.1864705e-01	
   4.4880000e+01	  -1.2126770e-01	   3.1487084e-01	
   4.4935000e+01	  -1.2459418e-01	   3.1031526e-01	
   4.4990000e+01	  -1.2795074e-01	   3.0500286e-01	
   4.5045000e+01	  -1.3138653e-01	   2.9899150e-01	
   4.5100000e+01	  -1.3494391e-01	   2.9237133e-01	
   4.5155000e+01	  -1.3865595e-01	   2.8525906e-01	
   4.5210000e+01	  -1.4254476e-01	   2.7779081e-01	
   4.5265000e+01	  -1.4662009e-01	   2.7011427e-01	
   4.5320000e+01	  -1.5087746e-01	   2.6238199e-01	
   4.5375000e+01	  -1.5529572e-01	   2.5474648e-01	
   4.5430000e+01	  -1.5983501e-01	   2.4735658e-01	
   4.5485000e+01	  -1.6443723e-01	   2.4035341e-01	
   4.5540000e+01	  -1.6902888e-01	   2.3386552e-01	
   4.5595000e+01	  -1.7352466e-01	   2.2800475e-01	
   4.5650000e+01	  -1.7783111e-01	   2.2286322e-01	
   4.5705000e+01	  -1.8185082e-01	   2.1851132e-01	
   4.5760000e+01	  -1.8548747e-01	   2.1499638e-01	
   4.5815000e+01	  -1.8865127e-01	   2.1234229e-01	
   4.5870000e+01	  -1.9126421e-01	   2.1054988e-01	
   4.5925000e+01	  -1.9326442e-01	   2.0959792e-01	
   4.5980000e+01	  -1.9460783e-01	   2.0944549e-01	
   4.6035000e+01	  -1.9526594e-01	   2.1003642e-01	
   4.6090000e+01	  -1.9522124e-01	   2.1130490e-01	
   4.6145000e+01	  -1.9446257e-01	   2.1318047e-01	
   4.6200000e+01	  -1.9298192e-01	   2.1559090e-01	
   4.6255000e+01	  -1.9077288e-01	   2.1846300e-01	
   4.6310000e+01	  -1.8783080e-01	   2.2172126e-01	
   4.6365000e+01	  -1.8415453e-01	   2.2528534e-01	
   4.6420000e+01	  -1.7974886e-01	   2.2906780e-01	
   4.6475000e+01	  -1.7462702e-01	   2.3297330e-01	
   4.6530000e+01	  -1.6881328e-01	   2.3689917e-01	
   4.6585000e+01	  -1.6234478e-01	   2.4073691e-01	
   4.6640000e+01	  -1.5527149e-01	   2.4437539e-01	
   4.6695000e+01	  -1.4765321e-01	   2.4770654e-01	
   4.6750000e+01	  -1.3955411e-01	   2.5063297e-01	
   4.6805000e+01	  -1.3103645e-01	   2.5307504e-01	
   4.6860000e+01	  -1.2215492e-01	   2.5497556e-01	
   4.6915000e+01	  -1.1295179e-01	   2.5630203e-01	
   4.6970000e+01	  -1.0345411e-01	   2.5704641e-01	
   4.7025000e+01	  -9.3674697e-02	   2.5722178e-01	
   4.7080000e+01	  -8.3618009e-02	   2.5685618e-01	
   4.7135000e+01	  -7.3288511e-02	   2.5598536e-01	
   4.7190000e+01	  -6.2698693e-02	   2.5464673e-01	
   4.7245000e+01	  -5.1874762e-02	   2.5287540e-01	
   4.7300000e+01	  -4.0859322e-02	   2.5070280e-01	
   4.7355000e+01	  -2.9710591e-02	   2.4815894e-01	
   4.7410000e+01	  -1.8498005e-02	   2.4527805e-01	
   4.7465000e+01	  -7.2950655e-03	   2.4210579e-01	
   4.7520000e+01	   3.8287666e-03	   2.3870445e-01	
   4.7575000e+01	   1.4815133e-02	   2.3515459e-01	
   4.7630000e+01	   2.5621285e-02	   2.3155298e-01	
   4.7685000e+01	   3.6221147e-02	   2.2800730e-01	
   4.7740000e+01	   4.6602995e-02	   2.2462856e-01	
   4.7795000e+01	   5.6764746e-02	   2.2152227e-01	
   4.7850000e+01	   6.6708207e-02	   2.1877932e-01	
   4.7905000e+01	   7.6433286e-02	   2.1646734e-01	
   4.7960000e+01	   8.5932745e-02	   2.1462365e-01	
   4.8015000e+01	   9.5188085e-02	   2.1325167e-01	
   4.8070000e+01	   1.0416715e-01	   2.1232128e-01	
   4.8125000e+01	   1.1282383e-01	   2.1177265e-01	
   4.8180000e+01	   1.2110025e-01	   2.1152241e-01	
   4.8235000e+01	   1.2893153e-01	   2.1147120e-01	
   4.8290000e+01	   1.3625210e-01	   2.1151164e-01	
   4.8345000e+01	   1.4300183e-01	   2.1153558e-01	
   4.8400000e+01	   1.4913112e-01	   2.1144003e-01	
   4.8455000e+01	   1.5460491e-01	   2.1113199e-01	
   4.8510000e+01	   1.5940541e-01	   2.1053169e-01	
   4.8565000e+01	   1.6353284e-01	   2.0957374e-01	
   4.8620000e+01	   1.6700399e-01	   2.0820607e-01	
   4.8675000e+01	   1.6984930e-01	   2.0638712e-01	
   4.8730000e+01	   1.7210902e-01	   2.0408228e-01	
   4.8785000e+01	   1.7382875e-01	   2.0125994e-01	
   4.8840000e+01	   1.7505525e-01	   1.9788844e-01	
   4.8895000e+01	   1.7583333e-01	   1.9393561e-01	
   4.8950000e+01	   1.7620421e-01	   1.8937177e-01	
   4.9005000e+01	   1.7620483e-01	   1.8417484e-01	
   4.9060000e+01	   1.7586728e-01	   1.7833524e-01	
   4.9115000e+01	   1.7521826e-01	   1.7185890e-01	
   4.9170000e+01	   1.7427874e-01	   1.6476766e-01	
   4.9225000e+01	   1.7306358e-01	   1.5709692e-01	
   4.9280000e+01	   1.7158065e-01	   1.4889110e-01	
   4.9335000e+01	   1.6982946e-01	   1.4019822e-01	
   4.9390000e+01	   1.6779984e-01	   1.3106529e-01	
   4.9445000e+01	   1.6547066e-01	   1.2153460e-01	
   4.9500000e+01	   1.6280924e-01	   1.1164128e-01	
   4.9555000e+01	   1.5977266e-01	   1.0141280e-01	
   4.9610000e+01	   1.5631154e-01	   9.0871147e-02	
   4.9665000e+01	   1.5237535e-01	   8.0037525e-02	
   4.9720000e+01	   1.4791848e-01	   6.8937799e-02	
   4.9775000e+01	   1.4290686e-01	   5.7607200e-02	
   4.9830000e+01	   1.3732407e-01	   4.6092735e-02	
   4.9885000e+01	   1.3117494e-01	   3.4452535e-02	
   4.9940000e+01	   1.2448517e-01	   2.2752800e-02	
   4.9995000e+01	   1.1729795e-01	   1.1064003e-02	
   5.0050000e+01	   1.0966897e-01	  -5.4256447e-04	
   5.0105000e+01	   1.0166107e-01	  -1.1997897e-02	
   5.0160000e+01	   9.3340137e-02	  -2.3238067e-02	
   5.0215000e+01	   8.4773769e-02	  -3.4205871e-02	
   5.0270000e+01	   7.6033911e-02	  -4.4850166e-02	
   5.0325000e+01	   6.7202917e-02	  -5.5122702e-02	
   5.0380000e+01	   5.8381088e-02	  -6.4973548e-02	
   5.0435000e+01	   4.9693288e-02	  -7.4346867e-02	
   5.0490000e+01	   4.1292702e-02	  -8.3178306e-02	
   5.0545000e+01	   3.3360478e-02	  -9.1394694e-02	
   5.0600000e+01	   2.6100620e-02	  -9.8916424e-02	
   5.0655000e+01	   1.9730515e-02	  -1.0566227e-01	
   5.0710000e+01	   1.4468398e-02	  -1.1155575e-01	
   5.0765000e+01	   1.0518929e-02	  -1.1653228e-01	
   5.0820000e+01	   8.0572315e-03	  -1.2054685e-01	
   5.0875000e+01	   7.2127563e-03	  -1.2358097e-01	
   5.0930000e+01	   8.0565963e-03	  -1.2564635e-01	
   5.0985000e+01	   1.0596194e-02	  -1.2678331e-01	
   5.1040000e+01	   1.4778553e-02	  -1.2705417e-01	
   5.1095000e+01	   2.0500010e-02	  -1.2653346e-01	
   5.1150000e+01	   2.7619706e-02	  -1.2529778e-01	
   5.1205000e+01	   3.5974108e-02	  -1.2341788e-01	
   5.1260000e+01	   4.5390310e-02	  -1.2095449e-01	
   5.1315000e+01	   5.5696700e-02	  -1.1795796e-01	
   5.1370000e+01	   6.6730459e-02	  -1.1447029e-01	
   5.1425000e+01	   7.8341580e-02	  -1.1052893e-01	
   5.1480000e+01	   9.0393556e-02	  -1.0617122e-01	
   5.1535000e+01	   1.0276224e-01	  -1.0143828e-01	
   5.1590000e+01	   1.1533486e-01	  -9.6377043e-02	
   5.1645000e+01	   1.2801012e-01	  -9.1040151e-02	
   5.1700000e+01	   1.4069875e-01	  -8.5484013e-02	
   5.1755000e+01	   1.5332379e-01	  -7.9765605e-02	
   5.1810000e+01	   1.6582047e-01	  -7.3938555e-02	
   5.1865000e+01	   1.7813534e-01	  -6.8049588e-02	
   5.1920000e+01	   1.9022423e-01	  -6.2136650e-02	
   5.1975000e+01	   2.0204994e-01	  -5.6229440e-02	
   5.2030000e+01	   2.1358105e-01	  -5.0351991e-02	
   5.2085000e+01	   2.2479257e-01	  -4.4526412e-02	
   5.2140000e+01	   2.3566743e-01	  -3.8776773e-02	
   5.2195000e+01	   2.4619783e-01	  -3.3131878e-02	
   5.2250000e+01	   2.5638589e-01	  -2.7625621e-02	
   5.2305000e+01	   2.6624395e-01	  -2.2294525e-02	
   5.2360000e+01	   2.7579522e-01	  -1.7173241e-02	
   5.2415000e+01	   2.8507511e-01	  -1.2289063e-02	
   5.2470000e+01	   2.9413316e-01	  -7.6563448e-03	
   5.2525000e+01	   3.0303366e-01	  -3.2721511e-03	
   5.2580000e+01	   3.1185348e-01	   8.8520026e-04	
   5.2635000e+01	   3.2067699e-01	   4.8540820e-03	
   5.2690000e+01	   3.2958952e-01	   8.6848028e-03	
   5.2745000e+01	   3.3866946e-01	   1.2433297e-02	
   5.2800000e+01	   3.4797950e-01	   1.6154147e-02	
   5.2855000e+01	   3.5755778e-01	   1.9894006e-02	
   5.2910000e+01	   3.6741026e-01	   2.3686467e-02	
   5.2965000e+01	   3.7750576e-01	   2.7548836e-02	
   5.3020000e+01	   3.8777525e-01	   3.1480886e-02	
   5.3075000e+01	   3.9811660e-01	   3.5465701e-02	
   5.3130000e+01	   4.0840333e-01	   3.9472373e-02	
   5.3185000e+01	   4.1849512e-01	   4.3459758e-02	
   5.3240000e+01	   4.2824808e-01	   4.7380420e-02	
   5.3295000e+01	   4.3752407e-01	   5.1184619e-02	
   5.3350000e+01	   4.4619850e-01	   5.4824357e-02	
   5.3405000e+01	   4.5416602e-01	   5.8256665e-02	
   5.3460000e+01	   4.6134309e-01	   6.1444792e-02	
   5.3515000e+01	   4.6766748e-01	   6.4357210e-02	
   5.3570000e+01	   4.7309631e-01	   6.6965896e-02	
   5.3625000e+01	   4.7760371e-01	   6.9245044e-02	
   5.3680000e+01	   4.8117864e-01	   7.1170437e-02	
   5.3735000e+01	   4.8382321e-01	   7.2719893e-02	
   5.3790000e+01	   4.8555234e-01	   7.3875515e-02	
   5.3845000e+01	   4.8639449e-01	   7.4627178e-02	
   5.3900000e+01	   4.8639246e-01	   7.4975460e-02	
   5.3955000e+01	   4.8560334e-01	   7.4933140e-02	
   5.4010000e+01	   4.8409811e-01	   7.4525521e-02	
   5.4065000e+01	   4.8196057e-01	   7.3789360e-02	
   5.4120000e+01	   4.7928476e-01	   7.2769652e-02	
   5.4175000e+01	   4.7617063e-01	   7.1514616e-02	
   5.4230000e+01	   4.7271897e-01	   7.0070681e-02	
   5.4285000e+01	   4.6902732e-01	   6.8479176e-02	
   5.4340000e+01	   4.6518729e-01	   6.6775302e-02	
   5.4395000e+01	   4.6128364e-01	   6.4989185e-02	
   5.4450000e+01	   4.5739524e-01	   6.3148292e-02	
   5.4505000e+01	   4.5359802e-01	   6.1279939e-02	
   5.4560000e+01	   4.4996860e-01	   5.9412622e-02	
   5.4615000e+01	   4.4658734e-01	   5.7575973e-02	
   5.4670000e+01	   4.4353971e-01	   5.5800101e-02	
   5.4725000e+01	   4.4091527e-01	   5.4114675e-02	
   5.4780000e+01	   4.3880433e-01	   5.2547186e-02	
   5.4835000e+01	   4.3729242e-01	   5.1120199e-02	
   5.4890000e+01	   4.3645417e-01	   4.9848425e-02	
   5.4945000e+01	   4.3634798e-01	   4.8736545e-02	
   5.5000000e+01	   4.3701256e-01	   4.7778473e-02	
   5.5055000e+01	   4.3846559e-01	   4.6958871e-02	
   5.5110000e+01	   4.4070461e-01	   4.6257477e-02	
   5.5165000e+01	   4.4370942e-01	   4.5655338e-02	
   5.5220000e+01	   4.4744461e-01	   4.5140719e-02	
   5.5275000e+01	   4.5186111e-01	   4.4712757e-02	
   5.5330000e+01	   4.5689688e-01	   4.4382530e-02	
   5.5385000e+01	   4.6247737e-01	   4.4172124e-02	
   5.5440000e+01	   4.6851650e-01	   4.4112081e-02	
   5.5495000e+01	   4.7491799e-01	   4.4237375e-02	
   5.5550000e+01	   4.8157702e-01	   4.4582674e-02	
   5.5605000e+01	   4.8838276e-01	   4.5178442e-02	
   5.5660000e+01	   4.9522265e-01	   4.6049130e-02	
   5.5715000e+01	   5.0198810e-01	   4.7213369e-02	
   5.5770000e+01	   5.0858089e-01	   4.8685353e-02	
   5.5825000e+01	   5.1491891e-01	   5.0476486e-02	
   5.5880000e+01	   5.2094093e-01	   5.2596484e-02	
   5.5935000e+01	   5.2660987e-01	   5.5053449e-02	
   5.5990000e+01	   5.3191406e-01	   5.7852761e-02	
   5.6045000e+01	   5.3686555e-01	   6.0994363e-02	
   5.6100000e+01	   5.4149501e-01	   6.4468037e-02	
   5.6155000e+01	   5.4584495e-01	   6.8247622e-02	
   5.6210000e+01	   5.4996331e-01	   7.2286299e-02	
   5.6265000e+01	   5.5389851e-01	   7.6514571e-02	
   5.6320000e+01	   5.5769485e-01	   8.0841268e-02	
   5.6375000e+01	   5.6138787e-01	   8.5157469e-02	
   5.6430000e+01	   5.6500108e-01	   8.9343016e-02	
   5.6485000e+01	   5.6854493e-01	   9.3274266e-02	
   5.6540000e+01	   5.7201744e-01	   9.6830985e-02	
   5.6595000e+01	   5.7540497e-01	   9.9901203e-02	
   5.6650000e+01	   5.7868251e-01	   1.0238453e-01	
   5.6705000e+01	   5.8181413e-01	   1.0419461e-01	
   5.6760000e+01	   5.8475337e-01	   1.0526053e-01	
   5.6815000e+01	   5.8744196e-01	   1.0552663e-01	
   5.6870000e+01	   5.8980683e-01	   1.0495181e-01	
   5.6925000e+01	   5.9175732e-01	   1.0350940e-01	
   5.6980000e+01	   5.9318446e-01	   1.0118730e-01	
   5.7035000e+01	   5.9396275e-01	   9.7987860e-02	
   5.7090000e+01	   5.9395570e-01	   9.3928015e-02	
   5.7145000e+01	   5.9302511e-01	   8.9041055e-02	
   5.7200000e+01	   5.9104288e-01	   8.3379201e-02	
   5.7255000e+01	   5.8790226e-01	   7.7015292e-02	
   5.7310000e+01	   5.8352636e-01	   7.0042329e-02	
   5.7365000e+01	   5.7787248e-01	   6.2570493e-02	
   5.7420000e+01	   5.7093158e-01	   5.4721626e-02	
   5.7475000e+01	   5.6272321e-01	   4.6621755e-02	
   5.7530000e+01	   5.5328726e-01	   3.8392798e-02	
   5.7585000e+01	   5.4267557e-01	   3.0144820e-02	
   5.7640000e+01	   5.3094486e-01	   2.1969873e-02	
   5.7695000e+01	   5.1815167e-01	   1.3938150e-02	
   5.7750000e+01	   5.0434992e-01	   6.0971963e-03	
   5.7805000e+01	   4.8959177e-01	  -1.5252753e-03	
   5.7860000e+01	   4.7393063e-01	  -8.9155051e-03	
   5.7915000e+01	   4.5742432e-01	  -1.6066572e-02	
   5.7970000e+01	   4.4013723e-01	  -2.2972143e-02	
   5.8025000e+01	   4.2214148e-01	  -2.9622500e-02	
   5.8080000e+01	   4.0351670e-01	  -3.6003451e-02	
   5.8135000e+01	   3.8434829e-01	  -4.2098081e-02	
   5.8190000e+01	   3.6472456e-01	  -4.7890293e-02	
   5.8245000e+01	   3.4473452e-01	  -5.3368097e-02	
   5.8300000e+01	   3.2446685e-01	  -5.8525180e-02	
   5.8355000e+01	   3.0400997e-01	  -6.3360892e-02	
   5.8410000e+01	   2.8345252e-01	  -6.7879546e-02	
   5.8465000e+01	   2.6288477e-01	  -7.2089338e-02	
   5.8520000e+01	   2.4240012e-01	  -7.6001115e-02	
   5.8575000e+01	   2.2209553e-01	  -7.9627839e-02	
   5.8630000e+01	   2.0206971e-01	  -8.2985369e-02	
   5.8685000e+01	   1.8241975e-01	  -8.6094258e-02	
   5.8740000e+01	   1.6323682e-01	  -8.8981941e-02	
   5.8795000e+01	   1.4460176e-01	  -9.1684773e-02	
   5.8850000e+01	   1.2658058e-01	  -9.4249103e-02	
   5.8905000e+01	   1.0922135e-01	  -9.6730614e-02	
   5.8960000e+01	   9.2553631e-02	  -9.9191728e-02	
   5.9015000e+01	   7.6591287e-02	  -1.0169711e-01	
   5.9070000e+01	   6.1337770e-02	  -1.0430731e-01	
   5.9125000e+01	   4.6792168e-02	  -1.0707122e-01	
   5.9180000e+01	   3.2954299e-02	  -1.1001968e-01	
   5.9235000e+01	   1.9827805e-02	  -1.1316179e-01	
   5.9290000e+01	   7.4211715e-03	  -1.1648501e-01	
   5.9345000e+01	  -4.2529785e-03	  -1.1995810e-01	
   5.9400000e+01	  -1.5180212e-02	  -1.2353603e-01	
   5.9455000e+01	  -2.5348446e-02	  -1.2716658e-01	
   5.9510000e+01	  -3.4753673e-02	  -1.3079776e-01	
   5.9565000e+01	  -4.3405585e-02	  -1.3438432e-01	
   5.9620000e+01	  -5.1330456e-02	  -1.3789147e-01	
   5.9675000e+01	  -5.8569667e-02	  -1.4129491e-01	
   5.9730000e+01	  -6.5174587e-02	  -1.4457766e-01	
   5.9785000e+01	  -7.1200037e-02	  -1.4772534e-01	
   5.9840000e+01	  -7.6698835e-02	  -1.5072175e-01	
   5.9895000e+01	  -8.1719167e-02	  -1.5354646e-01	
   5.9950000e+01	  -8.6304859e-02	  -1.5617485e-01	
   6.0005000e+01	  -9.0497036e-02	  -1.5857953e-01	
   6.0060000e+01	  -9.4335591e-02	  -1.6073232e-01	
   6.0115000e+01	  -9.7859826e-02	  -1.6260706e-01	
   6.0170000e+01	  -1.0110839e-01	  -1.6418358e-01	
   6.0225000e+01	  -1.0411891e-01	  -1.6545258e-01	
   6.0280000e+01	  -1.0692768e-01	  -1.6642000e-01	
   6.0335000e+01	  -1.0956963e-01	  -1.6710953e-01	
   6.0390000e+01	  -1.1207816e-01	  -1.6756163e-01	
   6.0445000e+01	  -1.1448351e-01	  -1.6782814e-01	
   6.0500000e+01	  -1.1680955e-01	  -1.6796425e-01	
   6.0555000e+01	  -1.1907034e-01	  -1.6802087e-01	
   6.0610000e+01	  -1.2126793e-01	  -1.6803987e-01	
   6.0665000e+01	  -1.2339161e-01	  -1.6805204e-01	
   6.0720000e+01	  -1.2541850e-01	  -1.6807710e-01	
   6.0775000e+01	  -1.2731551e-01	  -1.6812514e-01	
   6.0830000e+01	  -1.2904299e-01	  -1.6819941e-01	
   6.0885000e+01	  -1.3055980e-01	  -1.6830009e-01	
   6.0940000e+01	  -1.3182884e-01	  -1.6842842e-01	
   6.0995000e+01	  -1.3282153e-01	  -1.6859067e-01	
   6.1050000e+01	  -1.3352049e-01	  -1.6880027e-01	
   6.1105000e+01	  -1.3391990e-01	  -1.6907680e-01	
   6.1160000e+01	  -1.3402353e-01	  -1.6944137e-01	
   6.1215000e+01	  -1.3384141e-01	  -1.6991059e-01	
   6.1270000e+01	  -1.3338666e-01	  -1.7049149e-01	
   6.1325000e+01	  -1.3267367e-01	  -1.7117874e-01	
   6.1380000e+01	  -1.3171832e-01	  -1.7195441e-01	
   6.1435000e+01	  -1.3053967e-01	  -1.7278985e-01	
   6.1490000e+01	  -1.2916252e-01	  -1.7364921e-01	
   6.1545000e+01	  -1.2761998e-01	  -1.7449415e-01	
   6.1600000e+01	  -1.2595554e-01	  -1.7528935e-01	
   6.1655000e+01	  -1.2422454e-01	  -1.7600812e-01	
   6.1710000e+01	  -1.2249464e-01	  -1.7663658e-01	
   6.1765000e+01	  -1.2084420e-01	  -1.7717431e-01	
   6.1820000e+01	  -1.1935677e-01	  -1.7763125e-01	
   6.1875000e+01	  -1.1811290e-01	  -1.7802216e-01	
   6.1930000e+01	  -1.1718189e-01	  -1.7836087e-01	
   6.1985000e+01	  -1.1661552e-01	  -1.7865553e-01	
   6.2040000e+01	  -1.1644376e-01	  -1.7890503e-01	
   6.2095000e+01	  -1.1667214e-01	  -1.7909758e-01	
   6.2150000e+01	  -1.1728132e-01	  -1.7921182e-01	
   6.2205000e+01	  -1.1822914e-01	  -1.7922017e-01	
   6.2260000e+01	  -1.1945357e-01	  -1.7909265e-01	
   6.2315000e+01	  -1.2087462e-01	  -1.7879981e-01	
   6.2370000e+01	  -1.2239430e-01	  -1.7831398e-01	
   6.2425000e+01	  -1.2389558e-01	  -1.7760870e-01	
   6.2480000e+01	  -1.2524186e-01	  -1.7665767e-01	
   6.2535000e+01	  -1.2627849e-01	  -1.7543495e-01	
   6.2590000e+01	  -1.2683653e-01	  -1.7391707e-01	
   6.2645000e+01	  -1.2673785e-01	  -1.7208570e-01	
   6.2700000e+01	  -1.2580014e-01	  -1.6992969e-01	
   6.2755000e+01	  -1.2384278e-01	  -1.6744677e-01	
   6.2810000e+01	  -1.2069561e-01	  -1.6464600e-01	
   6.2865000e+01	  -1.1621062e-01	  -1.6155032e-01	
   6.2920000e+01	  -1.1027382e-01	  -1.5819838e-01	
   6.2975000e+01	  -1.0281400e-01	  -1.5464499e-01	
   6.3030000e+01	  -9.3806873e-02	  -1.5095928e-01	
   6.3085000e+01	  -8.3274937e-02	  -1.4721979e-01	
   6.3140000e+01	  -7.1284444e-02	  -1.4350704e-01	
   6.3195000e+01	  -5.7940715e-02	  -1.3989625e-01	
   6.3250000e+01	  -4.3382954e-02	  -1.3645281e-01	
   6.3305000e+01	  -2.7779277e-02	  -1.3323123e-01	
   6.3360000e+01	  -1.1322280e-02	  -1.3027656e-01	
   6.3415000e+01	   5.7750667e-03	  -1.2762767e-01	
   6.3470000e+01	   2.3283601e-02	  -1.2532130e-01	
   6.3525000e+01	   4.0962824e-02	  -1.2339561e-01	
   6.3580000e+01	   5.8567216e-02	  -1.2189163e-01	
   6.3635000e+01	   7.5854237e-02	  -1.2085224e-01	
   6.3690000e+01	   9.2593062e-02	  -1.2031899e-01	
   6.3745000e+01	   1.0857315e-01	  -1.2032783e-01	
   6.3800000e+01	   1.2361243e-01	  -1.2090484e-01	
   6.3855000e+01	   1.3756417e-01	  -1.2206326e-01	
   6.3910000e+01	   1.5032111e-01	  -1.2380315e-01	
   6.3965000e+01	   1.6181662e-01	  -1.2611304e-01	
   6.4020000e+01	   1.7202412e-01	  -1.2897194e-01	
   6.4075000e+01	   1.8095495e-01	  -1.3235057e-01	
   6.4130000e+01	   1.8865345e-01	  -1.3621285e-01	
   6.4185000e+01	   1.9518934e-01	  -1.4051858e-01	
   6.4240000e+01	   2.0064906e-01	  -1.4522708e-01	
   6.4295000e+01	   2.0512803e-01	  -1.5030093e-01	
   6.4350000e+01	   2.0872391e-01	  -1.5570906e-01	
   6.4405000e+01	   2.1153098e-01	  -1.6142813e-01	
   6.4460000e+01	   2.1363643e-01	  -1.6744075e-01	
   6.4515000e+01	   2.1511926e-01	  -1.7373066e-01	
   6.4570000e+01	   2.1605074e-01	  -1.8027685e-01	
   6.4625000e+01	   2.1649468e-01	  -1.8704920e-01	
   6.4680000e+01	   2.1650745e-01	  -1.9400642e-01	
   6.4735000e+01	   2.1613737e-01	  -2.0109671e-01	
   6.4790000e+01	   2.1542290e-01	  -2.0826104e-01	
   6.4845000e+01	   2.1438947e-01	  -2.1543827e-01	
   6.4900000e+01	   2.1304562e-01	  -2.2257018e-01	
   6.4955000e+01	   2.1137953e-01	  -2.2960574e-01	
   6.5010000e+01	   2.0935642e-01	  -2.3650415e-01	
   6.5065000e+01	   2.0691857e-01	  -2.4323660e-01	
   6.5120000e+01	   2.0398926e-01	  -2.4978580e-01	
   6.5175000e+01	   2.0048106e-01	  -2.5614342e-01	
   6.5230000e+01	   1.9630663e-01	  -2.6230605e-01	
   6.5285000e+01	   1.9138986e-01	  -2.6827073e-01	
   6.5340000e+01	   1.8567585e-01	  -2.7403068e-01	
   6.5395000e+01	   1.7913866e-01	  -2.7957226e-01	
   6.5450000e+01	   1.7178536e-01	  -2.8487388e-01	
   6.5505000e+01	   1.6365573e-01	  -2.8990754e-01	
   6.5560000e+01	   1.5481811e-01	  -2.9464233e-01	
   6.5615000e+01	   1.4536242e-01	  -2.9904869e-01	
   6.5670000e+01	   1.3539126e-01	  -3.0310247e-01	
   6.5725000e+01	   1.2501079e-01	  -3.0678768e-01	
   6.5780000e+01	   1.1432317e-01	  -3.1009734e-01	
   6.5835000e+01	   1.0342245e-01	  -3.1303257e-01	
   6.5890000e+01	   9.2393656e-02	  -3.1560100e-01	
   6.5945000e+01	   8.1313641e-02	  -3.1781557e-01	
   6.6000000e+01	   7.0252830e-02	  -3.1969356e-01	
   6.6055000e+01	   5.9277596e-02	  -3.2125538e-01	
   6.6110000e+01	   4.8452243e-02	  -3.2252360e-01	
   6.6165000e+01	   3.7839229e-02	  -3.2352294e-01	
   6.6220000e+01	   2.7497063e-02	  -3.2428122e-01	
   6.6275000e+01	   1.7476226e-02	  -3.2483101e-01	
   6.6330000e+01	   7.8140014e-03	  -3.2521180e-01	
   6.6385000e+01	  -1.4701042e-03	  -3.2547232e-01	
   6.6440000e+01	  -1.0375992e-02	  -3.2567088e-01	
   6.6495000e+01	  -1.8920116e-02	  -3.2587191e-01	
   6.6550000e+01	  -2.7128793e-02	  -3.2613861e-01	
   6.6605000e+01	  -3.5029846e-02	  -3.2652423e-01	
   6.6660000e+01	  -4.2644547e-02	  -3.2706419e-01	
   6.6715000e+01	  -4.9981168e-02	  -3.2777103e-01	
   6.6770000e+01	  -5.7031162e-02	  -3.2863322e-01	
   6.6825000e+01	  -6.3768733e-02	  -3.2961772e-01	
   6.6880000e+01	  -7.0154245e-02	  -3.3067587e-01	
   6.6935000e+01	  -7.6141573e-02	  -3.3175135e-01	
   6.6990000e+01	  -8.1688561e-02	  -3.3278945e-01	
   6.7045000e+01	  -8.6768286e-02	  -3.3374571e-01	
   6.7100000e+01	  -9.1377750e-02	  -3.3459253e-01	
   6.7155000e+01	  -9.5541000e-02	  -3.3532213e-01	
   6.7210000e+01	  -9.9305887e-02	  -3.3594548e-01	
   6.7265000e+01	  -1.0273671e-01	  -3.3648759e-01	
   6.7320000e+01	  -1.0590601e-01	  -3.3698038e-01	
   6.7375000e+01	  -1.0888709e-01	  -3.3745464e-01	
   6.7430000e+01	  -1.1174775e-01	  -3.3793340e-01	
   6.7485000e+01	  -1.1454552e-01	  -3.3842787e-01	
   6.7540000e+01	  -1.1732627e-01	  -3.3893699e-01	
   6.7595000e+01	  -1.2012674e-01	  -3.3944987e-01	
   6.7650000e+01	  -1.2297907e-01	  -3.3995011e-01	
   6.7705000e+01	  -1.2591516e-01	  -3.4042033e-01	
   6.7760000e+01	  -1.2896958e-01	  -3.4084584e-01	
   6.7815000e+01	  -1.3218054e-01	  -3.4121646e-01	
   6.7870000e+01	  -1.3558816e-01	  -3.4152637e-01	
   6.7925000e+01	  -1.3922972e-01	  -3.4177145e-01	
   6.7980000e+01	  -1.4313295e-01	  -3.4194498e-01	
   6.8035000e+01	  -1.4730923e-01	  -3.4203325e-01	
   6.8090000e+01	  -1.5174898e-01	  -3.4201282e-01	
   6.8145000e+01	  -1.5642047e-01	  -3.4185013e-01	
   6.8200000e+01	  -1.6127180e-01	  -3.4150315e-01	
   6.8255000e+01	  -1.6623503e-01	  -3.4092480e-01	
   6.8310000e+01	  -1.7123184e-01	  -3.4006762e-01	
   6.8365000e+01	  -1.7617958e-01	  -3.3888946e-01	
   6.8420000e+01	  -1.8099673e-01	  -3.3735877e-01	
   6.8475000e+01	  -1.8560709e-01	  -3.3545825e-01	
   6.8530000e+01	  -1.8994286e-01	  -3.3318591e-01	
   6.8585000e+01	  -1.9394701e-01	  -3.3055320e-01	
   6.8640000e+01	  -1.9757480e-01	  -3.2758069e-01	
   6.8695000e+01	  -2.0079338e-01	  -3.2429236e-01	
   6.8750000e+01	  -2.0357903e-01	  -3.2071045e-01	
   6.8805000e+01	  -2.0591312e-01	  -3.1685214e-01	
   6.8860000e+01	  -2.0777824e-01	  -3.1272832e-01	
   6.8915000e+01	  -2.0915634e-01	  -3.0834392e-01	
   6.8970000e+01	  -2.1003043e-01	  -3.0370027e-01	
   6.9025000e+01	  -2.1038958e-01	  -2.9879991e-01	
   6.9080000e+01	  -2.1023486e-01	  -2.9365237e-01	
   6.9135000e+01	  -2.0958334e-01	  -2.8827837e-01	
   6.9190000e+01	  -2.0846861e-01	  -2.8271099e-01	
   6.9245000e+01	  -2.0693795e-01	  -2.7699413e-01	
   6.9300000e+01	  -2.0504789e-01	  -2.7117910e-01	
   6.9355000e+01	  -2.0285964e-01	  -2.6531997e-01	
   6.9410000e+01	  -2.0043463e-01	  -2.5946804e-01	
   6.9465000e+01	  -1.9783093e-01	  -2.5366698e-01	
   6.9520000e+01	  -1.9510049e-01	  -2.4794944e-01	
   6.9575000e+01	  -1.9228734e-01	  -2.4233525e-01	
   6.9630000e+01	  -1.8942660e-01	  -2.3683093e-01	
   6.9685000e+01	  -1.8654492e-01	  -2.3143073e-01	
   6.9740000e+01	  -1.8366203e-01	  -2.2611940e-01	
   6.9795000e+01	  -1.8079154e-01	  -2.2087561e-01	
   6.9850000e+01	  -1.7793922e-01	  -2.1567480e-01	
   6.9905000e+01	  -1.7509877e-01	  -2.1049041e-01	
   6.9960000e+01	  -1.7224640e-01	  -2.0529331e-01	
   7.0015000e+01	  -1.6933560e-01	  -2.0004978e-01	
   7.0070000e+01	  -1.6629420e-01	  -1.9471932e-01	
   7.0125000e+01	  -1.6302503e-01	  -1.8925403e-01	
   7.0180000e+01	  -1.5941072e-01	  -1.8360026e-01	
   7.0235000e+01	  -1.5532219e-01	  -1.7770239e-01	
   7.0290000e+01	  -1.5062997e-01	  -1.7150815e-01	
   7.0345000e+01	  -1.4521738e-01	  -1.6497461e-01	
   7.0400000e+01	  -1.3899399e-01	  -1.5807421e-01	
   7.0455000e+01	  -1.3190669e-01	  -1.5079991e-01	
   7.0510000e+01	  -1.2394603e-01	  -1.4316848e-01	
   7.0565000e+01	  -1.1514596e-01	  -1.3522090e-01	
   7.0620000e+01	  -1.0557652e-01	  -1.2701879e-01	
   7.0675000e+01	  -9.5331267e-02	  -1.1863771e-01	
   7.0730000e+01	  -8.4513792e-02	  -1.1015980e-01	
   7.0785000e+01	  -7.3227286e-02	  -1.0166833e-01	
   7.0840000e+01	  -6.1568906e-02	  -9.3244810e-02	
   7.0895000e+01	  -4.9628221e-02	  -8.4968478e-02	
   7.0950000e+01	  -3.7488831e-02	  -7.6917569e-02	
   7.1005000e+01	  -2.5232036e-02	  -6.9171505e-02	
   7.1060000e+01	  -1.2940623e-02	  -6.1812745e-02	
   7.1115000e+01	  -7.0110671e-04	  -5.4927511e-02	
   7.1170000e+01	   1.1395762e-02	  -4.8605463e-02	
   7.1225000e+01	   2.3256196e-02	  -4.2938203e-02	
   7.1280000e+01	   3.4786934e-02	  -3.8015866e-02	
   7.1335000e+01	   4.5901179e-02	  -3.3921737e-02	
   7.1390000e+01	   5.6525197e-02	  -3.0726080e-02	
   7.1445000e+01	   6.6603575e-02	  -2.8480463e-02	
   7.1500000e+01	   7.6102550e-02	  -2.7213083e-02	
   7.1555000e+01	   8.5011349e-02	  -2.6925536e-02	
   7.1610000e+01	   9.3340919e-02	  -2.7591581e-02	
   7.1665000e+01	   1.0111957e-01	  -2.9157788e-02	
   7.1720000e+01	   1.0838641e-01	  -3.1545456e-02	
   7.1775000e+01	   1.1518408e-01	  -3.4653929e-02	
   7.1830000e+01	   1.2155208e-01	  -3.8365851e-02	
   7.1885000e+01	   1.2752182e-01	  -4.2553837e-02	
   7.1940000e+01	   1.3311422e-01	  -4.7087194e-02	
   7.1995000e+01	   1.3833909e-01	  -5.1837754e-02	
   7.2050000e+01	   1.4319468e-01	  -5.6684322e-02	
   7.2105000e+01	   1.4766795e-01	  -6.1514962e-02	
   7.2160000e+01	   1.5173664e-01	  -6.6226922e-02	
   7.2215000e+01	   1.5537391e-01	  -7.0725355e-02	
   7.2270000e+01	   1.5855518e-01	  -7.4922251e-02	
   7.2325000e+01	   1.6126530e-01	  -7.8736096e-02	
   7.2380000e+01	   1.6350381e-01	  -8.2092418e-02	
   7.2435000e+01	   1.6528668e-01	  -8.4925528e-02	
   7.2490000e+01	   1.6664458e-01	  -8.7181385e-02	
   7.2545000e+01	   1.6761903e-01	  -8.8820954e-02	
   7.2600000e+01	   1.6825728e-01	  -8.9823520e-02	
   7.2655000e+01	   1.6860733e-01	  -9.0189381e-02	
   7.2710000e+01	   1.6871412e-01	  -8.9940914e-02	
   7.2765000e+01	   1.6861804e-01	  -8.9121129e-02	
   7.2820000e+01	   1.6835489e-01	  -8.7789720e-02	
   7.2875000e+01	   1.6795633e-01	  -8.6017305e-02	
   7.2930000e+01	   1.6745040e-01	  -8.3878771e-02	
   7.2985000e+01	   1.6686198e-01	  -8.1446866e-02	
   7.3040000e+01	   1.6621244e-01	  -7.8787425e-02	
   7.3095000e+01	   1.6551799e-01	  -7.5957173e-02	
   7.3150000e+01	   1.6478688e-01	  -7.3004121e-02	
   7.3205000e+01	   1.6401598e-01	  -6.9969718e-02	
   7.3260000e+01	   1.6318810e-01	  -6.6891491e-02	
   7.3315000e+01	   1.6227158e-01	  -6.3804636e-02	
   7.3370000e+01	   1.6122347e-01	  -6.0741505e-02	
   7.3425000e+01	   1.5999663e-01	  -5.7729007e-02	
   7.3480000e+01	   1.5854937e-01	  -5.4784876e-02	
   7.3535000e+01	   1.5685576e-01	  -5.1913815e-02	
   7.3590000e+01	   1.5491472e-01	  -4.9104420e-02	
   7.3645000e+01	   1.5275658e-01	  -4.6327929e-02	
   7.3700000e+01	   1.5044573e-01	  -4.3539638e-02	
   7.3755000e+01	   1.4807844e-01	  -4.0682926e-02	
   7.3810000e+01	   1.4577598e-01	  -3.7695104e-02	
   7.3865000e+01	   1.4367453e-01	  -3.4514282e-02	
   7.3920000e+01	   1.4191428e-01	  -3.1086773e-02	
   7.3975000e+01	   1.4062969e-01	  -2.7374039e-02	
   7.4030000e+01	   1.3994182e-01	  -2.3357527e-02	
   7.4085000e+01	   1.3995319e-01	  -1.9040013e-02	
   7.4140000e+01	   1.4074593e-01	  -1.4443033e-02	
   7.4195000e+01	   1.4238345e-01	  -9.6010454e-03	
   7.4250000e+01	   1.4491470e-01	  -4.5540805e-03	
   7.4305000e+01	   1.4837842e-01	   6.5897598e-04	
   7.4360000e+01	   1.5280585e-01	   6.0052548e-03	
   7.4415000e+01	   1.5822155e-01	   1.1460612e-02	
   7.4470000e+01	   1.6464188e-01	   1.7009692e-02	
   7.4525000e+01	   1.7207117e-01	   2.2642960e-02	
   7.4580000e+01	   1.8049622e-01	   2.8351638e-02	
   7.4635000e+01	   1.8988055e-01	   3.4122406e-02	
   7.4690000e+01	   2.0016007e-01	   3.9933457e-02	
   7.4745000e+01	   2.1124157e-01	   4.5752900e-02	
   7.4800000e+01	   2.2300526e-01	   5.1540340e-02	
   7.4855000e+01	   2.3531103e-01	   5.7251412e-02	
   7.4910000e+01	   2.4800655e-01	   6.2843607e-02	
   7.4965000e+01	   2.6093508e-01	   6.8281387e-02	
   7.5020000e+01	   2.7394170e-01	   7.3539490e-02	
   7.5075000e+01	   2.8687782e-01	   7.8604269e-02	
   7.5130000e+01	   2.9960400e-01	   8.3473217e-02	
   7.5185000e+01	   3.1199135e-01	   8.8152928e-02	
   7.5240000e+01	   3.2392151e-01	   9.2655731e-02	
   7.5295000e+01	   3.3528510e-01	   9.6995248e-02	
   7.5350000e+01	   3.4597906e-01	   1.0118156e-01	
   7.5405000e+01	   3.5590443e-01	   1.0521755e-01	
   7.5460000e+01	   3.6496670e-01	   1.0909816e-01	
   7.5515000e+01	   3.7307933e-01	   1.1281293e-01	
   7.5570000e+01	   3.8016922e-01	   1.1635089e-01	
   7.5625000e+01	   3.8618247e-01	   1.1970592e-01	
   7.5680000e+01	   3.9108858e-01	   1.2288046e-01	
   7.5735000e+01	   3.9488172e-01	   1.2588665e-01	
   7.5790000e+01	   3.9757980e-01	   1.2874545e-01	
   7.5845000e+01	   3.9922275e-01	   1.3148525e-01	
   7.5900000e+01	   3.9987029e-01	   1.3414026e-01	
   7.5955000e+01	   3.9959882e-01	   1.3674831e-01	
   7.6010000e+01	   3.9849742e-01	   1.3934765e-01	
   7.6065000e+01	   3.9666454e-01	   1.4197391e-01	
   7.6120000e+01	   3.9420619e-01	   1.4465850e-01	
   7.6175000e+01	   3.9123587e-01	   1.4742912e-01	
   7.6230000e+01	   3.8787596e-01	   1.5031207e-01	
   7.6285000e+01	   3.8425995e-01	   1.5333501e-01	
   7.6340000e+01	   3.8053407e-01	   1.5652896e-01	
   7.6395000e+01	   3.7685746e-01	   1.5992871e-01	
   7.6450000e+01	   3.7339997e-01	   1.6357142e-01	
   7.6505000e+01	   3.7033668e-01	   1.6749321e-01	
   7.6560000e+01	   3.6783909e-01	   1.7172383e-01	
   7.6615000e+01	   3.6606545e-01	   1.7628080e-01	
   7.6670000e+01	   3.6515358e-01	   1.8116529e-01	
   7.6725000e+01	   3.6521775e-01	   1.8636095e-01	
   7.6780000e+01	   3.6634845e-01	   1.9183558e-01	
   7.6835000e+01	   3.6861352e-01	   1.9754523e-01	
   7.6890000e+01	   3.7205953e-01	   2.0343936e-01	
   7.6945000e+01	   3.7671239e-01	   2.0946542e-01	
   7.7000000e+01	   3.8257698e-01	   2.1557161e-01	
   7.7055000e+01	   3.8963589e-01	   2.2170865e-01	
   7.7110000e+01	   3.9784774e-01	   2.2783062e-01	
   7.7165000e+01	   4.0714485e-01	   2.3389482e-01	
   7.7220000e+01	   4.1743099e-01	   2.3986068e-01	
   7.7275000e+01	   4.2858012e-01	   2.4568771e-01	
   7.7330000e+01	   4.4043651e-01	   2.5133304e-01	
   7.7385000e+01	   4.5281648e-01	   2.5674933e-01	
   7.7440000e+01	   4.6551367e-01	   2.6188486e-01	
   7.7495000e+01	   4.7831005e-01	   2.6668699e-01	
   7.7550000e+01	   4.9099167e-01	   2.7110807e-01	
   7.7605000e+01	   5.0336552e-01	   2.7511207e-01	
   7.7660000e+01	   5.1527273e-01	   2.7867969e-01	
   7.7715000e+01	   5.2659534e-01	   2.8181061e-01	
   7.7770000e+01	   5.3725647e-01	   2.8452271e-01	
   7.7825000e+01	   5.4721548e-01	   2.8684841e-01	
   7.7880000e+01	   5.5645986e-01	   2.8882907e-01	
   7.7935000e+01	   5.6499510e-01	   2.9050833e-01	
   7.7990000e+01	   5.7283401e-01	   2.9192523e-01	
   7.8045000e+01	   5.7998769e-01	   2.9310863e-01	
   7.8100000e+01	   5.8645976e-01	   2.9407426e-01	
   7.8155000e+01	   5.9224530e-01	   2.9482545e-01	
   7.8210000e+01	   5.9733514e-01	   2.9535739e-01	
   7.8265000e+01	   6.0172388e-01	   2.9566327e-01	
   7.8320000e+01	   6.0541792e-01	   2.9574037e-01	
   7.8375000e+01	   6.0843991e-01	   2.9559453e-01	
   7.8430000e+01	   6.1082864e-01	   2.9524277e-01	
   7.8485000e+01	   6.1263550e-01	   2.9471383e-01	
   7.8540000e+01	   6.1391923e-01	   2.9404674e-01	
   7.8595000e+01	   6.1474048e-01	   2.9328768e-01	
   7.8650000e+01	   6.1515740e-01	   2.9248583e-01	
   7.8705000e+01	   6.1522249e-01	   2.9168880e-01	
   7.8760000e+01	   6.1498045e-01	   2.9093843e-01	
   7.8815000e+01	   6.1446752e-01	   2.9026720e-01	
   7.8870000e+01	   6.1371318e-01	   2.8969611e-01	
   7.8925000e+01	   6.1274432e-01	   2.8923483e-01	
   7.8980000e+01	   6.1159040e-01	   2.8888426e-01	
   7.9035000e+01	   6.1028841e-01	   2.8864090e-01	
   7.9090000e+01	   6.0888654e-01	   2.8850146e-01	
   7.9145000e+01	   6.0744645e-01	   2.8846601e-01	
   7.9200000e+01	   6.0604296e-01	   2.8853898e-01	
   7.9255000e+01	   6.0476077e-01	   2.8872767e-01	
   7.9310000e+01	   6.0368787e-01	   2.8903885e-01	
   7.9365000e+01	   6.0290746e-01	   2.8947413e-01	
   7.9420000e+01	   6.0249040e-01	   2.9002589e-01	
   7.9475000e+01	   6.0248907e-01	   2.9067463e-01	
   7.9530000e+01	   6.0293319e-01	   2.9138809e-01	
   7.9585000e+01	   6.0382828e-01	   2.9212287e-01	
   7.9640000e+01	   6.0515711e-01	   2.9282841e-01	
   7.9695000e+01	   6.0688338e-01	   2.9345256e-01	
   7.9750000e+01	   6.0895627e-01	   2.9394715e-01	
   7.9805000e+01	   6.1131503e-01	   2.9427309e-01	
   7.9860000e+01	   6.1389276e-01	   2.9440415e-01	
   7.9915000e+01	   6.1661822e-01	   2.9432828e-01	
   7.9970000e+01	   6.1941543e-01	   2.9404648e-01	
   8.0025000e+01	   6.2220229e-01	   2.9356961e-01	
   8.0080000e+01	   6.2488993e-01	   2.9291439e-01	
   8.0135000e+01	   6.2738377e-01	   2.9210008e-01	
   8.0190000e+01	   6.2958746e-01	   2.9114732e-01	
   8.0245000e+01	   6.3140945e-01	   2.9007926e-01	
   8.0300000e+01	   6.3277035e-01	   2.8892373e-01	
   8.0355000e+01	   6.3360888e-01	   2.8771471e-01	
   8.0410000e+01	   6.3388564e-01	   2.8649224e-01	
   8.0465000e+01	   6.3358511e-01	   2.8530107e-01	
   8.0520000e+01	   6.3271611e-01	   2.8418802e-01	
   8.0575000e+01	   6.3131011e-01	   2.8319836e-01	
   8.0630000e+01	   6.2941674e-01	   2.8237144e-01	
   8.0685000e+01	   6.2709666e-01	   2.8173614e-01	
   8.0740000e+01	   6.2441308e-01	   2.8130750e-01	
   8.0795000e+01	   6.2142448e-01	   2.8108492e-01	
   8.0850000e+01	   6.1818021e-01	   2.8105271e-01	
   8.0905000e+01	   6.1472009e-01	   2.8118323e-01	
   8.0960000e+01	   6.1107739e-01	   2.8144298e-01	
   8.1015000e+01	   6.0728412e-01	   2.8179968e-01	
   8.1070000e+01	   6.0337645e-01	   2.8222761e-01	
   8.1125000e+01	   5.9939905e-01	   2.8270961e-01	
   8.1180000e+01	   5.9540687e-01	   2.8323558e-01	
   8.1235000e+01	   5.9146345e-01	   2.8379814e-01	
   8.1290000e+01	   5.8763526e-01	   2.8438647e-01	
   8.1345000e+01	   5.8398364e-01	   2.8498013e-01	
   8.1400000e+01	   5.8055676e-01	   2.8554457e-01	
   8.1455000e+01	   5.7738290e-01	   2.8602935e-01	
   8.1510000e+01	   5.7446668e-01	   2.8636950e-01	
   8.1565000e+01	   5.7178957e-01	   2.8649014e-01	
   8.1620000e+01	   5.6931479e-01	   2.8631370e-01	
   8.1675000e+01	   5.6699489e-01	   2.8576857e-01	
   8.1730000e+01	   5.6478011e-01	   2.8479804e-01	
   8.1785000e+01	   5.6262591e-01	   2.8336782e-01	
   8.1840000e+01	   5.6049864e-01	   2.8147084e-01	
   8.1895000e+01	   5.5837887e-01	   2.7912863e-01	
   8.1950000e+01	   5.5626269e-01	   2.7638908e-01	
   8.2005000e+01	   5.5416067e-01	   2.7332126e-01	
   8.2060000e+01	   5.5209469e-01	   2.7000785e-01	
   8.2115000e+01	   5.5009375e-01	   2.6653653e-01	
   8.2170000e+01	   5.4818991e-01	   2.6299124e-01	
   8.2225000e+01	   5.4641463e-01	   2.5944458e-01	
   8.2280000e+01	   5.4479596e-01	   2.5595319e-01	
   8.2335000e+01	   5.4335737e-01	   2.5255716e-01	
   8.2390000e+01	   5.4211788e-01	   2.4928265e-01	
   8.2445000e+01	   5.4109191e-01	   2.4614571e-01	
   8.2500000e+01	   5.4028814e-01	   2.4315631e-01	
   8.2555000e+01	   5.3970748e-01	   2.4032165e-01	
   8.2610000e+01	   5.3934019e-01	   2.3764796e-01	
   8.2665000e+01	   5.3916222e-01	   2.3514045e-01	
   8.2720000e+01	   5.3913147e-01	   2.3280160e-01	
   8.2775000e+01	   5.3918442e-01	   2.3062861e-01	
   8.2830000e+01	   5.3923395e-01	   2.2861114e-01	
   8.2885000e+01	   5.3916954e-01	   2.2673044e-01	
   8.2940000e+01	   5.3886024e-01	   2.2496034e-01	
   8.2995000e+01	   5.3815978e-01	   2.2326953e-01	
   8.3050000e+01	   5.3691296e-01	   2.2162445e-01	
   8.3105000e+01	   5.3496341e-01	   2.1999199e-01	
   8.3160000e+01	   5.3216201e-01	   2.1834158e-01	
   8.3215000e+01	   5.2837490e-01	   2.1664614e-01	
   8.3270000e+01	   5.2348953e-01	   2.1488196e-01	
   8.3325000e+01	   5.1741849e-01	   2.1302771e-01	
   8.3380000e+01	   5.1010089e-01	   2.1106311e-01	
   8.3435000e+01	   5.0150224e-01	   2.0896813e-01	
   8.3490000e+01	   4.9161403e-01	   2.0672275e-01	
   8.3545000e+01	   4.8045386e-01	   2.0430703e-01	
   8.3600000e+01	   4.6806667e-01	   2.0170196e-01	
   8.3655000e+01	   4.5452644e-01	   1.9889162e-01	
   8.3710000e+01	   4.3993747e-01	   1.9586605e-01	
   8.3765000e+01	   4.2443377e-01	   1.9262402e-01	
   8.3820000e+01	   4.0817677e-01	   1.8917512e-01	
   8.3875000e+01	   3.9135139e-01	   1.8554073e-01	
   8.3930000e+01	   3.7416101e-01	   1.8175290e-01	
   8.3985000e+01	   3.5682137e-01	   1.7785096e-01	
   8.4040000e+01	   3.3955349e-01	   1.7387684e-01	
   8.4095000e+01	   3.2257548e-01	   1.6987024e-01	
   8.4150000e+01	   3.0609426e-01	   1.6586473e-01	
   8.4205000e+01	   2.9029887e-01	   1.6188602e-01	
   8.4260000e+01	   2.7535748e-01	   1.5795351e-01	
   8.4315000e+01	   2.6141757e-01	   1.5408420e-01	
   8.4370000e+01	   2.4860748e-01	   1.5029773e-01	
   8.4425000e+01	   2.3703704e-01	   1.4662092e-01	
   8.4480000e+01	   2.2679677e-01	   1.4309067e-01	
   8.4535000e+01	   2.1795612e-01	   1.3975442e-01	
   8.4590000e+01	   2.1056222e-01	   1.3666832e-01	
   8.4645000e+01	   2.0463956e-01	   1.3389354e-01	
   8.4700000e+01	   2.0018945e-01	   1.3149058e-01	
   8.4755000e+01	   1.9718834e-01	   1.2951227e-01	
   8.4810000e+01	   1.9558596e-01	   1.2799665e-01	
   8.4865000e+01	   1.9530519e-01	   1.2696123e-01	
   8.4920000e+01	   1.9624430e-01	   1.2640013e-01	
   8.4975000e+01	   1.9828128e-01	   1.2628516e-01	
   8.5030000e+01	   2.0127854e-01	   1.2657005e-01	
   8.5085000e+01	   2.0508737e-01	   1.2719506e-01	
   8.5140000e+01	   2.0955237e-01	   1.2809074e-01	
   8.5195000e+01	   2.1451701e-01	   1.2918066e-01	
   8.5250000e+01	   2.1982982e-01	   1.3038344e-01	
   8.5305000e+01	   2.2534966e-01	   1.3161425e-01	
   8.5360000e+01	   2.3094925e-01	   1.3278597e-01	
   8.5415000e+01	   2.3651717e-01	   1.3381011e-01	
   8.5470000e+01	   2.4195847e-01	   1.3459759e-01	
   8.5525000e+01	   2.4719521e-01	   1.3506012e-01	
   8.5580000e+01	   2.5216771e-01	   1.3511354e-01	
   8.5635000e+01	   2.5683655e-01	   1.3468273e-01	
   8.5690000e+01	   2.6118383e-01	   1.3370686e-01	
   8.5745000e+01	   2.6521288e-01	   1.3214404e-01	
   8.5800000e+01	   2.6894565e-01	   1.2997448e-01	
   8.5855000e+01	   2.7241721e-01	   1.2720100e-01	
   8.5910000e+01	   2.7566740e-01	   1.2384630e-01	
   8.5965000e+01	   2.7873104e-01	   1.1994803e-01	
   8.6020000e+01	   2.8162864e-01	   1.1555273e-01	
   8.6075000e+01	   2.8435885e-01	   1.1071015e-01	
   8.6130000e+01	   2.8689339e-01	   1.0546889e-01	
   8.6185000e+01	   2.8917492e-01	   9.9874399e-02	
   8.6240000e+01	   2.9111888e-01	   9.3969307e-02	
   8.6295000e+01	   2.9261975e-01	   8.7795905e-02	
   8.6350000e+01	   2.9356076e-01	   8.1399258e-02	
   8.6405000e+01	   2.9382372e-01	   7.4828545e-02	
   8.6460000e+01	   2.9329671e-01	   6.8135267e-02	
   8.6515000e+01	   2.9187928e-01	   6.1369071e-02	
   8.6570000e+01	   2.8948607e-01	   5.4572382e-02	
   8.6625000e+01	   2.8604921e-01	   4.7774894e-02	
   8.6680000e+01	   2.8151984e-01	   4.0989296e-02	
   8.6735000e+01	   2.7586972e-01	   3.4209359e-02	
   8.6790000e+01	   2.6909215e-01	   2.7410345e-02	
   8.6845000e+01	   2.6120150e-01	   2.0551238e-02	
   8.6900000e+01	   2.5223161e-01	   1.3578591e-02	
   8.6955000e+01	   2.4223398e-01	   6.4318998e-03	
   8.7010000e+01	   2.3127626e-01	  -9.4964778e-04	
   8.7065000e+01	   2.1944160e-01	  -8.6195708e-03	
   8.7120000e+01	   2.0682895e-01	  -1.6616661e-02	
   8.7175000e+01	   1.9355386e-01	  -2.4959015e-02	
   8.7230000e+01	   1.7974852e-01	  -3.3640524e-02	
   8.7285000e+01	   1.6555981e-01	  -4.2630244e-02	
   8.7340000e+01	   1.5114541e-01	  -5.1874222e-02	
   8.7395000e+01	   1.3666867e-01	  -6.1298686e-02	
   8.7450000e+01	   1.2229391e-01	  -7.0813734e-02	
   8.7505000e+01	   1.0818263e-01	  -8.0317253e-02	
   8.7560000e+01	   9.4490379e-02	  -8.9698624e-02	
   8.7615000e+01	   8.1363964e-02	  -9.8841762e-02	
   8.7670000e+01	   6.8938571e-02	  -1.0762824e-01	
   8.7725000e+01	   5.7334034e-02	  -1.1594211e-01	
   8.7780000e+01	   4.6649722e-02	  -1.2367666e-01	
   8.7835000e+01	   3.6958757e-02	  -1.3074161e-01	
   8.7890000e+01	   2.8302759e-02	  -1.3706891e-01	
   8.7945000e+01	   2.0688098e-02	  -1.4261637e-01	
   8.8000000e+01	   1.4084477e-02	  -1.4736938e-01	
   8.8055000e+01	   8.4262586e-03	  -1.5134084e-01	
   8.8110000e+01	   3.6164681e-03	  -1.5456932e-01	
   8.8165000e+01	  -4.6681386e-04	  -1.5711513e-01	
   8.8220000e+01	  -3.9623579e-03	  -1.5905456e-01	
   8.8275000e+01	  -7.0172786e-03	  -1.6047340e-01	
   8.8330000e+01	  -9.7792093e-03	  -1.6146072e-01	
   8.8385000e+01	  -1.2389887e-02	  -1.6210383e-01	
   8.8440000e+01	  -1.4981073e-02	  -1.6248476e-01	
   8.8495000e+01	  -1.7673172e-02	  -1.6267930e-01	
   8.8550000e+01	  -2.0575555e-02	  -1.6275831e-01	
   8.8605000e+01	  -2.3787554e-02	  -1.6279059e-01	
   8.8660000e+01	  -2.7400123e-02	  -1.6284649e-01	
   8.8715000e+01	  -3.1497564e-02	  -1.6300135e-01	
   8.8770000e+01	  -3.6156918e-02	  -1.6333707e-01	
   8.8825000e+01	  -4.1443138e-02	  -1.6394021e-01	
   8.8880000e+01	  -4.7401435e-02	  -1.6489681e-01	
   8.8935000e+01	  -5.4050716e-02	  -1.6628638e-01	
   8.8990000e+01	  -6.1381448e-02	  -1.6817741e-01	
   8.9045000e+01	  -6.9358830e-02	  -1.7062556e-01	
   8.9100000e+01	  -7.7930086e-02	  -1.7367398e-01	
   8.9155000e+01	  -8.7033788e-02	  -1.7735490e-01	
   8.9210000e+01	  -9.6609407e-02	  -1.8169192e-01	
   8.9265000e+01	  -1.0660606e-01	  -1.8670277e-01	
   8.9320000e+01	  -1.1698942e-01	  -1.9240180e-01	
   8.9375000e+01	  -1.2774554e-01	  -1.9880056e-01	
   8.9430000e+01	  -1.3888061e-01	  -2.0590652e-01	
   8.9485000e+01	  -1.5041681e-01	  -2.1371945e-01	
   8.9540000e+01	  -1.6238518e-01	  -2.2222583e-01	
   8.9595000e+01	  -1.7481785e-01	  -2.3139230e-01	
   8.9650000e+01	  -1.8774204e-01	  -2.4116080e-01	
   8.9705000e+01	  -2.0117635e-01	  -2.5144754e-01	
   8.9760000e+01	  -2.1512846e-01	  -2.6214602e-01	
   8.9815000e+01	  -2.2959453e-01	  -2.7313343e-01	
   8.9870000e+01	  -2.4456057e-01	  -2.8427921e-01	
   8.9925000e+01	  -2.6000471e-01	  -2.9545440e-01	
   8.9980000e+01	  -2.7589864e-01	  -3.0654021e-01	
   9.0035000e+01	  -2.9220789e-01	  -3.1743525e-01	
   9.0090000e+01	  -3.0889224e-01	  -3.2806073e-01	
   9.0145000e+01	  -3.2590720e-01	  -3.3836298e-01	
   9.0200000e+01	  -3.4320616e-01	  -3.4831304e-01	
   9.0255000e+01	  -3.6074190e-01	  -3.5790340e-01	
   9.0310000e+01	  -3.7846680e-01	  -3.6714294e-01	
   9.0365000e+01	  -3.9633183e-01	  -3.7605120e-01	
   9.0420000e+01	  -4.1428495e-01	  -3.8465340e-01	
   9.0475000e+01	  -4.3226990e-01	  -3.9297641e-01	
   9.0530000e+01	  -4.5022603e-01	  -4.0104619e-01	
   9.0585000e+01	  -4.6808957e-01	  -4.0888678e-01	
   9.0640000e+01	  -4.8579593e-01	  -4.1652040e-01	
   9.0695000e+01	  -5.0328258e-01	  -4.2396778e-01	
   9.0750000e+01	  -5.2049190e-01	  -4.3124878e-01	
   9.0805000e+01	  -5.3737358e-01	  -4.3838289e-01	
   9.0860000e+01	  -5.5388588e-01	  -4.4538919e-01	
   9.0915000e+01	  -5.6999576e-01	  -4.5228437e-01	
   9.0970000e+01	  -5.8567848e-01	  -4.5907919e-01	
   9.1025000e+01	  -6.0091705e-01	  -4.6577396e-01	
   9.1080000e+01	  -6.1570179e-01	  -4.7235466e-01	
   9.1135000e+01	  -6.3003036e-01	  -4.7879131e-01	
   9.1190000e+01	  -6.4390874e-01	  -4.8503935e-01	
   9.1245000e+01	  -6.5735255e-01	  -4.9104379e-01	
   9.1300000e+01	  -6.7038746e-01	  -4.9674508e-01	
   9.1355000e+01	  -6.8304820e-01	  -5.0208584e-01	
   9.1410000e+01	  -6.9537654e-01	  -5.0701716e-01	
   9.1465000e+01	  -7.0741851e-01	  -5.1150287e-01	
   9.1520000e+01	  -7.1922071e-01	  -5.1552034e-01	
   9.1575000e+01	  -7.3082614e-01	  -5.1905810e-01	
   9.1630000e+01	  -7.4227035e-01	  -5.2211209e-01	
   9.1685000e+01	  -7.5357885e-01	  -5.2468218e-01	
   9.1740000e+01	  -7.6476611e-01	  -5.2676999e-01	
   9.1795000e+01	  -7.7583603e-01	  -5.2837820e-01	
   9.1850000e+01	  -7.8678365e-01	  -5.2951141e-01	
   9.1905000e+01	  -7.9759815e-01	  -5.3017850e-01	
   9.1960000e+01	  -8.0826689e-01	  -5.3039600e-01	
   9.2015000e+01	  -8.1878006e-01	  -5.3019181e-01	
   9.2070000e+01	  -8.2913493e-01	  -5.2960847e-01	
   9.2125000e+01	  -8.3933878e-01	  -5.2870513e-01	
   9.2180000e+01	  -8.4940942e-01	  -5.2755685e-01	
   9.2235000e+01	  -8.5937308e-01	  -5.2625039e-01	
   9.2290000e+01	  -8.6926035e-01	  -5.2487733e-01	
   9.2345000e+01	  -8.7910104e-01	  -5.2352667e-01	
   9.2400000e+01	  -8.8891835e-01	  -5.2227819e-01	
   9.2455000e+01	  -8.9872351e-01	  -5.2119760e-01	
   9.2510000e+01	  -9.0851226e-01	  -5.2033410e-01	
   9.2565000e+01	  -9.1826374e-01	  -5.1972011e-01	
   9.2620000e+01	  -9.2794177e-01	  -5.1937256e-01	
   9.2675000e+01	  -9.3749770e-01	  -5.1929532e-01	
   9.2730000e+01	  -9.4687397e-01	  -5.1948252e-01	
   9.2785000e+01	  -9.5600782e-01	  -5.1992192e-01	
   9.2840000e+01	  -9.6483481e-01	  -5.2059764e-01	
   9.2895000e+01	  -9.7329170e-01	  -5.2149098e-01	
   9.2950000e+01	  -9.8131808e-01	  -5.2257905e-01	
   9.3005000e+01	  -9.8885604e-01	  -5.2383144e-01	
   9.3060000e+01	  -9.9584881e-01	  -5.2520648e-01	
   9.3115000e+01	  -1.0022395e+00	  -5.2664879e-01	
   9.3170000e+01	  -1.0079714e+00	  -5.2808884e-01	
   9.3225000e+01	  -1.0129902e+00	  -5.2944483e-01	
   9.3280000e+01	  -1.0172473e+00	  -5.3062695e-01	
   9.3335000e+01	  -1.0207041e+00	  -5.3154397e-01	
   9.3390000e+01	  -1.0233365e+00	  -5.3211120e-01	
   9.3445000e+01	  -1.0251388e+00	  -5.3225861e-01	
   9.3500000e+01	  -1.0261250e+00	  -5.3193799e-01	
   9.3555000e+01	  -1.0263294e+00	  -5.3112754e-01	
   9.3610000e+01	  -1.0258042e+00	  -5.2983262e-01	
   9.3665000e+01	  -1.0246190e+00	  -5.2808281e-01	
   9.3720000e+01	  -1.0228598e+00	  -5.2592645e-01	
   9.3775000e+01	  -1.0206272e+00	  -5.2342402e-01	
   9.3830000e+01	  -1.0180330e+00	  -5.2064174e-01	
   9.3885000e+01	  -1.0151970e+00	  -5.1764645e-01	
   9.3940000e+01	  -1.0122422e+00	  -5.1450198e-01	
   9.3995000e+01	  -1.0092927e+00	  -5.1126607e-01	
   9.4050000e+01	  -1.0064711e+00	  -5.0798771e-01	
   9.4105000e+01	  -1.0038964e+00	  -5.0470568e-01	
   9.4160000e+01	  -1.0016822e+00	  -5.0144841e-01	
   9.4215000e+01	  -9.9993371e-01	  -4.9823431e-01	
   9.4270000e+01	  -9.9874349e-01	  -4.9507151e-01	
   9.4325000e+01	  -9.9818675e-01	  -4.9195703e-01	
   9.4380000e+01	  -9.9831760e-01	  -4.8887617e-01	
   9.4435000e+01	  -9.9916712e-01	  -4.8580341e-01	
   9.4490000e+01	  -1.0007438e+00	  -4.8270487e-01	
   9.4545000e+01	  -1.0030353e+00	  -4.7954147e-01	
   9.4600000e+01	  -1.0060113e+00	  -4.7627252e-01	
   9.4655000e+01	  -1.0096266e+00	  -4.7285983e-01	
   9.4710000e+01	  -1.0138251e+00	  -4.6927222e-01	
   9.4765000e+01	  -1.0185425e+00	  -4.6548896e-01	
   9.4820000e+01	  -1.0237075e+00	  -4.6150049e-01	
   9.4875000e+01	  -1.0292407e+00	  -4.5730583e-01	
   9.4930000e+01	  -1.0350527e+00	  -4.5290756e-01	
   9.4985000e+01	  -1.0410435e+00	  -4.4830638e-01	
   9.5040000e+01	  -1.0471034e+00	  -4.4349707e-01	
   9.5095000e+01	  -1.0531146e+00	  -4.3846755e-01	
   9.5150000e+01	  -1.0589545e+00	  -4.3320082e-01	
   9.5205000e+01	  -1.0644973e+00	  -4.2767844e-01	
   9.5260000e+01	  -1.0696181e+00	  -4.2188486e-01	
   9.5315000e+01	  -1.0741988e+00	  -4.1581231e-01	
   9.5370000e+01	  -1.0781362e+00	  -4.0946564e-01	
   9.5425000e+01	  -1.0813506e+00	  -4.0286631e-01	
   9.5480000e+01	  -1.0837923e+00	  -3.9605384e-01	
   9.5535000e+01	  -1.0854447e+00	  -3.8908374e-01	
   9.5590000e+01	  -1.0863238e+00	  -3.8202204e-01	
   9.5645000e+01	  -1.0864745e+00	  -3.7493834e-01	
   9.5700000e+01	  -1.0859670e+00	  -3.6789932e-01	
   9.5755000e+01	  -1.0848920e+00	  -3.6096378e-01	
   9.5810000e+01	  -1.0833556e+00	  -3.5417967e-01	
   9.5865000e+01	  -1.0814743e+00	  -3.4758371e-01	
   9.5920000e+01	  -1.0793701e+00	  -3.4120325e-01	
   9.5975000e+01	  -1.0771671e+00	  -3.3505894e-01	
   9.6030000e+01	  -1.0749874e+00	  -3.2916694e-01	
   9.6085000e+01	  -1.0729459e+00	  -3.2353966e-01	
   9.6140000e+01	  -1.0711443e+00	  -3.1818426e-01	
   9.6195000e+01	  -1.0696643e+00	  -3.1309912e-01	
   9.6250000e+01	  -1.0685606e+00	  -3.0826979e-01	
   9.6305000e+01	  -1.0678576e+00	  -3.0366595e-01	
   9.6360000e+01	  -1.0675484e+00	  -2.9923914e-01	
   9.6415000e+01	  -1.0675948e+00	  -2.9492182e-01	
   9.6470000e+01	  -1.0679291e+00	  -2.9062865e-01	
   9.6525000e+01	  -1.0684589e+00	  -2.8626106e-01	
   9.6580000e+01	  -1.0690725e+00	  -2.8171478e-01	
   9.6635000e+01	  -1.0696466e+00	  -2.7688948e-01	
   9.6690000e+01	  -1.0700535e+00	  -2.7169885e-01	
   9.6745000e+01	  -1.0701667e+00	  -2.6607866e-01	
   9.6800000e+01	  -1.0698649e+00	  -2.5999126e-01	
   9.6855000e+01	  -1.0690320e+00	  -2.5342649e-01	
   9.6910000e+01	  -1.0675584e+00	  -2.4639972e-01	
   9.6965000e+01	  -1.0653411e+00	  -2.3894802e-01	
   9.7020000e+01	  -1.0622877e+00	  -2.3112552e-01	
   9.7075000e+01	  -1.0583205e+00	  -2.2299896e-01	
   9.7130000e+01	  -1.0533846e+00	  -2.1464389e-01	
   9.7185000e+01	  -1.0474554e+00	  -2.0614194e-01	
   9.7240000e+01	  -1.0405451e+00	  -1.9757962e-01	
   9.7295000e+01	  -1.0327078e+00	  -1.8904864e-01	
   9.7350000e+01	  -1.0240416e+00	  -1.8064677e-01	
   9.7405000e+01	  -1.0146870e+00	  -1.7247783e-01	
   9.7460000e+01	  -1.0048228e+00	  -1.6464993e-01	
   9.7515000e+01	  -9.9465772e-01	  -1.5727163e-01	
   9.7570000e+01	  -9.8442257e-01	  -1.5044589e-01	
   9.7625000e+01	  -9.7436038e-01	  -1.4426319e-01	
   9.7680000e+01	  -9.6471747e-01	  -1.3879581e-01	
   9.7735000e+01	  -9.5573534e-01	  -1.3409457e-01	
   9.7790000e+01	  -9.4764416e-01	  -1.3018759e-01	
   9.7845000e+01	  -9.4065736e-01	  -1.2708084e-01	
   9.7900000e+01	  -9.3496644e-01	  -1.2476062e-01	
   9.7955000e+01	  -9.3073627e-01	  -1.2319754e-01	
   9.8010000e+01	  -9.2810115e-01	  -1.2235116e-01	
   9.8065000e+01	  -9.2716139e-01	  -1.2217351e-01	
   9.8120000e+01	  -9.2797973e-01	  -1.2260968e-01	
   9.8175000e+01	  -9.3057759e-01	  -1.2359513e-01	
   9.8230000e+01	  -9.3493228e-01	  -1.2505144e-01	
   9.8285000e+01	  -9.4097608e-01	  -1.2688339e-01	
   9.8340000e+01	  -9.4859740e-01	  -1.2897903e-01	
   9.8395000e+01	  -9.5764380e-01	  -1.3121331e-01	
   9.8450000e+01	  -9.6792752e-01	  -1.3345515e-01	
   9.8505000e+01	  -9.7923281e-01	  -1.3557758e-01	
   9.8560000e+01	  -9.9132357e-01	  -1.3746825e-01	
   9.8615000e+01	  -1.0039501e+00	  -1.3903756e-01	
   9.8670000e+01	  -1.0168552e+00	  -1.4022225e-01	
   9.8725000e+01	  -1.0297812e+00	  -1.4098464e-01	
   9.8780000e+01	  -1.0424770e+00	  -1.4130876e-01	
   9.8835000e+01	  -1.0547062e+00	  -1.4119551e-01	
   9.8890000e+01	  -1.0662553e+00	  -1.4065916e-01	
   9.8945000e+01	  -1.0769419e+00	  -1.3972585e-01	
   9.9000000e+01	  -1.0866198e+00	  -1.3843288e-01	
   9.9055000e+01	  -1.0951819e+00	  -1.3682754e-01	
   9.9110000e+01	  -1.1025604e+00	  -1.3496484e-01	
   9.9165000e+01	  -1.1087266e+00	  -1.3290402e-01	
   9.9220000e+01	  -1.1136883e+00	  -1.3070417e-01	
   9.9275000e+01	  -1.1174861e+00	  -1.2841993e-01	
   9.9330000e+01	  -1.1201882e+00	  -1.2609789e-01	
   9.9385000e+01	  -1.1218848e+00	  -1.2377336e-01	
   9.9440000e+01	  -1.1226823e+00	  -1.2146749e-01	
   9.9495000e+01	  -1.1226972e+00	  -1.1918566e-01	
   9.9550000e+01	  -1.1220511e+00	  -1.1691784e-01	
   9.9605000e+01	  -1.1208648e+00	  -1.1464103e-01	
   9.9660000e+01	  -1.1192541e+00	  -1.1232325e-01	
   9.9715000e+01	  -1.1173262e+00	  -1.0992811e-01	
   9.9770000e+01	  -1.1151766e+00	  -1.0741861e-01	
   9.9825000e+01	  -1.1128867e+00	  -1.0475925e-01	
   9.9880000e+01	  -1.1105234e+00	  -1.0191655e-01	
   9.9935000e+01	  -1.1081391e+00	  -9.8857800e-02	
   9.9990000e+01	  -1.1057733e+00	  -9.5549365e-02	
   1.0004500e+02	  -1.1034530e+00	  -9.1956263e-02	
   1.0010000e+02	  -1.1011948e+00	  -8.8044390e-02	
   1.0015500e+02	  -1.0990053e+00	  -8.3784453e-02	
   1.0021000e+02	  -1.0968809e+00	  -7.9155881e-02	
   1.0026500e+02	  -1.0948056e+00	  -7.4149988e-02	
   1.0032000e+02	  -1.0927486e+00	  -6.8772448e-02	
   1.0037500e+02	  -1.0906620e+00	  -6.3044982e-02	
   1.0043000e+02	  -1.0884799e+00	  -5.7006068e-02	
   1.0048500e+02	  -1.0861187e+00	  -5.0710248e-02	
   1.0054000e+02	  -1.0834783e+00	  -4.4225033e-02	
   1.0059500e+02	  -1.0804447e+00	  -3.7625093e-02	
   1.0065000e+02	  -1.0768920e+00	  -3.0985123e-02	
   1.0070500e+02	  -1.0726849e+00	  -2.4373646e-02	
   1.0076000e+02	  -1.0676818e+00	  -1.7849085e-02	
   1.0081500e+02	  -1.0617382e+00	  -1.1458125e-02	
   1.0087000e+02	  -1.0547123e+00	  -5.2358345e-03	
   1.0092500e+02	  -1.0464753e+00	   7.9289954e-04	
   1.0098000e+02	  -1.0369209e+00	   6.6110667e-03	
   1.0103500e+02	  -1.0259745e+00	   1.2207291e-02	
   1.0109000e+02	  -1.0135982e+00	   1.7574738e-02	
   1.0114500e+02	  -9.9979223e-01	   2.2711918e-02	
   1.0120000e+02	  -9.8459404e-01	   2.7625427e-02	
   1.0125500e+02	  -9.6807424e-01	   3.2333313e-02	
   1.0131000e+02	  -9.5033183e-01	   3.6866678e-02	
   1.0136500e+02	  -9.3148953e-01	   4.1267871e-02	
   1.0142000e+02	  -9.1168994e-01	   4.5585447e-02	
   1.0147500e+02	  -8.9109301e-01	   4.9867162e-02	
   1.0153000e+02	  -8.6987455e-01	   5.4152286e-02	
   1.0158500e+02	  -8.4822487e-01	   5.8464730e-02	
   1.0164000e+02	  -8.2634633e-01	   6.2808392e-02	
   1.0169500e+02	  -8.0444881e-01	   6.7165643e-02	
   1.0175000e+02	  -7.8274316e-01	   7.1499264e-02	
   1.0180500e+02	  -7.6143366e-01	   7.5757289e-02	
   1.0186000e+02	  -7.4071057e-01	   7.9878827e-02	
   1.0191500e+02	  -7.2074413e-01	   8.3798602e-02	
   1.0197000e+02	  -7.0168021e-01	   8.7449490e-02	
   1.0202500e+02	  -6.8363625e-01	   9.0764064e-02	
   1.0208000e+02	  -6.6669748e-01	   9.3676106e-02	
   1.0213500e+02	  -6.5091566e-01	   9.6121960e-02	
   1.0219000e+02	  -6.3631142e-01	   9.8041237e-02	
   1.0224500e+02	  -6.2287944e-01	   9.9376778e-02	
   1.0230000e+02	  -6.1059415e-01	   1.0007425e-01	
   1.0235500e+02	  -5.9941453e-01	   1.0008241e-01	
   1.0241000e+02	  -5.8928646e-01	   9.9355698e-02	
   1.0246500e+02	  -5.8014206e-01	   9.7859859e-02	
   1.0252000e+02	  -5.7189786e-01	   9.5579288e-02	
   1.0257500e+02	  -5.6445435e-01	   9.2523541e-02	
   1.0263000e+02	  -5.5769833e-01	   8.8731358e-02	
   1.0268500e+02	  -5.5150812e-01	   8.4271479e-02	
   1.0274000e+02	  -5.4576098e-01	   7.9240315e-02	
   1.0279500e+02	  -5.4034082e-01	   7.3757149e-02	
   1.0285000e+02	  -5.3514436e-01	   6.7957641e-02	
   1.0290500e+02	  -5.3008525e-01	   6.1986091e-02	
   1.0296000e+02	  -5.2509643e-01	   5.5987045e-02	
   1.0301500e+02	  -5.2013132e-01	   5.0097687e-02	
   1.0307000e+02	  -5.1516326e-01	   4.4442713e-02	
   1.0312500e+02	  -5.1018254e-01	   3.9132309e-02	
   1.0318000e+02	  -5.0519147e-01	   3.4262520e-02	
   1.0323500e+02	  -5.0019841e-01	   2.9916588e-02	
   1.0329000e+02	  -4.9521237e-01	   2.6165654e-02	
   1.0334500e+02	  -4.9024060e-01	   2.3067411e-02	
   1.0340000e+02	  -4.8529086e-01	   2.0662453e-02	
   1.0345500e+02	  -4.8037714e-01	   1.8969412e-02	
   1.0351000e+02	  -4.7552648e-01	   1.7980310e-02	
   1.0356500e+02	  -4.7078451e-01	   1.7657225e-02	
   1.0362000e+02	  -4.6621695e-01	   1.7931781e-02	
   1.0367500e+02	  -4.6190500e-01	   1.8709234e-02	
   1.0373000e+02	  -4.5793534e-01	   1.9876934e-02	
   1.0378500e+02	  -4.5438810e-01	   2.1314211e-02	
   1.0384000e+02	  -4.5132613e-01	   2.2900501e-02	
   1.0389500e+02	  -4.4878723e-01	   2.4520505e-02	
   1.0395000e+02	  -4.4678004e-01	   2.6066520e-02	
   1.0400500e+02	  -4.4528344e-01	   2.7438560e-02	
   1.0406000e+02	  -4.4424880e-01	   2.8543421e-02	
   1.0411500e+02	  -4.4360432e-01	   2.9293942e-02	
   1.0417000e+02	  -4.4326069e-01	   2.9608911e-02	
   1.0422500e+02	  -4.4311724e-01	   2.9413724e-02	
   1.0428000e+02	  -4.4306737e-01	   2.8642429e-02	
   1.0433500e+02	  -4.4300289e-01	   2.7241729e-02	
   1.0439000e+02	  -4.4281810e-01	   2.5176236e-02	
   1.0444500e+02	  -4.4241442e-01	   2.2433586e-02	
   1.0450000e+02	  -4.4170514e-01	   1.9028082e-02	
   1.0455500e+02	  -4.4061908e-01	   1.5001754e-02	
   1.0461000e+02	  -4.3910256e-01	   1.0422502e-02	
   1.0466500e+02	  -4.3711959e-01	   5.3803276e-03	
   1.0472000e+02	  -4.3465072e-01	  -1.7402696e-05	
   1.0477500e+02	  -4.3169155e-01	  -5.6518392e-03	
   1.0483000e+02	  -4.2825117e-01	  -1.1399889e-02	
   1.0488500e+02	  -4.2435025e-01	  -1.7141808e-02	
   1.0494000e+02	  -4.2001829e-01	  -2.2767364e-02	
   1.0499500e+02	  -4.1529024e-01	  -2.8179115e-02	
   1.0505000e+02	  -4.1020300e-01	  -3.3292581e-02	
   1.0510500e+02	  -4.0479207e-01	  -3.8034589e-02	
   1.0516000e+02	  -3.9908847e-01	  -4.2341760e-02	
   1.0521500e+02	  -3.9311652e-01	  -4.6160273e-02	
   1.0527000e+02	  -3.8689327e-01	  -4.9446615e-02	
   1.0532500e+02	  -3.8043029e-01	  -5.2168668e-02	
   1.0538000e+02	  -3.7373775e-01	  -5.4307402e-02	
   1.0543500e+02	  -3.6683051e-01	  -5.5859846e-02	
   1.0549000e+02	  -3.5973465e-01	  -5.6842795e-02	
   1.0554500e+02	  -3.5249270e-01	  -5.7295544e-02	
   1.0560000e+02	  -3.4516608e-01	  -5.7280261e-02	
   1.0565500e+02	  -3.3783499e-01	  -5.6879454e-02	
   1.0571000e+02	  -3.3059639e-01	  -5.6190469e-02	
   1.0576500e+02	  -3.2356112e-01	  -5.5317850e-02	
   1.0582000e+02	  -3.1685073e-01	  -5.4365574e-02	
   1.0587500e+02	  -3.1059432e-01	  -5.3431089e-02	
   1.0593000e+02	  -3.0492594e-01	  -5.2601806e-02	
   1.0598500e+02	  -2.9998289e-01	  -5.1954015e-02	
   1.0604000e+02	  -2.9590444e-01	  -5.1554085e-02	
   1.0609500e+02	  -2.9282951e-01	  -5.1460985e-02	
   1.0615000e+02	  -2.9089211e-01	  -5.1727930e-02	
   1.0620500e+02	  -2.9021434e-01	  -5.2401480e-02	
   1.0626000e+02	  -2.9089922e-01	  -5.3518554e-02	
   1.0631500e+02	  -2.9302467e-01	  -5.5103105e-02	
   1.0637000e+02	  -2.9663857e-01	  -5.7163543e-02	
   1.0642500e+02	  -3.0175481e-01	  -5.9691171e-02	
   1.0648000e+02	  -3.0835106e-01	  -6.2659716e-02	
   1.0653500e+02	  -3.1636840e-01	  -6.6025895e-02	
   1.0659000e+02	  -3.2571271e-01	  -6.9731130e-02	
   1.0664500e+02	  -3.3625779e-01	  -7.3704945e-02	
   1.0670000e+02	  -3.4785057e-01	  -7.7870310e-02	
   1.0675500e+02	  -3.6031784e-01	  -8.2150059e-02	
   1.0681000e+02	  -3.7347291e-01	  -8.6472880e-02	
   1.0686500e+02	  -3.8712141e-01	  -9.0777647e-02	
   1.0692000e+02	  -4.0106534e-01	  -9.5015135e-02	
   1.0697500e+02	  -4.1510506e-01	  -9.9146453e-02	
   1.0703000e+02	  -4.2903959e-01	  -1.0313846e-01	
   1.0708500e+02	  -4.4266744e-01	  -1.0695788e-01	
   1.0714000e+02	  -4.5578968e-01	  -1.1056634e-01	
   1.0719500e+02	  -4.6821562e-01	  -1.1391748e-01	
   1.0725000e+02	  -4.7976955e-01	  -1.1695653e-01	
   1.0730500e+02	  -4.9029706e-01	  -1.1962222e-01	
   1.0736000e+02	  -4.9966995e-01	  -1.2185056e-01	
   1.0741500e+02	  -5.0778956e-01	  -1.2358002e-01	
   1.0747000e+02	  -5.1458873e-01	  -1.2475758e-01	
   1.0752500e+02	  -5.2003193e-01	  -1.2534516e-01	
   1.0758000e+02	  -5.2411268e-01	  -1.2532468e-01	
   1.0763500e+02	  -5.2684799e-01	  -1.2469951e-01	
   1.0769000e+02	  -5.2827047e-01	  -1.2349116e-01	
   1.0774500e+02	  -5.2842010e-01	  -1.2173299e-01	
   1.0780000e+02	  -5.2733761e-01	  -1.1946305e-01	
   1.0785500e+02	  -5.2506108e-01	  -1.1671815e-01	
   1.0791000e+02	  -5.2162625e-01	  -1.1353012e-01	
   1.0796500e+02	  -5.1707016e-01	  -1.0992510e-01	
   1.0802000e+02	  -5.1143647e-01	  -1.0592598e-01	
   1.0807500e+02	  -5.0478040e-01	  -1.0155744e-01	
   1.0813000e+02	  -4.9717264e-01	  -9.6852478e-02	
   1.0818500e+02	  -4.8870223e-01	  -9.1858775e-02	
   1.0824000e+02	  -4.7947828e-01	  -8.6643314e-02	
   1.0829500e+02	  -4.6962853e-01	  -8.1293661e-02	
   1.0835000e+02	  -4.5929421e-01	  -7.5915467e-02	
   1.0840500e+02	  -4.4862209e-01	  -7.0626184e-02	
   1.0846000e+02	  -4.3775537e-01	  -6.5545156e-02	
   1.0851500e+02	  -4.2682498e-01	  -6.0781489e-02	
   1.0857000e+02	  -4.1594221e-01	  -5.6422890e-02	
   1.0862500e+02	  -4.0519374e-01	  -5.2528419e-02	
   1.0868000e+02	  -3.9463931e-01	  -4.9126123e-02	
   1.0873500e+02	  -3.8431234e-01	  -4.6214994e-02	
   1.0879000e+02	  -3.7422277e-01	  -4.3770215e-02	
   1.0884500e+02	  -3.6436145e-01	  -4.1750235e-02	
   1.0890000e+02	  -3.5470529e-01	  -4.0104241e-02	
   1.0895500e+02	  -3.4522360e-01	  -3.8779394e-02	
   1.0901000e+02	  -3.3588636e-01	  -3.7727410e-02	
   1.0906500e+02	  -3.2667321e-01	  -3.6909339e-02	
   1.0912000e+02	  -3.1758014e-01	  -3.6297254e-02	
   1.0917500e+02	  -3.0862191e-01	  -3.5872940e-02	
   1.0923000e+02	  -2.9983093e-01	  -3.5624898e-02	
   1.0928500e+02	  -2.9125350e-01	  -3.5544922e-02	
   1.0934000e+02	  -2.8294416e-01	  -3.5624918e-02	
   1.0939500e+02	  -2.7495887e-01	  -3.5854679e-02	
   1.0945000e+02	  -2.6734948e-01	  -3.6221468e-02	
   1.0950500e+02	  -2.6016095e-01	  -3.6711607e-02	
   1.0956000e+02	  -2.5343185e-01	  -3.7313382e-02	
   1.0961500e+02	  -2.4719731e-01	  -3.8020223e-02	
   1.0967000e+02	  -2.4149267e-01	  -3.8833207e-02	
   1.0972500e+02	  -2.3635551e-01	  -3.9761901e-02	
   1.0978000e+02	  -2.3182441e-01	  -4.0822824e-02	
   1.0983500e+02	  -2.2793500e-01	  -4.2035653e-02	
   1.0989000e+02	  -2.2471488e-01	  -4.3418062e-02	
   1.0994500e+02	  -2.2217914e-01	  -4.4980318e-02	
   1.1000000e+02	  -2.2032676e-01	  -4.6720755e-02	
   1.1005500e+02	  -2.1913816e-01	  -4.8623226e-02	
   1.1011000e+02	  -2.1857429e-01	  -5.0657026e-02	
   1.1016500e+02	  -2.1857813e-01	  -5.2778976e-02	
   1.1022000e+02	  -2.1907860e-01	  -5.4937031e-02	
   1.1027500e+02	  -2.1999669e-01	  -5.7074723e-02	
   1.1033000e+02	  -2.2125254e-01	  -5.9135266e-02	
   1.1038500e+02	  -2.2277240e-01	  -6.1064358e-02	
   1.1044000e+02	  -2.2449369e-01	  -6.2811638e-02	
   1.1049500e+02	  -2.2636789e-01	  -6.4331002e-02	
   1.1055000e+02	  -2.2836033e-01	  -6.5579579e-02	
   1.1060500e+02	  -2.3044731e-01	  -6.6515693e-02	
   1.1066000e+02	  -2.3261160e-01	  -6.7097248e-02	
   1.1071500e+02	  -2.3483805e-01	  -6.7281819e-02	
   1.1077000e+02	  -2.3710981e-01	  -6.7028340e-02	
   1.1082500e+02	  -2.3940585e-01	  -6.6299457e-02	
   1.1088000e+02	  -2.4170005e-01	  -6.5063844e-02	
   1.1093500e+02	  -2.4396246e-01	  -6.3298629e-02	
   1.1099000e+02	  -2.4616258e-01	  -6.0992736e-02	
   1.1104500e+02	  -2.4827452e-01	  -5.8151623e-02	
   1.1110000e+02	  -2.5028319e-01	  -5.4802074e-02	
   1.1115500e+02	  -2.5218895e-01	  -5.0994033e-02	
   1.1121000e+02	  -2.5400775e-01	  -4.6797182e-02	
   1.1126500e+02	  -2.5576636e-01	  -4.2293160e-02	
   1.1132000e+02	  -2.5749486e-01	  -3.7566650e-02	
   1.1137500e+02	  -2.5921944e-01	  -3.2698084e-02	
   1.1143000e+02	  -2.6095695e-01	  -2.7758707e-02	
   1.1148500e+02	  -2.6271092e-01	  -2.2807477e-02	
   1.1154000e+02	  -2.6446931e-01	  -1.7889520e-02	
   1.1159500e+02	  -2.6620472e-01	  -1.3036231e-02	
   1.1165000e+02	  -2.6787686e-01	  -8.2669987e-03	
   1.1170500e+02	  -2.6943671e-01	  -3.5924408e-03	
   1.1176000e+02	  -2.7083151e-01	   9.8124362e-04	
   1.1181500e+02	  -2.7200963e-01	   5.4481730e-03	
   1.1187000e+02	  -2.7292294e-01	   9.8009182e-03	
   1.1192500e+02	  -2.7352611e-01	   1.4031836e-02	
   1.1198000e+02	  -2.7377425e-01	   1.8136729e-02	
   1.1203500e+02	  -2.7362145e-01	   2.2118952e-02	
   1.1209000e+02	  -2.7302134e-01	   2.5992018e-02	
   1.1214500e+02	  -2.7193004e-01	   2.9779256e-02	
   1.1220000e+02	  -2.7031077e-01	   3.3510285e-02	
   1.1225500e+02	  -2.6813919e-01	   3.7215774e-02	
   1.1231000e+02	  -2.6540831e-01	   4.0922398e-02	
   1.1236500e+02	  -2.6213255e-01	   4.4648842e-02	
   1.1242000e+02	  -2.5835053e-01	   4.8402799e-02	
   1.1247500e+02	  -2.5412564e-01	   5.2178847e-02	
   1.1253000e+02	  -2.4954379e-01	   5.5957449e-02	
   1.1258500e+02	  -2.4470867e-01	   5.9705805e-02	
   1.1264000e+02	  -2.3973459e-01	   6.3381638e-02	
   1.1269500e+02	  -2.3473759e-01	   6.6940127e-02	
   1.1275000e+02	  -2.2982595e-01	   7.0342457e-02	
   1.1280500e+02	  -2.2509229e-01	   7.3563533e-02	
   1.1286000e+02	  -2.2060785e-01	   7.6597111e-02	
   1.1291500e+02	  -2.1641942e-01	   7.9457847e-02	
   1.1297000e+02	  -2.1254861e-01	   8.2180374e-02	
   1.1302500e+02	  -2.0899370e-01	   8.4815728e-02	
   1.1308000e+02	  -2.0573356e-01	   8.7425567e-02	
   1.1313500e+02	  -2.0273265e-01	   9.0074942e-02	
   1.1319000e+02	  -1.9994566e-01	   9.2824475e-02	
   1.1324500e+02	  -1.9732170e-01	   9.5722997e-02	
   1.1330000e+02	  -1.9480774e-01	   9.8802203e-02	
   1.1335500e+02	  -1.9235092e-01	   1.0207470e-01	
   1.1341000e+02	  -1.8989952e-01	   1.0553555e-01	
   1.1346500e+02	  -1.8740282e-01	   1.0916607e-01	
   1.1352000e+02	  -1.8481036e-01	   1.1293893e-01	
   1.1357500e+02	  -1.8207136e-01	   1.1682347e-01	
   1.1363000e+02	  -1.7913502e-01	   1.2079041e-01	
   1.1368500e+02	  -1.7595233e-01	   1.2481514e-01	
   1.1374000e+02	  -1.7247875e-01	   1.2887886e-01	
   1.1379500e+02	  -1.6867701e-01	   1.3296745e-01	
   1.1385000e+02	  -1.6451905e-01	   1.3706820e-01	
   1.1390500e+02	  -1.5998651e-01	   1.4116572e-01	
   1.1396000e+02	  -1.5506976e-01	   1.4523888e-01	
   1.1401500e+02	  -1.4976553e-01	   1.4926023e-01	
   1.1407000e+02	  -1.4407439e-01	   1.5319790e-01	
   1.1412500e+02	  -1.3799921e-01	   1.5701938e-01	
   1.1418000e+02	  -1.3154503e-01	   1.6069567e-01	
   1.1423500e+02	  -1.2471959e-01	   1.6420489e-01	
   1.1429000e+02	  -1.1753357e-01	   1.6753462e-01	
   1.1434500e+02	  -1.1000022e-01	   1.7068264e-01	
   1.1440000e+02	  -1.0213515e-01	   1.7365628e-01	
   1.1445500e+02	  -9.3956468e-02	   1.7647030e-01	
   1.1451000e+02	  -8.5485006e-02	   1.7914389e-01	
   1.1456500e+02	  -7.6744324e-02	   1.8169776e-01	
   1.1462000e+02	  -6.7759607e-02	   1.8415263e-01	
   1.1467500e+02	  -5.8555121e-02	   1.8653032e-01	
   1.1473000e+02	  -4.9150343e-02	   1.8885732e-01	
   1.1478500e+02	  -3.9555025e-02	   1.9116935e-01	
   1.1484000e+02	  -2.9763481e-02	   1.9351501e-01	
   1.1489500e+02	  -1.9749212e-02	   1.9595700e-01	
   1.1495000e+02	  -9.4618399e-03	   1.9857020e-01	
   1.1500500e+02	   1.1720842e-03	   2.0143670e-01	
   1.1506000e+02	   1.2243686e-02	   2.0463852e-01	
   1.1511500e+02	   2.3851829e-02	   2.0824867e-01	
   1.1517000e+02	   3.6089770e-02	   2.1232159e-01	
   1.1522500e+02	   4.9031128e-02	   2.1688421e-01	
   1.1528000e+02	   6.2718675e-02	   2.2193036e-01	
   1.1533500e+02	   7.7158341e-02	   2.2742071e-01	
   1.1539000e+02	   9.2318785e-02	   2.3328875e-01	
   1.1544500e+02	   1.0813549e-01	   2.3945114e-01	
   1.1550000e+02	   1.2451804e-01	   2.4581909e-01	
   1.1555500e+02	   1.4135879e-01	   2.5230777e-01	
   1.1561000e+02	   1.5854080e-01	   2.5884203e-01	
   1.1566500e+02	   1.7594376e-01	   2.6535856e-01	
   1.1572000e+02	   1.9344775e-01	   2.7180576e-01	
   1.1577500e+02	   2.1093464e-01	   2.7814194e-01	
   1.1583000e+02	   2.2828693e-01	   2.8433202e-01	
   1.1588500e+02	   2.4538481e-01	   2.9034330e-01	
   1.1594000e+02	   2.6210356e-01	   2.9614112e-01	
   1.1599500e+02	   2.7831300e-01	   3.0168574e-01	
   1.1605000e+02	   2.9388065e-01	   3.0693191e-01	
   1.1610500e+02	   3.0867898e-01	   3.1183222e-01	
   1.1616000e+02	   3.2259493e-01	   3.1634300e-01	
   1.1621500e+02	   3.3553865e-01	   3.2043064e-01	
   1.1627000e+02	   3.4744969e-01	   3.2407676e-01	
   1.1632500e+02	   3.5830063e-01	   3.2728177e-01	
   1.1638000e+02	   3.6809820e-01	   3.3006632e-01	
   1.1643500e+02	   3.7688121e-01	   3.3246966e-01	
   1.1649000e+02	   3.8471455e-01	   3.3454474e-01	
   1.1654500e+02	   3.9167994e-01	   3.3635112e-01	
   1.1660000e+02	   3.9786551e-01	   3.3794751e-01	
   1.1665500e+02	   4.0335653e-01	   3.3938541e-01	
   1.1671000e+02	   4.0822960e-01	   3.4070527e-01	
   1.1676500e+02	   4.1255162e-01	   3.4193654e-01	
   1.1682000e+02	   4.1638318e-01	   3.4310143e-01	
   1.1687500e+02	   4.1978405e-01	   3.4422016e-01	
   1.1693000e+02	   4.2281824e-01	   3.4531551e-01	
   1.1698500e+02	   4.2555715e-01	   3.4641543e-01	
   1.1704000e+02	   4.2807991e-01	   3.4755353e-01	
   1.1709500e+02	   4.3046981e-01	   3.4876699e-01	
   1.1715000e+02	   4.3280789e-01	   3.5009195e-01	
   1.1720500e+02	   4.3516661e-01	   3.5155777e-01	
   1.1726000e+02	   4.3760571e-01	   3.5318184e-01	
   1.1731500e+02	   4.4017147e-01	   3.5496632e-01	
   1.1737000e+02	   4.4289873e-01	   3.5689742e-01	
   1.1742500e+02	   4.4581504e-01	   3.5894680e-01	
   1.1748000e+02	   4.4894613e-01	   3.6107462e-01	
   1.1753500e+02	   4.5232068e-01	   3.6323325e-01	
   1.1759000e+02	   4.5597283e-01	   3.6537074e-01	
   1.1764500e+02	   4.5994213e-01	   3.6743318e-01	
   1.1770000e+02	   4.6427181e-01	   3.6936600e-01	
   1.1775500e+02	   4.6900523e-01	   3.7111453e-01	
   1.1781000e+02	   4.7418050e-01	   3.7262449e-01	
   1.1786500e+02	   4.7982501e-01	   3.7384293e-01	
   1.1792000e+02	   4.8595229e-01	   3.7472001e-01	
   1.1797500e+02	   4.9256238e-01	   3.7521195e-01	
   1.1803000e+02	   4.9964520e-01	   3.7528491e-01	
   1.1808500e+02	   5.0718572e-01	   3.7491939e-01	
   1.1814000e+02	   5.1516873e-01	   3.7411408e-01	
   1.1819500e+02	   5.2358130e-01	   3.7288811e-01	
   1.1825000e+02	   5.3241250e-01	   3.7128110e-01	
   1.1830500e+02	   5.4165124e-01	   3.6935120e-01	
   1.1836000e+02	   5.5128296e-01	   3.6717129e-01	
   1.1841500e+02	   5.6128563e-01	   3.6482394e-01	
   1.1847000e+02	   5.7162549e-01	   3.6239528e-01	
   1.1852500e+02	   5.8225270e-01	   3.5996830e-01	
   1.1858000e+02	   5.9309709e-01	   3.5761608e-01	
   1.1863500e+02	   6.0406537e-01	   3.5539594e-01	
   1.1869000e+02	   6.1504250e-01	   3.5334671e-01	
   1.1874500e+02	   6.2589869e-01	   3.5149056e-01	
   1.1880000e+02	   6.3650049e-01	   3.4983858e-01	
   1.1885500e+02	   6.4672320e-01	   3.4839758e-01	
   1.1891000e+02	   6.5646200e-01	   3.4717616e-01	
   1.1896500e+02	   6.6564054e-01	   3.4618832e-01	
   1.1902000e+02	   6.7421595e-01	   3.4545395e-01	
   1.1907500e+02	   6.8218055e-01	   3.4499613e-01	
   1.1913000e+02	   6.8956078e-01	   3.4483706e-01	
   1.1918500e+02	   6.9641346e-01	   3.4499348e-01	
   1.1924000e+02	   7.0281983e-01	   3.4547186e-01	
   1.1929500e+02	   7.0887784e-01	   3.4626388e-01	
   1.1935000e+02	   7.1469384e-01	   3.4734295e-01	
   1.1940500e+02	   7.2037397e-01	   3.4866264e-01	
   1.1946000e+02	   7.2601527e-01	   3.5015750e-01	
   1.1951500e+02	   7.3169804e-01	   3.5174681e-01	
   1.1957000e+02	   7.3748111e-01	   3.5334158e-01	
   1.1962500e+02	   7.4340102e-01	   3.5485349e-01	
   1.1968000e+02	   7.4947377e-01	   3.5620320e-01	
   1.1973500e+02	   7.5569749e-01	   3.5732675e-01	
   1.1979000e+02	   7.6205449e-01	   3.5817861e-01	
   1.1984500e+02	   7.6851189e-01	   3.5873150e-01	
   1.1990000e+02	   7.7502113e-01	   3.5897303e-01	
   1.1995500e+02	   7.8151763e-01	   3.5890071e-01	
   1.2001000e+02	   7.8792153e-01	   3.5851679e-01	
   1.2006500e+02	   7.9413895e-01	   3.5782361e-01	
   1.2012000e+02	   8.0006345e-01	   3.5682009e-01	
   1.2017500e+02	   8.0557900e-01	   3.5550043e-01	
   1.2023000e+02	   8.1056548e-01	   3.5385612e-01	
   1.2028500e+02	   8.1490600e-01	   3.5188032e-01	
   1.2034000e+02	   8.1849359e-01	   3.4957227e-01	
   1.2039500e+02	   8.2123634e-01	   3.4694007e-01	
   1.2045000e+02	   8.2306067e-01	   3.4400118e-01	
   1.2050500e+02	   8.2391291e-01	   3.4078134e-01	
   1.2056000e+02	   8.2375975e-01	   3.3731183e-01	
   1.2061500e+02	   8.2258853e-01	   3.3362552e-01	
   1.2067000e+02	   8.2040720e-01	   3.2975186e-01	
   1.2072500e+02	   8.1724344e-01	   3.2571177e-01	
   1.2078000e+02	   8.1314276e-01	   3.2151407e-01	
   1.2083500e+02	   8.0816698e-01	   3.1715489e-01	
   1.2089000e+02	   8.0239462e-01	   3.1262118e-01	
   1.2094500e+02	   7.9592287e-01	   3.0789739e-01	
   1.2100000e+02	   7.8886993e-01	   3.0297373e-01	
   1.2105500e+02	   7.8137590e-01	   2.9785419e-01	
   1.2111000e+02	   7.7360111e-01	   2.9256266e-01	
   1.2116500e+02	   7.6572072e-01	   2.8714544e-01	
   1.2122000e+02	   7.5791591e-01	   2.8166963e-01	
   1.2127500e+02	   7.5036354e-01	   2.7621846e-01	
   1.2133000e+02	   7.4322666e-01	   2.7088493e-01	
   1.2138500e+02	   7.3664671e-01	   2.6576457e-01	
   1.2144000e+02	   7.3073760e-01	   2.6094841e-01	
   1.2149500e+02	   7.2558211e-01	   2.5651721e-01	
   1.2155000e+02	   7.2123100e-01	   2.5253792e-01	
   1.2160500e+02	   7.1770479e-01	   2.4906196e-01	
   1.2166000e+02	   7.1499816e-01	   2.4612527e-01	
   1.2171500e+02	   7.1308637e-01	   2.4374971e-01	
   1.2177000e+02	   7.1193178e-01	   2.4194491e-01	
   1.2182500e+02	   7.1148847e-01	   2.4070934e-01	
   1.2188000e+02	   7.1170465e-01	   2.4002982e-01	
   1.2193500e+02	   7.1252333e-01	   2.3988001e-01	
   1.2199000e+02	   7.1388179e-01	   2.4021816e-01	
   1.2204500e+02	   7.1571029e-01	   2.4098465e-01	
   1.2210000e+02	   7.1793121e-01	   2.4210108e-01	
   1.2215500e+02	   7.2046032e-01	   2.4347284e-01	
   1.2221000e+02	   7.2321007e-01	   2.4499532e-01	
   1.2226500e+02	   7.2609369e-01	   2.4656209e-01	
   1.2232000e+02	   7.2902814e-01	   2.4807293e-01	
   1.2237500e+02	   7.3193542e-01	   2.4943989e-01	
   1.2243000e+02	   7.3474289e-01	   2.5059073e-01	
   1.2248500e+02	   7.3738323e-01	   2.5146986e-01	
   1.2254000e+02	   7.3979422e-01	   2.5203753e-01	
   1.2259500e+02	   7.4191867e-01	   2.5226790e-01	
   1.2265000e+02	   7.4370498e-01	   2.5214604e-01	
   1.2270500e+02	   7.4510870e-01	   2.5166428e-01	
   1.2276000e+02	   7.4609461e-01	   2.5081935e-01	
   1.2281500e+02	   7.4663915e-01	   2.4961148e-01	
   1.2287000e+02	   7.4673239e-01	   2.4804607e-01	
   1.2292500e+02	   7.4637967e-01	   2.4613723e-01	
   1.2298000e+02	   7.4560308e-01	   2.4391215e-01	
   1.2303500e+02	   7.4444291e-01	   2.4141462e-01	
   1.2309000e+02	   7.4295832e-01	   2.3870652e-01	
   1.2314500e+02	   7.4122647e-01	   2.3586662e-01	
   1.2320000e+02	   7.3934014e-01	   2.3298739e-01	
   1.2325500e+02	   7.3740361e-01	   2.3017003e-01	
   1.2331000e+02	   7.3552571e-01	   2.2751765e-01	
   1.2336500e+02	   7.3381013e-01	   2.2512662e-01	
   1.2342000e+02	   7.3234543e-01	   2.2307744e-01	
   1.2347500e+02	   7.3119734e-01	   2.2142699e-01	
   1.2353000e+02	   7.3040430e-01	   2.2020436e-01	
   1.2358500e+02	   7.2997599e-01	   2.1941111e-01	
   1.2364000e+02	   7.2989469e-01	   2.1902552e-01	
   1.2369500e+02	   7.3011902e-01	   2.1900942e-01	
   1.2375000e+02	   7.3058895e-01	   2.1931570e-01	
   1.2380500e+02	   7.3123080e-01	   2.1989463e-01	
   1.2386000e+02	   7.3196153e-01	   2.2069810e-01	
   1.2391500e+02	   7.3269214e-01	   2.2168154e-01	
   1.2397000e+02	   7.3333005e-01	   2.2280369e-01	
   1.2402500e+02	   7.3378095e-01	   2.2402429e-01	
   1.2408000e+02	   7.3395091e-01	   2.2530016e-01	
   1.2413500e+02	   7.3374914e-01	   2.2658112e-01	
   1.2419000e+02	   7.3309154e-01	   2.2780759e-01	
   1.2424500e+02	   7.3190614e-01	   2.2891130e-01	
   1.2430000e+02	   7.3014125e-01	   2.2981986e-01	
   1.2435500e+02	   7.2777430e-01	   2.3046396e-01	
   1.2441000e+02	   7.2481738e-01	   2.3078471e-01	
   1.2446500e+02	   7.2131718e-01	   2.3073906e-01	
   1.2452000e+02	   7.1735033e-01	   2.3030286e-01	
   1.2457500e+02	   7.1301609e-01	   2.2947090e-01	
   1.2463000e+02	   7.0842742e-01	   2.2825398e-01	
   1.2468500e+02	   7.0370128e-01	   2.2667418e-01	
   1.2474000e+02	   6.9895026e-01	   2.2476071e-01	
   1.2479500e+02	   6.9427683e-01	   2.2254726e-01	
   1.2485000e+02	   6.8977016e-01	   2.2007093e-01	
   1.2490500e+02	   6.8550502e-01	   2.1737221e-01	
   1.2496000e+02	   6.8154210e-01	   2.1449651e-01	
   1.2501500e+02	   6.7792880e-01	   2.1149591e-01	
   1.2507000e+02	   6.7469908e-01	   2.0842960e-01	
   1.2512500e+02	   6.7187297e-01	   2.0536262e-01	
   1.2518000e+02	   6.6945643e-01	   2.0236373e-01	
   1.2523500e+02	   6.6744075e-01	   1.9950225e-01	
   1.2529000e+02	   6.6580032e-01	   1.9684296e-01	
   1.2534500e+02	   6.6448961e-01	   1.9443968e-01	
   1.2540000e+02	   6.6344182e-01	   1.9232932e-01	
   1.2545500e+02	   6.6257132e-01	   1.9052787e-01	
   1.2551000e+02	   6.6177952e-01	   1.8902920e-01	
   1.2556500e+02	   6.6096317e-01	   1.8780715e-01	
   1.2562000e+02	   6.6002349e-01	   1.8682038e-01	
   1.2567500e+02	   6.5887477e-01	   1.8601861e-01	
   1.2573000e+02	   6.5745085e-01	   1.8534878e-01	
   1.2578500e+02	   6.5570869e-01	   1.8476003e-01	
   1.2584000e+02	   6.5362953e-01	   1.8420726e-01	
   1.2589500e+02	   6.5121799e-01	   1.8365286e-01	
   1.2595000e+02	   6.4849906e-01	   1.8306637e-01	
   1.2600500e+02	   6.4551332e-01	   1.8242312e-01	
   1.2606000e+02	   6.4231258e-01	   1.8170362e-01	
   1.2611500e+02	   6.3895735e-01	   1.8089430e-01	
   1.2617000e+02	   6.3551530e-01	   1.7998952e-01	
   1.2622500e+02	   6.3205980e-01	   1.7899457e-01	
   1.2628000e+02	   6.2866874e-01	   1.7792912e-01	
   1.2633500e+02	   6.2542437e-01	   1.7683041e-01	
   1.2639000e+02	   6.2241373e-01	   1.7575463e-01	
   1.2644500e+02	   6.1972825e-01	   1.7477552e-01	
   1.2650000e+02	   6.1746128e-01	   1.7398031e-01	
   1.2655500e+02	   6.1570260e-01	   1.7346338e-01	
   1.2661000e+02	   6.1453042e-01	   1.7331762e-01	
   1.2666500e+02	   6.1400215e-01	   1.7362463e-01	
   1.2672000e+02	   6.1414559e-01	   1.7444525e-01	
   1.2677500e+02	   6.1495142e-01	   1.7581217e-01	
   1.2683000e+02	   6.1636864e-01	   1.7772576e-01	
