
0   2   1   4
   0.0000000e+00	   1.7635252e+00	   3.5119305e+00	   6.8128736e-01	
   5.5000000e-02	   1.6622129e+00	   3.0337987e+00	   4.4374077e-01	
   1.1000000e-01	   1.8072692e+00	   3.2592158e+00	   6.9799457e-01	
   1.6500000e-01	   1.4332707e+00	   3.5063583e+00	   5.0888625e-01	
   2.2000000e-01	   1.4012163e+00	   2.7742063e+00	   3.8966493e-01	
   2.7500000e-01	   1.1186144e+00	   2.6195574e+00	  -8.6474714e-02	
   3.3000000e-01	   1.0480063e+00	   3.1632246e+00	   7.8514442e-02	
   3.8500000e-01	   1.1698924e+00	   2.7873587e+00	   2.6833233e-01	
   4.4000000e-01	   1.5005589e+00	   3.4256771e+00	   4.0996096e-01	
   4.9500000e-01	   1.5976865e+00	   3.0348378e+00	   6.5596240e-01	
   5.5000000e-01	   1.8318018e+00	   3.7834214e+00	   5.9755381e-01	
   6.0500000e-01	   1.9994921e+00	   3.8020845e+00	   6.8741761e-01	
   6.6000000e-01	   1.8805969e+00	   3.5220143e+00	   8.3156870e-01	
   7.1500000e-01	   1.8406154e+00	   3.4024591e+00	   6.4644154e-01	
   7.7000000e-01	   1.9028603e+00	   3.6619352e+00	   9.8182542e-01	
   8.2500000e-01	   1.6060859e+00	   3.6943347e+00	   7.8603634e-01	
   8.8000000e-01	   1.5066913e+00	   3.3246542e+00	   7.7791201e-01	
   9.3500000e-01	   1.6124726e+00	   2.9747657e+00	   4.5513314e-01	
   9.9000000e-01	   1.5503408e+00	   2.9046858e+00	   6.1138341e-01	
   1.0450000e+00	   1.2812243e+00	   3.3271725e+00	   3.2898956e-01	
   1.1000000e+00	   1.3990842e+00	   2.9256450e+00	   3.4030426e-01	
   1.1550000e+00	   1.7308461e+00	   3.4482180e+00	   9.2902664e-01	
   1.2100000e+00	   1.9039657e+00	   3.8144800e+00	   1.1186509e+00	
   1.2650000e+00	   1.7844707e+00	   3.3268714e+00	   8.8913912e-01	
   1.3200000e+00	   1.9223435e+00	   3.5473582e+00	   6.3802868e-01	
   1.3750000e+00	   1.9318319e+00	   3.6760078e+00	   1.0274860e+00	
   1.4300000e+00	   2.0076607e+00	   3.9096971e+00	   9.0360955e-01	
   1.4850000e+00	   1.7628584e+00	   3.7998186e+00	   8.9762135e-01	
   1.5400000e+00	   1.5224111e+00	   3.3432337e+00	   9.2598625e-01	
   1.5950000e+00	   1.6940934e+00	   3.6383943e+00	   9.0588511e-01	
   1.6500000e+00	   1.5817196e+00	   3.2897938e+00	   4.5150887e-01	
   1.7050000e+00	   1.3381980e+00	   3.1756068e+00	   4.6980711e-01	
   1.7600000e+00	   1.7421216e+00	   3.5973717e+00	   1.1662696e+00	
   1.8150000e+00	   2.2637834e+00	   3.8242391e+00	   1.0604198e+00	
   1.8700000e+00	   2.3246943e+00	   4.3248611e+00	   1.2748837e+00	
   1.9250000e+00	   2.0543492e+00	   3.8107745e+00	   9.1436748e-01	
   1.9800000e+00	   1.9574235e+00	   3.6488129e+00	   9.9618505e-01	
   2.0350000e+00	   2.2364416e+00	   4.0939309e+00	   1.2160332e+00	
   2.0900000e+00	   1.8856500e+00	   3.9521477e+00	   1.2488864e+00	
   2.1450000e+00	   1.6414046e+00	   3.9350778e+00	   6.6368461e-01	
   2.2000000e+00	   1.6629063e+00	   3.4620622e+00	   6.5868276e-01	
   2.2550000e+00	   1.7059201e+00	   3.6615021e+00	   9.1754184e-01	
   2.3100000e+00	   1.3716141e-01	   6.5935999e-01	   3.3992708e-01	
   2.3650000e+00	  -1.0663468e-01	  -2.5949644e-01	   1.5843293e-01	
   2.4200000e+00	  -3.3241443e-01	  -4.7643072e-01	   2.9822777e-02	
   2.4750000e+00	   8.5625175e-02	   9.9187248e-02	   5.3446404e-01	
   2.5300000e+00	   6.1199194e-01	   2.2245905e-01	   1.5198220e+00	
   2.5850000e+00	   2.2264797e+00	   4.4007461e+00	   1.4489980e+00	
   2.6400000e+00	   2.3367768e+00	   4.1468213e+00	   1.2702936e+00	
   2.6950000e+00	   2.0672539e+00	   4.3522406e+00	   1.4737113e+00	
   2.7500000e+00	   2.3483086e+00	   4.5291147e+00	   1.5380013e+00	
   2.8050000e+00	   1.9146746e+00	   4.0758345e+00	   1.2086454e+00	
   2.8600000e+00	   1.8465523e+00	   3.6524391e+00	   9.4740764e-01	
   2.9150000e+00	   1.9806658e+00	   4.3084463e+00	   1.3654266e+00	
   2.9700000e+00	   1.6284353e+00	   3.7943072e+00	   1.2625754e+00	
   3.0250000e+00	   1.7122495e+00	   3.8338403e+00	   1.1832596e+00	
   3.0800000e+00	   1.6363572e+00	   3.2559410e+00	   9.4466169e-01	
   3.1350000e+00	   1.3920974e+00	   3.6510552e+00	   6.2662620e-01	
   3.1900000e+00	   1.2959624e+00	   3.8299145e+00	   1.1277596e+00	
   3.2450000e+00	   1.3447894e+00	   3.3704886e+00	   7.0404957e-01	
   3.3000000e+00	   1.8164857e+00	   3.8816009e+00	   1.3202135e+00	
   3.3550000e+00	   2.2649115e+00	   4.2948524e+00	   1.8404758e+00	
   3.4100000e+00	   2.3235895e+00	   4.3710867e+00	   1.7577407e+00	
   3.4650000e+00	   2.1946684e+00	   4.3940798e+00	   1.2509014e+00	
   3.5200000e+00	   2.0280872e+00	   4.1152643e+00	   1.5499160e+00	
   3.5750000e+00	   1.0111524e+00	   2.2626629e+00	   1.4385914e+00	
   3.6300000e+00	   7.2903684e-01	   5.2496816e-01	   1.1139200e+00	
   3.6850000e+00	   5.2502376e-01	   9.2709829e-01	   7.9678591e-01	
   3.7400000e+00	   4.2394133e-01	   7.4854990e-01	   7.4354487e-01	
   3.7950000e+00	   5.3479176e-01	   6.2993391e-01	   9.0879309e-01	
   3.8500000e+00	   1.8609694e+00	   3.9985917e+00	   9.7917296e-01	
   3.9050000e+00	   1.5396446e+00	   3.7769353e+00	   1.0697379e+00	
   3.9600000e+00	   1.5960775e+00	   3.5058178e+00	   1.1020735e+00	
   4.0150000e+00	   1.4112707e+00	   3.8457894e+00	   7.7268213e-01	
   4.0700000e+00	   1.6507889e+00	   3.6891840e+00	   5.5575325e-01	
   4.1250000e+00	   1.8568906e+00	   4.2686638e+00	   1.4185673e+00	
   4.1800000e+00	   2.2310467e+00	   4.2654928e+00	   1.7883983e+00	
   4.2350000e+00	   2.2439954e+00	   4.5125320e+00	   1.8935077e+00	
   4.2900000e+00	   2.1824049e+00	   4.3498715e+00	   1.5911285e+00	
   4.3450000e+00	   1.9836773e+00	   4.3039572e+00	   1.5711471e+00	
   4.4000000e+00	   1.9704887e+00	   4.4277828e+00	   1.5469932e+00	
   4.4550000e+00	   2.0292916e+00	   4.2638494e+00	   1.1467490e+00	
   4.5100000e+00	   1.8075632e+00	   4.1393907e+00	   1.6806177e+00	
   4.5650000e+00	   1.7306091e+00	   3.9706105e+00	   1.4307779e+00	
   4.6200000e+00	   1.5959736e+00	   4.0398295e+00	   1.2026958e+00	
   4.6750000e+00	   1.5293684e+00	   3.9714367e+00	   1.0234450e+00	
   4.7300000e+00	   1.3059719e+00	   3.3966907e+00	   6.7987464e-01	
   4.7850000e+00	   1.0873557e+00	   3.6212331e+00	   9.0093131e-01	
   4.8400000e+00	   1.5130528e+00	   3.5051649e+00	   9.1680550e-01	
   4.8950000e+00	   1.6581894e+00	   3.9417812e+00	   1.2241956e+00	
   4.9500000e+00	   1.8287478e+00	   4.1768712e+00	   1.5665614e+00	
   5.0050000e+00	   1.9906595e+00	   4.2408340e+00	   1.6254228e+00	
   5.0600000e+00	   1.9404639e+00	   4.4288963e+00	   1.4832755e+00	
   5.1150000e+00	   1.8378497e+00	   4.5002451e+00	   1.2799496e+00	
   5.1700000e+00	   1.8976994e+00	   4.3276486e+00	   1.0357274e+00	
   5.2250000e+00	   1.7401679e+00	   4.0309144e+00	   1.5428200e+00	
   5.2800000e+00	   1.6632353e+00	   4.1695333e+00	   1.3035654e+00	
   5.3350000e+00	   1.4842298e+00	   4.0167415e+00	   1.0911832e+00	
   5.3900000e+00	   1.4724698e+00	   4.0987015e+00	   1.2460926e+00	
   5.4450000e+00	   1.4841636e+00	   3.6107075e+00	   8.9135996e-01	
   5.5000000e+00	   1.4922044e+00	   3.7788709e+00	   9.3700102e-01	
   5.5550000e+00	   1.9455192e+00	   3.9703823e+00	   1.4151166e+00	
   5.6100000e+00	   1.8814260e+00	   4.0008338e+00	   1.3844431e+00	
   5.6650000e+00	   1.9688943e+00	   4.2820793e+00	   1.7174074e+00	
   5.7200000e+00	   1.9229848e+00	   4.5355510e+00	   1.5537993e+00	
   5.7750000e+00	   2.1123322e+00	   4.2457817e+00	   1.2594671e+00	
   5.8300000e+00	   2.0114985e+00	   3.8990181e+00	   1.4024414e+00	
   5.8850000e+00	   1.7178513e+00	   4.1417263e+00	   1.4690150e+00	
   5.9400000e+00	   1.8515821e+00	   3.8624409e+00	   1.4907254e+00	
   5.9950000e+00	   1.4947875e+00	   3.4809934e+00	   9.5171686e-01	
   6.0500000e+00	   1.5372656e+00	   3.7619838e+00	   1.0196621e+00	
   6.1050000e+00	   1.4115800e+00	   3.6271584e+00	   1.1334814e+00	
   6.1600000e+00	   1.1764792e+00	   3.4285336e+00	   8.5739503e-01	
   6.2150000e+00	   1.4892440e-01	   1.7496704e+00	   5.9168930e-01	
   6.2700000e+00	   7.1444522e-02	   5.0667624e-01	   2.9807132e-01	
   6.3250000e+00	   4.3372139e-01	   1.0040724e+00	   1.1647717e+00	
   6.3800000e+00	   5.1776754e-01	   8.7852456e-01	   1.0053315e+00	
   6.4350000e+00	   2.0044667e+00	   4.4342405e+00	   1.4505993e+00	
   6.4900000e+00	   1.9989098e+00	   4.8226777e+00	   1.2892141e+00	
   6.5450000e+00	   1.9387076e+00	   4.1731944e+00	   1.2946964e+00	
   6.6000000e+00	   1.9684506e+00	   3.8060668e+00	   1.5748499e+00	
   6.6550000e+00	   1.6676030e+00	   3.9414917e+00	   1.5366448e+00	
   6.7100000e+00	   1.6217750e+00	   3.9770765e+00	   1.4895143e+00	
   6.7650000e+00	   1.5606193e+00	   3.6853105e+00	   9.9765274e-01	
   6.8200000e+00	   1.4350045e+00	   3.2185958e+00	   8.3785823e-01	
   6.8750000e+00	   1.2374111e+00	   3.5963861e+00	   7.5364381e-01	
   6.9300000e+00	   1.2988403e+00	   3.6282764e+00	   9.5542969e-01	
   6.9850000e+00	   9.9205337e-01	   3.4759678e+00	   6.5098948e-01	
   7.0400000e+00	   1.5734024e+00	   3.6667469e+00	   1.1516041e+00	
   7.0950000e+00	   1.8750874e+00	   4.1484268e+00	   9.4191591e-01	
   7.1500000e+00	   2.0204777e+00	   4.4221623e+00	   1.3928228e+00	
   7.2050000e+00	   1.9732652e+00	   4.3942705e+00	   1.7108127e+00	
   7.2600000e+00	   2.2273017e+00	   4.4762801e+00	   1.4794625e+00	
   7.3150000e+00	   7.5617023e-01	   1.1139998e+00	   1.4414223e+00	
   7.3700000e+00	   4.9967267e-01	   1.1893559e+00	   9.6483494e-01	
   7.4250000e+00	   4.8841486e-01	   4.7055716e-01	   1.1988484e+00	
   7.4800000e+00	   4.5423777e-01	   7.7816529e-01	   9.0492055e-01	
   7.5350000e+00	   3.6707906e-01	   8.5295820e-01	   1.0867299e+00	
   7.5900000e+00	   1.6393759e+00	   3.9973646e+00	   1.2376423e+00	
   7.6450000e+00	   1.5753712e+00	   3.7058864e+00	   1.2722347e+00	
   7.7000000e+00	   1.3343335e+00	   3.3119815e+00	   8.5043519e-01	
   7.7550000e+00	   1.1052954e+00	   3.2166396e+00	   6.0170309e-01	
   7.8100000e+00	   1.3283738e+00	   3.3575884e+00	   9.5374714e-01	
   7.8650000e+00	   1.8730026e+00	   3.8073254e+00	   1.2005244e+00	
   7.9200000e+00	   1.9839881e+00	   3.9277859e+00	   1.3578254e+00	
   7.9750000e+00	   1.8711654e+00	   4.3991920e+00	   1.5853174e+00	
   8.0300000e+00	   2.1825890e+00	   4.3555173e+00	   1.6791976e+00	
   8.0850000e+00	   1.0877857e+00	   2.8021618e+00	   1.2054544e+00	
   8.1400000e+00	   3.0829703e-01	   8.7429181e-01	   7.4990610e-01	
   8.1950000e+00	   5.1630898e-01	   8.7014502e-01	   1.3258634e+00	
   8.2500000e+00	   3.4844101e-01	   5.7073208e-01	   9.0248975e-01	
   8.3050000e+00	   6.7001823e-04	   3.5894927e-01	   1.1522816e+00	
   8.3600000e+00	  -1.7954832e-01	   4.2018154e-01	   7.3501065e-01	
   8.4150000e+00	   1.2789376e+00	   2.9964741e+00	   1.1802808e+00	
   8.4700000e+00	   1.1919897e+00	   2.9908957e+00	   9.7917296e-01	
   8.5250000e+00	   8.6384459e-01	   2.9890379e+00	   9.9639664e-02	
   8.5800000e+00	   1.1365395e+00	   3.4388408e+00	   4.1763340e-01	
   8.6350000e+00	   1.6906805e+00	   3.5680748e+00	   9.3364604e-01	
   8.6900000e+00	   1.6452637e+00	   3.5965624e+00	   1.2277840e+00	
   8.7450000e+00	   1.8040585e+00	   3.8806831e+00	   1.1801952e+00	
   8.8000000e+00	   1.7867216e+00	   3.8076393e+00	   1.5753499e+00	
   8.8550000e+00	   1.8606377e+00	   4.0516213e+00	   1.2773016e+00	
   8.9100000e+00	   1.6221665e+00	   3.3405084e+00	   1.1092481e+00	
   8.9650000e+00	   1.4580043e+00	   4.1452963e+00	   1.3268390e+00	
   9.0200000e+00	   1.4931478e+00	   3.6998180e+00	   1.1817018e+00	
   9.0750000e+00	   1.9793189e-01	   1.0973475e+00	   7.9607455e-01	
   9.1300000e+00	  -1.5064098e-01	   1.2381582e-01	   4.7825209e-01	
   9.1850000e+00	  -3.2013630e-01	  -1.5628622e-01	   2.9623895e-01	
   9.2400000e+00	  -4.3524573e-01	   4.5174680e-01	   1.4710064e-01	
   9.2950000e+00	  -2.6802000e-01	   3.7237444e-01	   4.8434907e-01	
   9.3500000e+00	   3.4269159e-02	   6.7186008e-01	   7.8136234e-01	
   9.4050000e+00	   1.1420892e-01	   6.0906044e-01	   7.0237925e-01	
   9.4600000e+00	   1.9372691e-01	   6.1989821e-01	   1.4699162e+00	
   9.5150000e+00	   2.3480638e-01	   6.4053108e-01	   9.2262131e-01	
   9.5700000e+00	   2.1724835e-01	   6.7965979e-01	   9.1025591e-01	
   9.6250000e+00	   3.7594668e-01	   8.0161761e-01	   1.1245473e+00	
   9.6800000e+00	   2.8162237e-02	   5.9512776e-01	   5.2146418e-01	
   9.7350000e+00	  -5.1241020e-02	   7.2764862e-01	   5.9000472e-01	
   9.7900000e+00	  -2.3532923e-01	   1.3036546e-01	   6.3886750e-01	
   9.8450000e+00	  -2.3712711e-01	   1.7773372e-01	   7.2586717e-01	
   9.9000000e+00	  -4.3947736e-01	   3.2170950e-01	   1.0289367e-01	
   9.9550000e+00	  -5.6000531e-01	  -2.1539643e-01	   2.5278051e-01	
   1.0010000e+01	  -3.3081914e-01	   2.5924135e-01	   4.6268213e-02	
   1.0065000e+01	   6.1155632e-03	   3.7585844e-01	   9.3810363e-01	
   1.0120000e+01	   1.6961803e-01	   6.0403433e-01	   5.3666962e-01	
   1.0175000e+01	   2.3635161e-01	   9.0355345e-01	   5.8741092e-01	
   1.0230000e+01	   2.4015731e-01	   6.2126454e-01	   9.8314661e-01	
   1.0285000e+01	   5.0382608e-01	   7.2185939e-01	   1.1390407e+00	
   1.0340000e+01	   4.5154033e-01	   1.1756604e+00	   1.2806636e+00	
   1.0395000e+01	   1.6942744e-01	   1.9066184e-01	   6.2545173e-01	
   1.0450000e+01	   2.8280901e-02	   3.7705059e-01	   7.9808604e-01	
   1.0505000e+01	   1.9414983e-01	   5.2745930e-01	   5.7477706e-01	
   1.0560000e+01	  -6.9650346e-02	   4.1316525e-01	   3.6102714e-01	
   1.0615000e+01	  -1.1377402e-01	   4.9522169e-02	   2.4708178e-01	
   1.0670000e+01	  -3.9828344e-01	  -3.1214026e-01	   1.5417842e-01	
   1.0725000e+01	  -3.9729119e-01	   9.6826609e-02	  -3.0168264e-01	
   1.0780000e+01	  -3.1223744e-02	  -4.1191274e-02	   5.0441994e-01	
   1.0835000e+01	   2.1716956e-01	   6.0141582e-01	   8.7586984e-01	
   1.0890000e+01	   3.3576037e-01	   8.3661523e-01	   1.0695676e+00	
   1.0945000e+01	   3.8492059e-01	   5.3489952e-01	   1.2275961e+00	
   1.1000000e+01	   4.3551518e-01	   8.6967463e-01	   1.3815934e+00	
   1.1055000e+01	   4.0992006e-01	   5.8136301e-01	   1.0911424e+00	
   1.1110000e+01	   4.3725450e-01	   9.1831095e-01	   1.4631907e+00	
   1.1165000e+01	   2.7246708e-01	   7.3397671e-01	   1.0796613e+00	
   1.1220000e+01	   3.8811873e-01	   6.4234373e-01	   7.4291390e-01	
   1.1275000e+01	   1.9229613e-01	   2.9333777e-02	   7.8915579e-01	
   1.1330000e+01	   4.1274703e-02	   4.3859793e-01	   7.6193763e-01	
   1.1385000e+01	  -3.4212510e-02	  -4.5935983e-02	   8.5237595e-01	
   1.1440000e+01	  -1.7190440e-02	  -3.4528764e-01	   5.0512676e-01	
   1.1495000e+01	  -5.1083147e-01	  -4.1757701e-01	   5.6102989e-01	
   1.1550000e+01	  -5.8579109e-02	  -1.6152377e-01	   5.5854610e-01	
   1.1605000e+01	   2.2765816e-01	   4.6005959e-01	   9.0702933e-01	
   1.1660000e+01	   3.0873002e-01	   4.8968014e-01	   8.6362686e-01	
   1.1715000e+01	   3.5395548e-01	   3.3244586e-01	   1.2275891e+00	
   1.1770000e+01	   2.8957262e-01	   3.5603348e-01	   7.0048125e-01	
   1.1825000e+01	   4.2477476e-01	   2.3519087e-01	   1.0617669e+00	
   1.1880000e+01	   2.4209217e-01	   9.7512409e-02	   9.9522152e-01	
   1.1935000e+01	   5.2277331e-02	  -5.7200804e-01	   8.0184399e-01	
   1.1990000e+01	   4.7257171e-01	   2.6715354e-01	   9.5377716e-01	
   1.2045000e+01	   1.1113412e-01	  -6.4547653e-01	   9.8340979e-01	
   1.2100000e+01	  -1.0515559e-01	  -5.7441030e-01	   1.0932149e+00	
   1.2155000e+01	  -1.2778026e-01	  -5.7730368e-01	   9.3516511e-01	
   1.2210000e+01	  -3.9060082e-01	  -2.6059377e-01	   5.8526895e-01	
   1.2265000e+01	   1.6165925e-01	  -2.5604011e-01	   5.6939133e-01	
   1.2320000e+01	  -3.6318144e-02	  -3.4212916e-01	   7.3729307e-01	
   1.2375000e+01	   1.8543167e-01	   1.1452911e-02	   1.3277633e+00	
   1.2430000e+01	   2.4239503e-01	   1.8493907e-01	   9.6619995e-01	
   1.2485000e+01	   1.1267579e-01	   9.9764372e-02	   9.4604029e-01	
   1.2540000e+01	   1.4870783e-02	  -1.7201284e-01	   9.5715205e-01	
   1.2595000e+01	   3.1447278e-01	   4.7104860e-01	   1.1858114e+00	
   1.2650000e+01	   1.4807410e-01	   3.4545469e-01	   1.1259199e+00	
   1.2705000e+01	  -5.2484092e-02	   1.5595793e-02	   4.6719583e-01	
   1.2760000e+01	  -1.3392709e-01	  -2.9708773e-01	   1.2970486e-01	
   1.2815000e+01	  -1.9222112e-01	   1.6453464e-01	   6.5210345e-01	
   1.2870000e+01	  -4.7642651e-01	   4.0169993e-01	   6.2573812e-01	
   1.2925000e+01	  -3.4011533e-01	   2.6589756e-03	   4.0629882e-01	
   1.2980000e+01	   4.2663362e-02	   1.3864722e-01	   6.2199507e-01	
   1.3035000e+01	   5.0961886e-01	   6.9897682e-01	   1.1580306e+00	
   1.3090000e+01	   4.5616852e-01	   3.9933558e-01	   1.3362664e+00	
   1.3145000e+01	   5.7839198e-01	   6.0189650e-01	   9.9522152e-01	
   1.3200000e+01	   5.8327340e-01	   6.2641151e-01	   1.4045672e+00	
   1.3255000e+01	   5.4270733e-01	   4.3152114e-01	   1.3551441e+00	
   1.3310000e+01	   3.5649370e-01	   4.0596659e-01	   1.2685429e+00	
   1.3365000e+01	   2.9827354e-01	   6.2937623e-01	   7.6351044e-01	
   1.3420000e+01	   1.4425514e-01	   4.0239744e-01	   1.2362676e+00	
   1.3475000e+01	   4.6744297e-02	   5.5394097e-01	   6.8163421e-01	
   1.3530000e+01	  -1.0968251e-03	   4.8607074e-01	   6.1570580e-01	
   1.3585000e+01	  -2.9474816e-01	  -1.3935780e-01	   5.9187985e-01	
   1.3640000e+01	   1.0109115e-01	   5.5516532e-01	   5.3981353e-01	
   1.3695000e+01	   7.0167734e-01	   9.0469731e-01	   1.0053315e+00	
   1.3750000e+01	   7.8112137e-01	   7.6912690e-01	   9.0563554e-01	
   1.3805000e+01	   7.6450905e-01	   6.8583239e-01	   1.2752281e+00	
   1.3860000e+01	   6.6695626e-01	   1.3242187e+00	   1.5135151e+00	
   1.3915000e+01	   8.3975678e-01	   1.0903970e+00	   1.2323176e+00	
   1.3970000e+01	   5.9300030e-01	   1.0260011e+00	   1.1215398e+00	
   1.4025000e+01	   4.3126215e-01	   7.0900501e-01	   1.2494094e+00	
   1.4080000e+01	   3.1070528e-01	   7.7888227e-01	   6.4820831e-01	
   1.4135000e+01	   2.5296476e-01	   7.8540782e-01	   9.6487322e-01	
   1.4190000e+01	   5.9038333e-02	   2.5591906e-01	   6.3219507e-01	
   1.4245000e+01	   9.0038014e-02	  -1.0514013e-01	   6.0463779e-01	
   1.4300000e+01	   1.9370898e-03	   3.6853299e-01	   6.4804635e-01	
   1.4355000e+01	  -7.3948802e-02	  -8.6240036e-02	   5.5765366e-01	
   1.4410000e+01	  -1.0418506e-01	  -1.0296732e-02	   2.5494954e-01	
   1.4465000e+01	   2.2027076e-01	   3.9705042e-01	   5.4407367e-01	
   1.4520000e+01	   2.5877959e-01	   3.4602481e-01	   1.2053250e+00	
   1.4575000e+01	   6.0196596e-01	   5.3267077e-01	   1.1626511e+00	
   1.4630000e+01	   4.2235227e-01	   2.9827310e-01	   6.7622784e-01	
   1.4685000e+01	   6.3008597e-01	   7.7337719e-01	   8.0906385e-01	
   1.4740000e+01	   5.1890762e-01	   9.0824662e-01	   1.0144725e+00	
   1.4795000e+01	   5.0842414e-01	   6.9574182e-01	   1.0468063e+00	
   1.4850000e+01	   1.6828172e-01	   2.7930599e-01	   1.0039612e+00	
   1.4905000e+01	   1.6512151e-01	   5.4890015e-02	   5.4538721e-01	
   1.4960000e+01	  -2.3758882e-02	   2.2946582e-01	   6.4387503e-01	
   1.5015000e+01	  -6.9799473e-03	   1.3173119e-01	   4.6293641e-01	
   1.5070000e+01	  -2.7973761e-01	  -7.9095227e-02	   3.9813692e-01	
   1.5125000e+01	  -4.4446284e-01	  -3.7020334e-01	   4.1965124e-01	
   1.5180000e+01	  -2.6219761e-01	  -6.9459732e-01	   1.9667156e-01	
   1.5235000e+01	   8.0139763e-02	   1.0592332e-02	   5.8911272e-01	
   1.5290000e+01	   1.9839485e-01	   2.8380298e-01	   2.9443123e-01	
   1.5345000e+01	   3.4533495e-01	   2.5375527e-01	   8.4242949e-01	
   1.5400000e+01	   2.0788060e-01	  -2.5847417e-01	   6.9154461e-01	
   1.5455000e+01	  -4.9279969e-02	  -4.9163269e-01	   4.9098960e-01	
   1.5510000e+01	   1.0120190e-01	  -1.2620284e-01	   6.6393478e-01	
   1.5565000e+01	   8.7256680e-02	   3.9198978e-01	   1.1622866e+00	
   1.5620000e+01	  -8.2778118e-02	  -2.8654722e-01	   7.2826922e-01	
   1.5675000e+01	  -1.1410758e-01	  -4.0931760e-01	   6.4739076e-01	
   1.5730000e+01	  -1.9074526e-01	   2.9840433e-03	   2.5610114e-01	
   1.5785000e+01	  -2.6926549e-01	  -1.5060862e-01	   5.2273249e-01	
   1.5840000e+01	  -6.6245425e-01	  -7.7967710e-01	   9.4461090e-02	
   1.5895000e+01	  -9.8781413e-01	  -1.0201212e+00	  -1.4517973e-01	
   1.5950000e+01	  -3.3052681e-01	  -8.5900285e-01	   1.8179577e-01	
   1.6005000e+01	  -2.2332502e-01	  -4.4727721e-01	   5.0960517e-01	
   1.6060000e+01	  -2.0653343e-01	  -1.9787343e-01	   5.2043467e-01	
   1.6115000e+01	  -2.8800528e-01	  -5.1256018e-01	   3.4282537e-02	
   1.6170000e+01	  -7.6541338e-02	  -2.0561181e-01	   2.3709337e-01	
   1.6225000e+01	  -1.2779606e-01	  -1.7887539e-01	   5.5832331e-01	
   1.6280000e+01	  -3.2818573e-01	  -7.8834345e-01	   2.9145709e-01	
   1.6335000e+01	  -5.2007135e-01	  -6.7059145e-01	   1.2692727e-01	
   1.6390000e+01	  -3.6705804e-01	  -5.2281527e-01	   4.9973924e-01	
   1.6445000e+01	  -6.5577024e-01	  -9.7872378e-01	   1.4609343e-01	
   1.6500000e+01	  -8.2941459e-01	  -1.1056626e+00	  -5.5350921e-01	
   1.6555000e+01	  -1.0600781e+00	  -9.2481835e-01	  -4.8389109e-01	
   1.6610000e+01	  -1.0390449e+00	  -1.2849727e+00	  -2.3435872e-01	
   1.6665000e+01	  -7.5629502e-01	  -1.1976672e+00	  -3.3249375e-01	
   1.6720000e+01	  -6.6673118e-01	  -8.4762472e-01	  -4.6749133e-01	
   1.6775000e+01	  -7.8703117e-01	  -9.4947562e-01	  -2.6773447e-01	
   1.6830000e+01	  -6.0535722e-01	  -7.5775391e-01	   3.9400278e-01	
   1.6885000e+01	  -5.7899348e-01	  -5.2629929e-01	  -2.8564120e-02	
   1.6940000e+01	  -7.9196260e-01	  -9.8025803e-01	  -6.2550254e-01	
   1.6995000e+01	  -7.6822929e-01	  -9.9382160e-01	  -3.1099855e-01	
   1.7050000e+01	  -9.0987181e-01	  -8.9759336e-01	  -2.5340820e-01	
   1.7105000e+01	  -7.5136962e-01	  -1.0378087e+00	  -3.8053266e-01	
   1.7160000e+01	  -1.2075324e+00	  -1.0989865e+00	  -8.8808334e-01	
   1.7215000e+01	  -1.0163832e+00	  -7.4208497e-01	  -7.3676155e-01	
   1.7270000e+01	  -9.7778620e-01	  -1.4499824e+00	  -5.6498439e-01	
   1.7325000e+01	  -1.3375783e+00	  -1.4987654e+00	  -1.0006257e+00	
   1.7380000e+01	  -1.0678369e+00	  -1.6155709e+00	  -8.6810994e-01	
   1.7435000e+01	  -7.2952660e-01	  -8.5286342e-01	  -6.2941507e-01	
   1.7490000e+01	  -5.7109376e-01	  -1.0180676e+00	  -7.7190650e-03	
   1.7545000e+01	  -8.7874558e-01	  -1.0591975e+00	  -7.2788950e-01	
   1.7600000e+01	  -9.6884188e-01	  -1.1148102e+00	  -3.6255111e-01	
   1.7655000e+01	  -8.9287856e-01	  -1.2720660e+00	  -3.3403376e-01	
   1.7710000e+01	  -8.1653715e-01	  -1.1446568e+00	  -6.4488572e-01	
   1.7765000e+01	  -9.1294732e-01	  -1.5527456e+00	  -4.9513254e-01	
   1.7820000e+01	  -1.2522183e+00	  -1.3586826e+00	  -9.6228288e-01	
   1.7875000e+01	  -1.1817247e+00	  -1.6251075e+00	  -7.8528259e-01	
   1.7930000e+01	  -1.3124653e+00	  -1.8033235e+00	  -1.0937120e+00	
   1.7985000e+01	  -1.6518434e+00	  -2.1101332e+00	  -1.3027996e+00	
   1.8040000e+01	  -1.5939160e+00	  -2.2863720e+00	  -1.1419648e+00	
   1.8095000e+01	  -7.6793481e-01	  -1.4146628e+00	  -7.7214931e-01	
   1.8150000e+01	  -7.8139299e-01	  -1.3994069e+00	  -5.8791127e-01	
   1.8205000e+01	  -9.9948841e-01	  -1.1343154e+00	  -6.5304249e-01	
   1.8260000e+01	  -6.5674199e-01	  -1.5092646e+00	  -8.5310110e-01	
   1.8315000e+01	  -9.2119546e-01	  -1.5877098e+00	  -4.3677131e-01	
   1.8370000e+01	  -1.0668921e+00	  -1.6195081e+00	  -9.6427946e-01	
   1.8425000e+01	  -9.8031223e-01	  -1.4140432e+00	  -9.1051865e-01	
   1.8480000e+01	  -1.4820288e+00	  -1.6398973e+00	  -1.0924314e+00	
   1.8535000e+01	  -1.2630129e+00	  -1.7567089e+00	  -9.8815572e-01	
   1.8590000e+01	  -1.3728701e+00	  -1.6825860e+00	  -9.4757767e-01	
   1.8645000e+01	  -1.4413663e+00	  -1.7363129e+00	  -1.1951202e+00	
   1.8700000e+01	  -1.5694131e+00	  -2.0504367e+00	  -1.3797574e+00	
   1.8755000e+01	  -8.6079123e-01	  -1.5710761e+00	  -1.1148124e+00	
   1.8810000e+01	  -8.6517265e-01	  -1.4428410e+00	  -7.5540718e-01	
   1.8865000e+01	  -7.2271174e-01	  -1.5120699e+00	  -5.5702839e-01	
   1.8920000e+01	  -5.0875506e-01	  -7.6341699e-01	  -4.5080759e-01	
   1.8975000e+01	  -6.6507290e-01	  -1.0308014e+00	  -6.7963994e-01	
   1.9030000e+01	  -6.6673986e-01	  -1.6698183e+00	  -6.1984353e-01	
   1.9085000e+01	  -6.7616780e-01	  -9.8892148e-01	  -7.8857802e-01	
   1.9140000e+01	  -7.7769468e-01	  -1.0680958e+00	  -1.0854005e+00	
   1.9195000e+01	  -8.2755737e-01	  -9.7420775e-01	  -5.7255881e-01	
   1.9250000e+01	  -8.7384892e-01	  -1.3011917e+00	  -1.0219830e+00	
   1.9305000e+01	  -1.0889097e+00	  -1.7115981e+00	  -8.7039452e-01	
   1.9360000e+01	  -1.1490294e+00	  -1.6198769e+00	  -9.8535807e-01	
   1.9415000e+01	  -9.4083345e-01	  -1.0169056e+00	  -9.6776233e-01	
   1.9470000e+01	  -4.7685966e-01	  -8.7974579e-01	  -1.7860226e-01	
   1.9525000e+01	  -2.2524308e-01	  -6.0066240e-01	  -8.3832259e-01	
   1.9580000e+01	  -2.1651712e-01	  -3.8069583e-01	  -4.4248466e-01	
   1.9635000e+01	  -3.3777290e-01	  -9.4353804e-01	  -4.2202937e-01	
   1.9690000e+01	  -2.4621552e-01	  -8.2813410e-01	  -5.2932470e-01	
   1.9745000e+01	  -7.1322229e-02	  -5.9828403e-01	  -1.0903290e-01	
   1.9800000e+01	  -4.7107754e-02	  -5.7076557e-01	  -7.4176293e-01	
   1.9855000e+01	  -4.8563655e-01	  -6.8369662e-01	  -4.3022376e-01	
   1.9910000e+01	  -4.7962689e-01	  -1.3788605e+00	  -9.0372081e-01	
   1.9965000e+01	  -2.8878629e-01	  -7.5307670e-01	  -8.8446661e-01	
   2.0020000e+01	  -8.3544153e-01	  -6.6783640e-01	  -6.8741677e-01	
   2.0075000e+01	  -8.1058679e-01	  -9.2042410e-01	  -1.0605984e+00	
   2.0130000e+01	  -4.7384566e-01	  -1.2744198e+00	  -7.9976466e-01	
   2.0185000e+01	  -3.4019073e-01	  -5.9775044e-01	  -8.4467892e-02	
   2.0240000e+01	   5.4341982e-02	  -2.6132727e-01	  -3.4484606e-01	
   2.0295000e+01	   1.0532907e-01	  -6.9873422e-01	  -1.3056762e-01	
   2.0350000e+01	   1.1027181e-01	  -1.8519153e-01	  -2.1753131e-01	
   2.0405000e+01	   1.0185173e-01	  -2.6572028e-01	  -1.8276133e-02	
   2.0460000e+01	   2.4618267e-01	  -2.2302984e-01	  -5.4274425e-02	
   2.0515000e+01	   1.4888693e-01	  -2.0915556e-01	  -1.7951017e-01	
   2.0570000e+01	  -3.2651106e-01	  -5.0406502e-01	  -4.5026678e-01	
   2.0625000e+01	  -4.3881378e-02	  -4.6067654e-01	  -8.6031708e-03	
   2.0680000e+01	  -2.1345595e-01	  -5.1038846e-01	  -5.6766332e-01	
   2.0735000e+01	  -2.7485356e-01	  -5.0662095e-01	  -6.3035178e-01	
   2.0790000e+01	  -5.5968466e-01	  -1.2521313e+00	  -5.7722485e-01	
   2.0845000e+01	  -5.6969595e-01	  -4.6819712e-01	  -5.4551870e-01	
   2.0900000e+01	  -1.3753615e-01	  -4.5337151e-01	  -3.7542852e-01	
   2.0955000e+01	  -1.1733060e-01	  -1.8676315e-01	   1.3263155e-01	
   2.1010000e+01	   1.0367667e-01	  -1.4103391e-01	  -1.6191189e-01	
   2.1065000e+01	   1.8051771e-01	  -7.4688815e-02	   2.7915023e-01	
   2.1120000e+01	   2.4917037e-01	   1.4619021e-01	  -5.3135155e-03	
   2.1175000e+01	   2.4163017e-01	  -9.8616908e-02	  -4.1120025e-02	
   2.1230000e+01	   3.1949649e-01	   1.1843117e-01	  -1.7647104e-01	
   2.1285000e+01	   2.1872048e-01	  -1.3229801e-03	  -7.5865517e-02	
   2.1340000e+01	  -4.4384699e-02	  -4.0310214e-01	  -9.7393265e-02	
   2.1395000e+01	  -2.6665427e-01	  -3.7145499e-01	  -6.3015690e-01	
   2.1450000e+01	  -3.3333435e-01	  -2.9497248e-01	  -3.6817357e-01	
   2.1505000e+01	  -2.1531783e-01	  -8.8160950e-02	   7.7996951e-02	
   2.1560000e+01	  -3.8834421e-01	  -6.6588471e-01	  -2.0537132e-01	
   2.1615000e+01	  -4.3520708e-01	  -7.1297738e-01	  -1.7895582e-01	
   2.1670000e+01	   8.8875672e-02	  -2.9666712e-01	   3.3274583e-01	
   2.1725000e+01	   4.3005573e-01	   4.1465152e-01	   6.5969899e-01	
   2.1780000e+01	   1.2017563e-01	  -1.5744774e-01	  -1.7746810e-01	
   2.1835000e+01	   5.0645793e-01	   4.6429109e-01	   4.3743797e-01	
   2.1890000e+01	   3.0112260e-01	   1.1105036e-01	   2.9405297e-01	
   2.1945000e+01	   3.6171331e-01	   1.6383788e-01	   4.7759459e-01	
   2.2000000e+01	   2.1032235e-02	  -1.7042124e-01	   2.2963408e-01	
   2.2055000e+01	   3.4474757e-01	   1.0569217e-01	   1.5026025e-02	
   2.2110000e+01	   1.6357396e-01	  -7.7185057e-02	   1.8420036e-01	
   2.2165000e+01	  -8.7413625e-03	  -2.8203340e-01	   4.8434519e-02	
   2.2220000e+01	  -1.8786221e-01	  -6.5208350e-01	  -3.5819828e-01	
   2.2275000e+01	  -2.6834886e-01	  -1.9524051e-01	  -2.6724552e-01	
   2.2330000e+01	  -1.4088638e-01	  -5.2717347e-01	  -5.1447307e-02	
   2.2385000e+01	  -5.5220451e-02	  -4.0836093e-01	   2.5739100e-01	
   2.2440000e+01	   3.4918633e-02	  -2.3258465e-01	   3.5394278e-01	
   2.2495000e+01	   2.2738667e-01	   2.4031804e-01	   2.3429645e-01	
   2.2550000e+01	   2.9823187e-01	  -1.4471931e-01	   6.1803985e-01	
   2.2605000e+01	   2.1199479e-01	  -3.4123774e-01	   3.7246077e-01	
   2.2660000e+01	   1.6792482e-01	  -1.4056324e-01	   7.7068704e-01	
   2.2715000e+01	   4.0585591e-01	   1.1028576e-02	   8.4913226e-01	
   2.2770000e+01	   2.8037151e-01	  -2.7597045e-01	   4.5736265e-01	
   2.2825000e+01	  -2.2611016e-01	  -6.3110599e-01	   1.1123211e-02	
   2.2880000e+01	  -3.5006883e-01	  -7.9730531e-01	  -1.2670234e-01	
   2.2935000e+01	  -4.4957884e-01	  -7.4059990e-01	   2.7654609e-01	
   2.2990000e+01	  -3.7222516e-01	  -7.7877110e-01	  -9.7581906e-02	
   2.3045000e+01	  -6.8517276e-01	  -1.2291033e+00	  -1.5881731e-01	
   2.3100000e+01	  -3.5717085e-01	  -4.2340705e-01	   1.5267755e-01	
   2.3155000e+01	  -4.5983957e-02	  -1.5950055e-01	   4.2838738e-01	
   2.3210000e+01	  -2.9972988e-02	  -4.3178890e-01	   4.9557694e-01	
   2.3265000e+01	  -1.9493646e-01	  -3.0903892e-01	   4.1317570e-01	
   2.3320000e+01	  -3.2140200e-01	  -7.8397806e-01	   4.4620255e-01	
   2.3375000e+01	  -5.7339275e-02	  -2.5390789e-01	   7.4148330e-01	
   2.3430000e+01	  -1.1209404e-01	  -2.9755350e-01	   4.0809487e-01	
   2.3485000e+01	  -2.5651914e-01	  -6.4924739e-01	   4.6709173e-01	
   2.3540000e+01	  -2.9615558e-01	  -7.1461970e-01	   1.3235573e-01	
   2.3595000e+01	  -4.5976123e-01	  -6.1746652e-01	  -1.4808961e-02	
   2.3650000e+01	  -4.9176916e-01	  -9.9733648e-01	  -5.6499272e-02	
   2.3705000e+01	  -6.6472491e-01	  -9.7680846e-01	  -2.7551387e-01	
   2.3760000e+01	  -5.4920863e-01	  -4.2633900e-01	   2.6890031e-01	
   2.3815000e+01	  -2.6683600e-01	  -1.7276918e-01	   2.6846001e-01	
   2.3870000e+01	  -8.2637281e-02	  -4.5843281e-01	   4.9868413e-01	
   2.3925000e+01	  -1.8738680e-01	  -5.0070583e-01	   2.7255398e-01	
   2.3980000e+01	  -1.5971901e-01	  -5.4547465e-01	   1.0464043e+00	
   2.4035000e+01	  -5.1755446e-02	  -2.7068543e-01	   2.0366581e-01	
   2.4090000e+01	  -6.7149679e-02	  -5.5594392e-01	   3.7004998e-01	
   2.4145000e+01	  -2.7872885e-01	  -6.8328969e-01	   1.4192562e-01	
   2.4200000e+01	  -3.0943323e-01	  -6.9298851e-01	   5.4204978e-01	
   2.4255000e+01	  -4.7963078e-01	  -5.8907113e-01	   2.0329031e-01	
   2.4310000e+01	  -4.6640949e-01	  -1.0507168e+00	  -5.9319662e-02	
   2.4365000e+01	  -7.6005065e-01	  -1.0299211e+00	  -2.3435872e-01	
   2.4420000e+01	  -9.1989259e-01	  -1.1082368e+00	  -2.7765823e-01	
   2.4475000e+01	  -3.1114745e-01	  -6.3083729e-01	   3.8076458e-01	
   2.4530000e+01	  -9.5363370e-02	  -1.8850629e-01	   6.1498506e-01	
   2.4585000e+01	  -4.9631749e-04	  -3.1052955e-01	   5.7926032e-01	
   2.4640000e+01	  -8.5062654e-03	   8.3500206e-02	   7.2726793e-01	
   2.4695000e+01	   1.6167782e-01	  -1.5743776e-01	   6.4256995e-01	
   2.4750000e+01	   3.1189945e-02	  -2.3670645e-01	   3.0644956e-01	
   2.4805000e+01	  -1.8157943e-02	  -3.0819933e-01	   5.6300352e-01	
   2.4860000e+01	  -1.7239159e-01	  -3.1188792e-01	   7.9389631e-01	
   2.4915000e+01	  -3.7201742e-02	  -4.5812938e-01	   6.2142450e-01	
   2.4970000e+01	  -2.5682164e-01	  -6.6236453e-01	   1.9611783e-01	
   2.5025000e+01	  -5.2207105e-01	  -4.0681182e-01	   1.5214709e-01	
   2.5080000e+01	  -4.9531741e-01	  -6.9936515e-01	   4.6203604e-01	
   2.5135000e+01	  -6.0158905e-01	  -8.2781499e-01	  -3.7183874e-01	
   2.5190000e+01	  -4.2228148e-01	  -7.3993695e-01	   1.2764368e-01	
   2.5245000e+01	   7.8743060e-02	  -2.4382590e-01	   7.2715872e-01	
   2.5300000e+01	   1.1972427e-01	  -2.1730787e-01	   1.0285532e+00	
   2.5355000e+01	   3.6834093e-01	   6.8739147e-02	   1.1039661e+00	
   2.5410000e+01	   3.0007149e-01	   1.1559803e-01	   9.3660067e-01	
   2.5465000e+01	   9.4969964e-02	   2.6473309e-01	   8.1446811e-01	
   2.5520000e+01	   3.2637746e-01	   2.5964300e-01	   8.8544143e-01	
   2.5575000e+01	   9.6363403e-02	  -4.1409882e-01	   3.0222735e-01	
   2.5630000e+01	  -1.2835198e-01	  -3.8649993e-01	   4.0902067e-01	
   2.5685000e+01	  -3.3375553e-02	  -4.4261951e-01	   3.6796180e-01	
   2.5740000e+01	  -2.0501646e-01	  -8.7498297e-01	   5.8305651e-01	
   2.5795000e+01	  -3.3771992e-01	  -6.4355954e-01	   4.0536624e-01	
   2.5850000e+01	  -5.8370455e-01	  -7.2623361e-01	   3.1348481e-01	
   2.5905000e+01	  -4.5360851e-01	  -6.7132277e-01	   1.2074882e-01	
   2.5960000e+01	   2.8983763e-02	  -3.5847971e-01	   7.8822624e-01	
   2.6015000e+01	   3.2338612e-01	   6.1357111e-02	   7.3501065e-01	
   2.6070000e+01	   2.0945293e-01	  -1.0366742e-01	   1.2840641e+00	
   2.6125000e+01	   3.7687472e-01	   7.1699181e-02	   1.1039661e+00	
   2.6180000e+01	   3.8229229e-01	   4.9548693e-02	   6.1058889e-01	
   2.6235000e+01	   3.6713377e-01	  -5.0353692e-01	   1.0676129e+00	
   2.6290000e+01	   3.4236472e-01	  -1.5490518e-01	   9.8369498e-01	
   2.6345000e+01	   3.5428853e-01	   1.0823504e-01	   5.6300352e-01	
   2.6400000e+01	   3.0096698e-02	  -3.0094554e-01	   7.9699253e-01	
   2.6455000e+01	  -2.5218033e-02	  -7.3165465e-01	   2.9184991e-01	
   2.6510000e+01	  -1.5107914e-01	  -6.7027348e-01	   6.8602690e-01	
   2.6565000e+01	  -1.7537612e-01	  -1.7021708e-01	   5.4354664e-01	
   2.6620000e+01	  -3.5681450e-01	  -4.5884504e-01	   3.0781115e-01	
   2.6675000e+01	  -9.7551775e-02	  -4.4496654e-01	   1.0390094e+00	
   2.6730000e+01	   2.8599138e-01	  -3.1341452e-01	   5.3250645e-01	
   2.6785000e+01	   4.1002760e-01	  -6.5641097e-02	   9.4924122e-01	
   2.6840000e+01	   4.1582464e-01	   1.6842433e-01	   1.2055213e+00	
   2.6895000e+01	   3.4356373e-01	  -1.6431054e-01	   1.0288860e+00	
   2.6950000e+01	   4.3294160e-01	  -1.9627123e-01	   1.0867299e+00	
   2.7005000e+01	   2.8586437e-01	   2.6429965e-01	   9.5238798e-01	
   2.7060000e+01	   2.7720526e-01	  -5.6624332e-01	   7.9678591e-01	
   2.7115000e+01	   1.1381482e-01	  -7.5877022e-01	   5.7732891e-01	
   2.7170000e+01	   1.4512067e-01	  -2.6888791e-01	   5.9653519e-01	
   2.7225000e+01	  -4.3076476e-02	  -5.5503414e-02	   9.5239933e-01	
   2.7280000e+01	  -2.8736987e-01	  -2.6271136e-01	   3.3285118e-01	
   2.7335000e+01	  -2.4436047e-01	  -8.0461138e-01	   7.5466077e-01	
   2.7390000e+01	  -1.6813614e-02	  -5.2277505e-01	   4.8302407e-01	
   2.7445000e+01	   2.4617293e-01	   2.2088987e-01	   1.2329537e+00	
   2.7500000e+01	   2.1219181e-01	  -1.5862812e-01	   8.3102888e-01	
   2.7555000e+01	   4.5396436e-01	   1.2801808e-01	   1.4014027e+00	
   2.7610000e+01	   4.8623694e-01	   2.5777240e-01	   9.4618731e-01	
   2.7665000e+01	   3.8963918e-01	   9.9415768e-02	   1.0739626e+00	
   2.7720000e+01	   2.4183070e-01	  -1.0171945e-01	   1.0892105e+00	
   2.7775000e+01	   1.5730377e-01	  -1.3965309e-01	   9.3050034e-01	
   2.7830000e+01	   1.1178236e-02	   1.3787308e-01	   9.6213235e-01	
   2.7885000e+01	   4.3386957e-02	  -2.6282804e-01	   5.7528278e-01	
   2.7940000e+01	  -1.7216126e-01	  -1.6787864e-01	   7.2001573e-01	
   2.7995000e+01	  -2.5462939e-01	  -6.6660866e-01	   4.1556037e-01	
   2.8050000e+01	  -1.5197499e-01	  -1.3012162e-01	   8.7838584e-01	
   2.8105000e+01	  -1.4073302e-01	  -5.8254095e-01	   5.5258517e-01	
   2.8160000e+01	  -1.4433062e-01	  -3.3869576e-01	   1.4666510e-01	
   2.8215000e+01	  -7.4382957e-03	  -4.4340305e-01	   6.8869617e-01	
   2.8270000e+01	   3.8698406e-01	  -7.8494414e-02	   1.5127206e+00	
   2.8325000e+01	   2.1072080e-01	  -2.8228838e-01	   1.1709330e+00	
   2.8380000e+01	   3.6807763e-01	  -1.1863739e-01	   9.7410983e-01	
   2.8435000e+01	   2.8353316e-01	  -3.1482405e-01	   9.1955337e-01	
   2.8490000e+01	   3.8023458e-01	  -1.0643503e-01	   1.0357696e+00	
   2.8545000e+01	   2.3747070e-01	  -3.3366985e-01	   9.1172566e-01	
   2.8600000e+01	   1.2269189e-01	  -3.7976330e-01	   6.9368311e-01	
   2.8655000e+01	  -9.1166605e-02	  -3.2169464e-01	   3.1782850e-01	
   2.8710000e+01	  -1.4498045e-01	  -5.5898009e-01	   6.5738053e-01	
   2.8765000e+01	  -5.1688324e-02	  -3.8869892e-01	   1.2923719e-01	
   2.8820000e+01	  -3.0614340e-01	  -6.4748487e-01	   1.8498005e-01	
   2.8875000e+01	   1.3157305e-01	  -2.3211410e-01	   7.3518691e-01	
   2.8930000e+01	   3.7807812e-01	  -1.0162031e-01	   1.2319908e+00	
   2.8985000e+01	   1.5317422e-01	  -4.9533011e-01	   1.0143867e+00	
   2.9040000e+01	   1.4033620e-01	  -1.4199105e-01	   7.8462053e-01	
   2.9095000e+01	   3.7993466e-01	  -2.6590093e-04	   1.1313202e+00	
   2.9150000e+01	   6.0180586e-01	  -1.3243145e-01	   1.0479629e+00	
   2.9205000e+01	   9.3970231e-02	  -3.0573231e-01	   8.6809462e-01	
   2.9260000e+01	  -1.4789670e-01	  -6.4189944e-01	   7.1552429e-01	
   2.9315000e+01	  -6.2194373e-02	  -6.6497135e-01	   6.8026281e-01	
   2.9370000e+01	   6.1691083e-03	  -2.5377465e-01	   5.2696071e-01	
   2.9425000e+01	  -2.1287734e-01	  -7.4760405e-01	   4.6920842e-01	
   2.9480000e+01	  -4.1635105e-01	  -9.2290693e-01	   4.3550800e-01	
   2.9535000e+01	   1.9696932e-01	  -5.8852519e-01	   6.1244273e-01	
   2.9590000e+01	   2.5477326e-01	  -6.9975929e-02	   1.0284085e+00	
   2.9645000e+01	   2.9232088e-01	  -8.4173342e-02	   8.7961529e-01	
   2.9700000e+01	   2.5773374e-01	  -1.8187148e-01	   7.5484068e-01	
   2.9755000e+01	   9.9872185e-02	  -2.9010949e-01	   1.1103432e+00	
   2.9810000e+01	   3.1374687e-01	  -1.3589630e-01	   1.0310967e+00	
   2.9865000e+01	   1.7858866e-01	  -6.5801803e-01	   1.0108683e+00	
   2.9920000e+01	   7.8048755e-02	  -7.0925047e-01	   5.6931896e-01	
   2.9975000e+01	  -6.6991663e-02	  -5.1467000e-01	   3.4424621e-01	
   3.0030000e+01	  -8.8742165e-02	  -7.4488054e-01	   3.1258450e-01	
   3.0085000e+01	  -3.1994845e-01	  -8.1192323e-01	   5.0515747e-01	
   3.0140000e+01	  -3.8557994e-01	  -8.1545412e-01	   3.6401089e-01	
   3.0195000e+01	   1.9253441e-01	  -1.8853157e-01	   6.5215600e-01	
   3.0250000e+01	   4.4889775e-01	  -2.8009402e-01	   1.1389576e+00	
   3.0305000e+01	   2.1042040e-01	   7.8702326e-02	   1.0692406e+00	
   3.0360000e+01	   6.1763471e-01	  -7.1925843e-02	   1.4249379e+00	
   3.0415000e+01	   4.7932530e-01	   2.7862087e-01	   1.3805473e+00	
   3.0470000e+01	   7.1566562e-01	   5.3389278e-01	   8.8229075e-01	
   3.0525000e+01	   6.1754135e-01	  -2.7177739e-01	   1.0553220e+00	
   3.0580000e+01	   4.1961883e-01	   1.5243405e-01	   9.8475927e-01	
   3.0635000e+01	   4.5864465e-01	  -1.5429572e-01	   9.9318905e-01	
   3.0690000e+01	   3.3975695e-01	  -1.9863061e-01	   9.3303754e-01	
   3.0745000e+01	   1.6836398e-01	  -1.6742507e-01	   5.6138384e-01	
   3.0800000e+01	   4.7168221e-02	  -5.6128312e-01	   6.0033321e-01	
   3.0855000e+01	   1.9859680e-01	  -3.8999891e-01	   8.2103930e-01	
   3.0910000e+01	   4.6397643e-01	  -2.9002582e-02	   9.0297907e-01	
   3.0965000e+01	   6.1061085e-01	   3.9478395e-01	   1.0782623e+00	
   3.1020000e+01	   7.6655807e-01	   2.0601575e-01	   1.2596577e+00	
   3.1075000e+01	   1.0852731e+00	   4.8888822e-01	   1.4127634e+00	
   3.1130000e+01	   1.0709996e+00	   2.7945998e-01	   1.3928659e+00	
   3.1185000e+01	   9.5422891e-01	   3.7479054e-01	   9.7719614e-01	
   3.1240000e+01	   7.7058898e-01	   3.2411739e-01	   9.5999080e-01	
   3.1295000e+01	   9.6695008e-01	   3.7396638e-01	   1.4704392e+00	
   3.1350000e+01	   8.6304465e-01	   2.4992262e-01	   9.8780108e-01	
   3.1405000e+01	   6.0693559e-01	  -9.0432676e-03	   9.3657057e-01	
   3.1460000e+01	   5.9856416e-01	   1.2420093e-01	   1.0327683e+00	
   3.1515000e+01	   6.4510947e-01	   2.7069104e-01	   8.9598402e-01	
   3.1570000e+01	   3.3336827e-01	  -5.2208331e-01	   5.9564916e-01	
   3.1625000e+01	   1.8052976e-01	  -6.5515067e-01	   6.6311181e-01	
   3.1680000e+01	   4.7330331e-01	   3.6902757e-01	   6.9702248e-01	
   3.1735000e+01	   9.9412360e-01	   3.4288291e-01	   1.5163094e+00	
   3.1790000e+01	   9.8051213e-01	   6.6192790e-01	   1.5758238e+00	
   3.1845000e+01	   9.7929015e-01	   2.5417139e-01	   1.1998613e+00	
   3.1900000e+01	   1.1998532e+00	   7.7095118e-01	   1.3298738e+00	
   3.1955000e+01	   1.0302661e+00	   8.4670814e-01	   1.4200085e+00	
   3.2010000e+01	   8.9919989e-01	   2.8027952e-01	   1.0213050e+00	
   3.2065000e+01	   7.3548592e-01	   3.3837190e-01	   1.3201541e+00	
   3.2120000e+01	   8.6216685e-01	   4.2312660e-01	   1.4795817e+00	
   3.2175000e+01	   8.7062520e-01	   2.7394789e-01	   9.0297907e-01	
   3.2230000e+01	   6.1373799e-01	   4.5354192e-01	   8.4390481e-01	
   3.2285000e+01	   5.2930133e-01	  -4.0870995e-01	   1.0395248e+00	
   3.2340000e+01	   2.8622528e-01	  -2.2403809e-01	   9.8508669e-01	
   3.2395000e+01	   4.8274042e-01	  -5.7023254e-02	   3.2724928e-01	
   3.2450000e+01	   6.6598417e-01	  -6.7146192e-02	   8.7252008e-01	
   3.2505000e+01	   7.8210299e-01	   5.3201671e-01	   1.0284085e+00	
   3.2560000e+01	   1.2782502e+00	   4.3423620e-01	   1.2666096e+00	
   3.2615000e+01	   1.3132971e+00	   5.0118909e-01	   1.1895736e+00	
   3.2670000e+01	   1.1220477e+00	   5.5655808e-01	   8.4781444e-01	
   3.2725000e+01	   9.0524497e-01	   4.0589059e-01	   9.2007420e-01	
   3.2780000e+01	   9.5098530e-01	   6.7024261e-01	   9.7830775e-01	
   3.2835000e+01	   9.6009322e-01	  -2.4363519e-02	   1.0385033e+00	
   3.2890000e+01	   6.9735076e-01	  -4.0237668e-01	   6.4606533e-01	
   3.2945000e+01	   4.6544813e-01	  -1.8498556e-01	   9.8600655e-01	
   3.3000000e+01	   5.3484823e-01	   1.8582968e-01	   9.4583399e-01	
   3.3055000e+01	   5.9270034e-01	  -2.8765665e-01	   2.5126393e-01	
   3.3110000e+01	   1.9973134e-01	  -3.3640523e-01	   4.6580076e-01	
   3.3165000e+01	   3.1405739e-01	  -1.9361741e-01	   6.2894206e-01	
   3.3220000e+01	   1.0358459e+00	   4.4998386e-01	   1.3823489e+00	
   3.3275000e+01	   1.0395754e+00	   1.2764768e-01	   1.4360556e+00	
   3.3330000e+01	   8.9376127e-01	   3.5646904e-02	   7.7531530e-01	
   3.3385000e+01	   1.0571212e+00	   4.8981642e-01	   9.5920097e-01	
   3.3440000e+01	   8.5334688e-01	   2.4426340e-01	   1.2280492e+00	
   3.3495000e+01	   9.0662529e-01	   4.3711462e-01	   1.0259120e+00	
   3.3550000e+01	   7.4528970e-01	   6.7046143e-02	   6.3675205e-01	
   3.3605000e+01	   7.7460353e-01	   3.5709825e-02	   7.8893782e-01	
   3.3660000e+01	   6.2649278e-01	  -5.4040623e-02	   7.7575598e-01	
   3.3715000e+01	   7.3002710e-01	  -6.4905995e-02	   1.1232291e-01	
   3.3770000e+01	   5.2354007e-01	  -3.1751350e-01	   3.0413695e-01	
   3.3825000e+01	   9.8992456e-02	  -5.4247202e-01	  -2.9316104e-01	
   3.3880000e+01	   7.3751484e-01	  -3.7770623e-02	   2.8316232e-01	
   3.3935000e+01	   8.6780338e-01	   3.8699291e-01	   9.6298031e-01	
   3.3990000e+01	   9.0856642e-01	   9.6757664e-02	   8.5678314e-01	
   3.4045000e+01	   9.8157809e-01	   2.2249301e-01	   6.9978599e-01	
   3.4100000e+01	   1.0515973e+00	   5.2567129e-01	   1.0936265e+00	
   3.4155000e+01	   1.0752998e+00	   5.3174599e-01	   8.6279380e-01	
   3.4210000e+01	   7.7415054e-01	   2.8356321e-01	   1.9291176e-01	
   3.4265000e+01	   4.7353218e-01	   1.6097569e-01	   7.1628964e-01	
   3.4320000e+01	   6.6347543e-01	   1.8101534e-02	   5.1177109e-01	
   3.4375000e+01	   5.2449319e-01	  -1.6365336e-01	   2.5236340e-02	
   3.4430000e+01	   3.7246185e-01	  -2.4669888e-01	   1.8137543e-01	
   3.4485000e+01	   1.9806684e-01	   8.2885496e-02	   5.5283427e-02	
   3.4540000e+01	   7.3175450e-01	  -1.4533474e-03	   9.0822345e-01	
   3.4595000e+01	   6.3014963e-01	   1.5957324e-01	   7.0183313e-01	
   3.4650000e+01	   7.9225346e-01	   1.1859716e-01	   6.7282994e-01	
   3.4705000e+01	   9.1777241e-01	   1.2368323e-01	   1.0369139e+00	
   3.4760000e+01	   8.5852917e-01	   5.4080702e-02	   8.6537254e-01	
   3.4815000e+01	   7.2174576e-01	   2.7825492e-01	   7.3573761e-01	
   3.4870000e+01	   5.2888051e-01	   2.1983675e-01	   7.7010700e-01	
   3.4925000e+01	   3.8186634e-01	   1.1988998e-01	   6.9943633e-01	
   3.4980000e+01	   4.3373496e-01	  -2.8920919e-01	   5.4287257e-01	
   3.5035000e+01	  -1.4023831e-01	  -1.8208705e-01	   2.8607255e-01	
   3.5090000e+01	  -3.6123840e-01	  -7.5634034e-01	   1.4074448e-01	
   3.5145000e+01	  -3.3954940e-01	  -9.1598299e-02	   1.1851283e-01	
   3.5200000e+01	   2.0135567e-01	  -1.3560343e-02	   4.4572906e-01	
   3.5255000e+01	   1.4250597e-01	   3.7719993e-01	   2.8547650e-01	
   3.5310000e+01	  -1.5045138e-02	  -2.3050789e-01	   8.1135883e-01	
   3.5365000e+01	   7.8841001e-02	   2.7699911e-01	   9.0764605e-01	
   3.5420000e+01	   7.9279068e-04	  -8.6199926e-02	   4.0413345e-01	
   3.5475000e+01	   2.0124989e-01	  -2.1362623e-01	   4.2804989e-01	
   3.5530000e+01	  -2.1185712e-01	  -2.6147048e-01	   3.6074931e-01	
   3.5585000e+01	  -3.6244759e-02	  -2.3501384e-01	   4.9937363e-01	
   3.5640000e+01	  -1.9757856e-01	  -4.2339489e-01	   4.5510090e-01	
   3.5695000e+01	  -2.7461071e-01	  -4.9001321e-01	   3.9319394e-01	
   3.5750000e+01	  -3.5048290e-02	  -3.7176789e-01	   9.2028312e-02	
   3.5805000e+01	   1.3124194e-01	  -2.9674661e-01	   5.7072792e-01	
   3.5860000e+01	   4.7977045e-01	  -1.8219427e-01	   1.1253329e+00	
   3.5915000e+01	   3.2391149e-01	  -1.5615439e-01	   8.6279380e-01	
   3.5970000e+01	   1.3878322e-01	  -4.9494153e-01	   6.4339366e-01	
   3.6025000e+01	   2.7568861e-01	   5.8039301e-02	   8.3676610e-01	
   3.6080000e+01	   1.1340263e-01	  -1.7567417e-01	   3.8567141e-01	
   3.6135000e+01	   1.2872429e-01	  -9.1231151e-02	   1.9030813e-01	
   3.6190000e+01	  -2.4681077e-01	  -3.6994490e-01	   2.3153810e-01	
   3.6245000e+01	  -8.3324903e-02	  -5.9041022e-01	   1.5725560e-01	
   3.6300000e+01	  -1.0370464e-01	  -4.6716377e-01	   1.7975938e-01	
   3.6355000e+01	   6.1500854e-02	  -4.7796873e-01	   3.4897589e-01	
   3.6410000e+01	   2.2909085e-01	   7.2942660e-02	   3.1528635e-01	
   3.6465000e+01	   7.3053918e-01	   4.9485551e-01	   4.9319527e-01	
   3.6520000e+01	   5.0100096e-01	  -7.0711842e-02	   7.0001812e-01	
   3.6575000e+01	   2.8032624e-01	  -3.7978851e-01	   5.6335375e-01	
   3.6630000e+01	   5.3664459e-01	  -1.4260509e-01	   3.4218997e-01	
   3.6685000e+01	   5.7457070e-01	   2.7278984e-01	   7.5494054e-01	
   3.6740000e+01	   4.6679195e-01	  -8.5983543e-02	   7.5711761e-01	
   3.6795000e+01	   4.4076445e-01	  -2.8128718e-01	   4.5927540e-01	
   3.6850000e+01	   1.8338064e-01	  -4.3127409e-01	   1.7975938e-01	
   3.6905000e+01	   3.9355219e-01	  -2.3740328e-01	  -1.5092888e-03	
   3.6960000e+01	   4.6815816e-01	   2.4845605e-01	   3.0265155e-01	
   3.7015000e+01	   6.5020898e-01	   1.7911221e-01	   7.5541051e-01	
   3.7070000e+01	   9.5552021e-01	   7.5919210e-02	   7.9327192e-01	
   3.7125000e+01	   1.0909039e+00	   3.9699851e-01	   8.2873506e-01	
   3.7180000e+01	   1.1390686e+00	   9.2373466e-01	   1.2492827e+00	
   3.7235000e+01	   1.0782051e+00	   3.9374913e-01	   5.6307319e-01	
   3.7290000e+01	   8.3038204e-01	   6.3283254e-01	   3.6294919e-01	
   3.7345000e+01	   1.0355319e+00	   4.7129171e-01	   8.4264030e-01	
   3.7400000e+01	   7.2037593e-01	   4.9266779e-01	   3.2057334e-01	
   3.7455000e+01	   6.5383175e-01	   2.9026751e-01	   3.2775021e-01	
   3.7510000e+01	   3.9555323e-01	  -8.2989382e-02	   2.2922190e-01	
   3.7565000e+01	   6.0054466e-01	   2.3251012e-01	   6.0104290e-02	
   3.7620000e+01	   8.0007171e-01	   5.8687258e-01	   7.1927555e-01	
   3.7675000e+01	   9.5354202e-01	   5.5271478e-01	   5.5448880e-01	
   3.7730000e+01	   9.5663652e-01	   6.8010167e-01	   6.8179813e-01	
   3.7785000e+01	   1.3726957e+00	   7.4696800e-01	   1.2530805e+00	
   3.7840000e+01	   1.2400934e+00	   7.0828111e-01	   1.1120699e+00	
   3.7895000e+01	   1.2391523e+00	   1.4049825e+00	   8.1359309e-01	
   3.7950000e+01	   1.0078240e+00	   7.2865520e-01	   8.1855795e-01	
   3.8005000e+01	   1.1556925e+00	   8.2569858e-01	   9.0345672e-01	
   3.8060000e+01	   8.3545655e-01	   1.7342631e-01	   9.2586810e-01	
   3.8115000e+01	   7.8876299e-01	   1.8201291e-01	   4.2061151e-01	
   3.8170000e+01	   8.1454545e-01	   2.7755476e-01	   7.6911699e-01	
   3.8225000e+01	   7.3667547e-01	   2.0314734e-01	   5.3750498e-01	
   3.8280000e+01	   7.2069480e-01	   4.3639524e-01	   6.5693098e-01	
   3.8335000e+01	   1.0956096e+00	   7.9675373e-01	   9.9630907e-01	
   3.8390000e+01	   1.1140405e+00	   5.4742620e-01	   9.4093705e-01	
   3.8445000e+01	   1.0880487e+00	   9.1117958e-01	   1.2780633e+00	
   3.8500000e+01	   1.3220055e+00	   8.9675755e-01	   9.5234186e-01	
   3.8555000e+01	   1.2523195e+00	   4.3363132e-01	   1.1975333e+00	
   3.8610000e+01	   1.1238603e+00	   4.8958960e-01	   8.2073161e-01	
   3.8665000e+01	   1.2790267e+00	   4.3220526e-01	   9.8346977e-01	
   3.8720000e+01	   1.3133975e+00	   7.6597251e-01	   1.0536885e+00	
   3.8775000e+01	   7.9427466e-01	   9.1657630e-02	   8.6406187e-01	
   3.8830000e+01	   8.1883031e-01	   5.1516588e-02	   5.1506205e-01	
   3.8885000e+01	   7.2625135e-01	   3.9839285e-01	   6.5334038e-01	
   3.8940000e+01	   5.2028830e-01	   2.1539435e-01	   5.5754482e-01	
   3.8995000e+01	   4.8633836e-01	  -1.6157609e-02	   5.8807511e-01	
   3.9050000e+01	   5.8914546e-01	   1.8303179e-02	   6.6386953e-01	
   3.9105000e+01	   1.0372011e+00	   6.5806132e-01	   1.1280023e+00	
   3.9160000e+01	   9.9538709e-01	   4.9192057e-01	   1.1597426e+00	
   3.9215000e+01	   1.2336917e+00	   8.0494244e-01	   1.0775967e+00	
   3.9270000e+01	   1.2887666e+00	   8.5470731e-01	   1.1981639e+00	
   3.9325000e+01	   1.2840888e+00	   5.7323889e-01	   1.1286368e+00	
   3.9380000e+01	   1.1416916e+00	   7.2516612e-01	   1.0645776e+00	
   3.9435000e+01	   9.5732668e-01	   2.7182172e-01	   9.6711165e-01	
   3.9490000e+01	   7.8588930e-01	   4.3959576e-01	   8.3583845e-01	
   3.9545000e+01	   9.7951245e-01	   6.9351688e-01	   6.9921580e-01	
   3.9600000e+01	   8.8080585e-01	   3.9027109e-01	   6.0233096e-01	
   3.9655000e+01	   5.3320838e-01	   1.1115465e-01	   8.1721989e-01	
   3.9710000e+01	   4.7182376e-01	   1.8790206e-01	   8.3496004e-01	
   3.9765000e+01	   3.8850400e-01	   1.5781252e-02	   5.1506497e-01	
   3.9820000e+01	   7.9340418e-01	   2.8017760e-01	   7.5085650e-01	
   3.9875000e+01	   6.9181057e-01	   2.5829317e-01	   5.9669030e-01	
   3.9930000e+01	   8.9774586e-01	   6.3979520e-01	   1.1099730e+00	
   3.9985000e+01	   1.1356027e+00	   1.1594232e+00	   1.4649481e+00	
   4.0040000e+01	   1.3434575e+00	   7.9502591e-01	   1.0577817e+00	
   4.0095000e+01	   1.0827239e+00	   9.1850106e-01	   1.0477911e+00	
   4.0150000e+01	   8.1015256e-01	   4.1122526e-01	   1.0577817e+00	
   4.0205000e+01	   1.1425345e+00	   5.7893527e-01	   1.2939727e+00	
   4.0260000e+01	   9.0480679e-01	   4.5389978e-01	   6.9509604e-01	
   4.0315000e+01	   5.4409233e-01	   1.8846669e-01	   5.5410680e-01	
   4.0370000e+01	   3.5967884e-01	   2.6236820e-01	   6.3773570e-01	
   4.0425000e+01	   5.2243192e-01	   1.4041422e-01	   8.0439692e-01	
   4.0480000e+01	   6.1013717e-02	  -2.6867564e-01	   3.2406318e-01	
   4.0535000e+01	   1.3709955e-01	  -9.6911320e-02	   5.1209085e-01	
   4.0590000e+01	   7.2026129e-01	   3.0021769e-01	   1.1604088e+00	
   4.0645000e+01	   6.5837591e-01	   8.4580213e-01	   1.0899136e+00	
   4.0700000e+01	   7.6129104e-01	   1.8999768e-01	   9.3303973e-01	
   4.0755000e+01	   7.6259592e-01	   6.6310706e-01	   7.7076754e-01	
   4.0810000e+01	   7.6893161e-01	   8.9094274e-02	   9.9860791e-01	
   4.0865000e+01	   8.0054016e-01	   1.5205214e-01	   7.9362165e-01	
   4.0920000e+01	   6.7020202e-01	   2.1689188e-01	   4.3160988e-01	
   4.0975000e+01	   4.7973967e-01	  -1.3421505e-01	   5.3622093e-01	
   4.1030000e+01	   2.5976365e-01	  -1.8411270e-01	   4.2197267e-01	
   4.1085000e+01	   2.8959631e-01	  -1.7420470e-01	   6.2369115e-01	
   4.1140000e+01	   3.1485408e-01	   1.1553893e-01	   6.2120449e-01	
   4.1195000e+01	   3.3854718e-01	  -4.3641234e-02	   4.1714401e-01	
   4.1250000e+01	   6.8974947e-01	   2.9710118e-01	   7.3303848e-01	
   4.1305000e+01	   7.0307236e-01	   3.1110888e-01	   1.0417377e+00	
   4.1360000e+01	   8.5083775e-01	   2.0597094e-01	   9.4908262e-01	
   4.1415000e+01	   5.4723195e-01	   8.8420729e-02	   6.2906724e-01	
   4.1470000e+01	   4.3715313e-01	  -1.2933226e-01	   4.6833859e-01	
   4.1525000e+01	   6.6898651e-01	   2.7866430e-01	   1.0196530e+00	
   4.1580000e+01	   5.2112384e-01	   4.2642935e-01	   6.0966607e-01	
   4.1635000e+01	   3.2489674e-01	  -2.4648871e-01	   4.8432810e-01	
   4.1690000e+01	   1.3589939e-01	  -4.9146890e-01	   4.7148676e-01	
   4.1745000e+01	   3.3992408e-01	   1.4429273e-01	   6.3667141e-01	
   4.1800000e+01	   2.4054832e-01	   2.9071344e-02	   5.7683259e-01	
   4.1855000e+01	   2.4644208e-01	  -2.5409778e-01	   1.6463563e-01	
   4.1910000e+01	   8.1917441e-01	   3.4781839e-01	   1.0296463e+00	
   4.1965000e+01	   8.3783758e-01	   6.9282783e-01	   8.9313430e-01	
   4.2020000e+01	   8.2499685e-01	   6.4950453e-01	   1.1808040e+00	
   4.2075000e+01	   6.9101803e-01	   3.3347019e-01	   4.2026528e-01	
   4.2130000e+01	   5.4386843e-01	   2.3041158e-01	   7.8522985e-01	
   4.2185000e+01	   8.9705963e-01	   4.0890654e-01	   1.1245156e+00	
   4.2240000e+01	   7.9046197e-01	   3.0057617e-01	   8.5730324e-01	
   4.2295000e+01	   5.0665842e-01	  -8.2271039e-02	  -6.2771986e-02	
   4.2350000e+01	   5.5867192e-01	   1.1608046e-01	   1.6435961e-01	
   4.2405000e+01	   3.4911283e-01	   1.2853714e-02	   7.3498015e-02	
   4.2460000e+01	   1.2666713e-01	  -6.5089555e-02	   2.0763316e-01	
   4.2515000e+01	   4.3525966e-01	   2.0333771e-01	   1.3512281e-01	
   4.2570000e+01	   8.2747121e-01	   2.0243620e-01	   8.5198480e-01	
   4.2625000e+01	   8.8089071e-01	   8.2041220e-01	   6.0272482e-01	
   4.2680000e+01	   1.0226880e+00	   9.3697085e-01	   8.9464475e-01	
   4.2735000e+01	   9.8237451e-01	   4.6841901e-01	   8.9073987e-01	
   4.2790000e+01	   9.8876350e-01	   4.2964074e-01	   7.2678775e-01	
   4.2845000e+01	   1.1616154e+00	   6.1587423e-01	   7.6005298e-01	
   4.2900000e+01	   7.6646481e-01	   9.0878335e-02	   4.9275361e-01	
   4.2955000e+01	   7.4720354e-01	   1.5745032e-01	   3.4759928e-01	
   4.3010000e+01	   5.1704445e-01	   3.9720669e-01	  -2.6931984e-02	
   4.3065000e+01	   8.2640870e-01	   1.7856502e-01	   5.1278393e-01	
   4.3120000e+01	   6.9146951e-01	   4.5896045e-01	   1.2528470e-01	
   4.3175000e+01	   3.9936156e-01	   5.6007557e-01	   1.3940937e-01	
   4.3230000e+01	   9.2340634e-01	   6.6832937e-01	   8.2643833e-01	
   4.3285000e+01	   1.0803099e+00	   6.1139384e-01	   9.0598757e-01	
   4.3340000e+01	   1.1392060e+00	   6.8859805e-01	   1.1622996e+00	
   4.3395000e+01	   1.1205943e+00	   5.6948123e-01	   5.5465486e-01	
   4.3450000e+01	   1.0808153e+00	   7.8360100e-01	   4.4148028e-01	
   4.3505000e+01	   1.1796525e+00	   7.9044173e-01	   9.0006635e-01	
   4.3560000e+01	   1.1282046e+00	   5.8002286e-01	   3.1505224e-01	
   4.3615000e+01	   8.8358822e-01	   2.7944030e-01	   4.2396240e-01	
   4.3670000e+01	   8.0737722e-01	   5.3252449e-01	   3.7342939e-01	
   4.3725000e+01	   7.6049655e-01	   2.6642815e-01	   1.8285966e-01	
   4.3780000e+01	   7.0707101e-01	  -2.2977030e-01	   3.0444042e-01	
   4.3835000e+01	   5.0756125e-01	   9.6335099e-03	   1.5621764e-01	
   4.3890000e+01	   6.6394412e-01	   4.4995847e-01	   5.5287753e-01	
   4.3945000e+01	   1.3006380e+00	   1.4654248e+00	   1.0467553e+00	
   4.4000000e+01	   1.3922777e+00	   8.1957767e-01	   7.8255520e-01	
   4.4055000e+01	   1.0124285e+00	   7.0445510e-01	   7.4393505e-01	
   4.4110000e+01	   1.0105635e+00	   5.1872375e-01	   1.4539193e-01	
   4.4165000e+01	   1.2357227e+00	   7.1920851e-01	   6.9761310e-01	
   4.4220000e+01	   1.2215387e+00	   5.0908983e-01	   5.8129699e-01	
   4.4275000e+01	   9.2976125e-01	   2.8624370e-01	   5.8306012e-01	
   4.4330000e+01	   9.1710906e-01	   2.0706962e-01	   3.2735972e-01	
   4.4385000e+01	   9.5180729e-01	   6.0536989e-01	   3.9124861e-01	
   4.4440000e+01	   8.2760719e-01	   6.3166154e-01	   6.3394862e-01	
   4.4495000e+01	   5.0251323e-01	  -3.0119274e-01	   1.4838272e-01	
   4.4550000e+01	   5.1186594e-01	  -9.0733933e-02	   4.3720535e-02	
   4.4605000e+01	   8.1238676e-01	   1.6592539e-01	   5.3956599e-01	
   4.4660000e+01	   1.2474671e+00	   8.9752225e-01	   4.4560962e-01	
   4.4715000e+01	   1.0645228e+00	   7.4576849e-01	   2.7061455e-01	
   4.4770000e+01	   1.2676380e+00	   6.0693752e-01	   7.0176993e-01	
   4.4825000e+01	   1.2551056e+00	   6.5378783e-01	   7.1246311e-01	
   4.4880000e+01	   1.1900773e+00	   4.0098284e-01	   2.4793607e-01	
   4.4935000e+01	   1.1106771e+00	   4.9829437e-01	   4.4927437e-01	
   4.4990000e+01	   8.8898205e-01	   5.9002161e-01	   3.6039408e-01	
   4.5045000e+01	   1.0085881e+00	   8.0393941e-02	   6.1164540e-01	
   4.5100000e+01	   7.5319150e-01	   2.5595973e-01	   2.1598390e-01	
   4.5155000e+01	   8.0244132e-01	   1.1415754e-01	   3.3428750e-01	
   4.5210000e+01	   5.6826051e-01	  -2.2606109e-01	   7.3363179e-02	
   4.5265000e+01	   1.0440836e+00	   2.0210652e-01	   3.4316647e-01	
   4.5320000e+01	   1.2126493e+00	   6.1574763e-01	   5.9291720e-01	
   4.5375000e+01	   1.1867825e+00	   1.0885921e-01	   1.4970893e-01	
   4.5430000e+01	   1.2263707e+00	   2.6893721e-01	   5.3161758e-01	
   4.5485000e+01	   1.1899348e+00	   6.5044381e-01	   5.4907927e-01	
   4.5540000e+01	   1.0959021e+00	   1.4394496e-01	   4.6451451e-01	
   4.5595000e+01	   1.2040532e+00	   2.8140394e-01	   3.5206997e-01	
   4.5650000e+01	   1.0700482e+00	   7.8396181e-02	   1.4376919e-01	
   4.5705000e+01	   9.3082249e-01	  -7.8127159e-02	   3.1959803e-01	
   4.5760000e+01	   8.4829450e-01	   3.6231013e-01	   5.0391693e-02	
   4.5815000e+01	   7.0883408e-01	  -2.5573518e-01	  -3.3080651e-02	
   4.5870000e+01	   5.0629160e-01	  -2.1748550e-01	   3.5498626e-02	
   4.5925000e+01	   9.2790654e-01	   1.5986247e-01	   7.9220923e-01	
   4.5980000e+01	   1.1848262e+00	   7.4995436e-02	   7.2378168e-01	
   4.6035000e+01	   1.0098229e+00	   3.9923670e-01	   1.8466659e-01	
   4.6090000e+01	   1.0512327e+00	   1.5459281e-01	   4.7255623e-01	
   4.6145000e+01	   8.7027942e-01	  -1.1122878e-01	   4.3176015e-01	
   4.6200000e+01	   1.2438996e+00	   2.6117528e-01	   1.6505955e-01	
   4.6255000e+01	   9.6245816e-01	  -3.1451829e-01	   4.8130073e-01	
   4.6310000e+01	   6.1934679e-01	  -3.2545693e-01	  -1.0067577e-01	
   4.6365000e+01	   7.4485626e-01	  -7.5473357e-02	   1.3424245e-01	
   4.6420000e+01	   6.9650272e-01	  -2.4845296e-01	   3.1472879e-01	
   4.6475000e+01	   4.5454742e-01	  -2.0186332e-01	   2.6612883e-02	
   4.6530000e+01	   3.1760343e-01	  -6.8008481e-01	  -6.5788587e-02	
   4.6585000e+01	   6.3916465e-01	  -1.4945879e-01	   1.9884848e-02	
   4.6640000e+01	   9.8652622e-01	  -7.9524132e-02	   9.1006627e-01	
   4.6695000e+01	   8.4526067e-01	  -1.4785301e-01	   3.4721650e-01	
   4.6750000e+01	   1.1739428e+00	   3.3059334e-01	   1.0349182e-01	
   4.6805000e+01	   1.3289003e+00	   5.0084372e-01	   5.1725462e-01	
   4.6860000e+01	   1.2650678e+00	   3.7982248e-01	   2.6154839e-01	
   4.6915000e+01	   1.1957769e+00	   1.7690086e-01	   4.2023134e-01	
   4.6970000e+01	   1.1990537e+00	  -3.0821244e-01	  -1.2208296e-02	
   4.7025000e+01	   9.1712583e-01	   1.8048914e-01	   1.4996502e-01	
   4.7080000e+01	   1.0266773e+00	  -2.2507061e-01	  -3.2043283e-02	
   4.7135000e+01	   7.7703738e-01	  -1.4522412e-01	  -6.5451974e-02	
   4.7190000e+01	   5.2222780e-01	   1.6941678e-02	  -1.8806713e-02	
   4.7245000e+01	   7.0698315e-01	  -2.9518246e-01	  -1.6960902e-01	
   4.7300000e+01	   1.1949714e+00	   4.9244083e-01	   5.7039857e-01	
   4.7355000e+01	   1.3867256e+00	   8.1545730e-03	   1.8404542e-01	
   4.7410000e+01	   1.1993482e+00	   3.5905720e-01	   1.1400914e-01	
   4.7465000e+01	   1.3880388e+00	   3.0607034e-01	   6.0921477e-01	
   4.7520000e+01	   1.4139431e+00	   4.3101347e-01	   7.5366416e-01	
   4.7575000e+01	   1.2466273e+00	   1.7869611e-01	   4.6848874e-01	
   4.7630000e+01	   1.0830673e+00	   5.4106183e-03	   5.0587146e-01	
   4.7685000e+01	   9.4852572e-01	  -5.3688944e-02	   3.2095726e-01	
   4.7740000e+01	   1.2369470e+00	   3.0275359e-01	   8.9871806e-02	
   4.7795000e+01	   1.1225584e+00	  -8.5859298e-02	   4.0108624e-01	
   4.7850000e+01	   8.9454450e-01	  -4.4047944e-01	   5.2965796e-01	
   4.7905000e+01	   7.5478041e-01	  -2.4209963e-01	   1.3756572e-01	
   4.7960000e+01	   5.1932349e-01	  -1.3870638e-02	   2.2101636e-01	
   4.8015000e+01	   3.8567931e-01	  -2.0422443e-01	  -3.3573166e-01	
   4.8070000e+01	   6.0600849e-01	  -3.6577473e-01	  -1.4306602e-01	
   4.8125000e+01	   1.1144766e+00	   6.6308452e-02	   3.7736500e-01	
   4.8180000e+01	   1.3929777e+00	   3.4755346e-01	   7.7662333e-01	
   4.8235000e+01	   1.2426294e+00	   2.0828428e-01	   5.9476715e-01	
   4.8290000e+01	   1.0092997e+00	  -1.1184037e-01	   2.7236779e-01	
   4.8345000e+01	   1.1114334e+00	   4.9279762e-01	   5.5006557e-01	
   4.8400000e+01	   1.1865941e+00	   5.1891167e-01	   7.6644154e-01	
   4.8455000e+01	   1.0398791e+00	  -1.1520027e-01	   6.2408499e-01	
   4.8510000e+01	   8.0799613e-01	  -6.4173342e-02	   2.2561695e-01	
   4.8565000e+01	   8.2006697e-01	  -2.9323810e-01	  -1.2276198e-01	
   4.8620000e+01	   6.5556108e-01	  -1.6116468e-02	  -3.4651559e-02	
   4.8675000e+01	   4.7204591e-01	  -6.2206622e-01	  -5.5328279e-02	
   4.8730000e+01	   3.1318705e-01	  -8.3031754e-01	  -3.2443836e-01	
   4.8785000e+01	   1.7420724e-01	  -7.1109510e-01	  -6.4279791e-02	
   4.8840000e+01	   7.3324181e-01	  -9.7341944e-02	   7.8451169e-02	
   4.8895000e+01	   1.0146469e+00	  -1.6556270e-01	   3.4123863e-01	
   4.8950000e+01	   6.6181547e-01	  -2.1561496e-01	  -1.9389150e-03	
   4.9005000e+01	   7.5852201e-01	  -1.5684287e-01	   2.7853463e-01	
   4.9060000e+01	   7.7690108e-01	   8.5857979e-02	   4.0022552e-01	
   4.9115000e+01	   7.8286589e-01	  -3.8604235e-01	  -5.8130991e-03	
   4.9170000e+01	   7.3550034e-01	  -2.3496463e-01	  -2.7805928e-01	
   4.9225000e+01	   5.3220558e-01	  -3.7928541e-01	  -1.9608499e-01	
   4.9280000e+01	   4.2142041e-01	  -3.2073785e-02	   3.2727643e-01	
   4.9335000e+01	   1.7312362e-01	  -6.7836588e-01	  -1.6182314e-01	
   4.9390000e+01	   2.1062850e-01	  -1.2667607e+00	  -3.8083779e-01	
   4.9445000e+01	  -8.5814864e-02	  -1.0762502e+00	  -2.7539238e-01	
   4.9500000e+01	   1.2311435e-02	  -8.8056999e-01	  -3.7807240e-01	
   4.9555000e+01	  -1.6412734e-02	  -8.9752680e-01	  -1.4448758e-01	
   4.9610000e+01	   3.4434137e-01	  -1.0119808e+00	   7.4128695e-02	
   4.9665000e+01	   4.4251598e-01	  -3.7091896e-01	   1.4198676e-01	
   4.9720000e+01	   3.2092934e-01	  -5.6033485e-01	  -3.0759158e-01	
   4.9775000e+01	   3.3206336e-01	  -5.4403524e-01	  -7.4623730e-03	
   4.9830000e+01	   3.7951092e-01	  -5.3141770e-01	   1.7137271e-01	
   4.9885000e+01	   4.1773706e-01	  -6.3422551e-01	   2.5834622e-02	
   4.9940000e+01	   3.4905399e-01	  -4.1977807e-01	  -4.3761039e-01	
   4.9995000e+01	   1.4396020e-01	  -5.8466475e-01	   2.2094506e-01	
   5.0050000e+01	   1.9852778e-01	  -9.6256210e-01	  -7.9536705e-01	
   5.0105000e+01	   4.7407382e-02	  -5.5469329e-01	  -6.6650917e-01	
   5.0160000e+01	  -2.3475289e-01	  -1.1241442e+00	  -5.0373773e-01	
   5.0215000e+01	  -2.7286901e-02	  -3.2575199e-01	  -4.7643903e-01	
   5.0270000e+01	   3.9655770e-01	  -8.0368828e-01	  -5.9589043e-02	
   5.0325000e+01	   3.6425464e-01	  -5.9099283e-01	  -3.0395495e-01	
   5.0380000e+01	   3.4893849e-01	  -8.0198534e-01	  -2.4004214e-01	
   5.0435000e+01	   3.0108000e-01	  -2.9937001e-01	   1.0108063e-01	
   5.0490000e+01	   4.4982511e-01	  -5.6254273e-01	  -1.9887277e-01	
   5.0545000e+01	   2.4364260e-01	  -6.3687002e-01	  -3.5074401e-01	
   5.0600000e+01	   2.9004719e-01	  -5.2933572e-01	  -4.0652041e-01	
   5.0655000e+01	   3.8367098e-01	  -9.7566518e-01	  -2.1310371e-01	
   5.0710000e+01	  -9.5635683e-02	  -1.1269024e+00	  -6.2414768e-01	
   5.0765000e+01	  -1.9487777e-01	  -9.7641458e-01	  -5.4872939e-01	
   5.0820000e+01	  -1.4133820e-01	  -9.9539281e-01	  -2.9336115e-01	
   5.0875000e+01	   4.0438621e-02	  -8.6266820e-01	  -4.2574486e-01	
   5.0930000e+01	   3.2021009e-01	  -6.9060008e-01	  -3.6517565e-01	
   5.0985000e+01	   4.7733366e-01	  -5.2234373e-01	  -5.8929633e-01	
   5.1040000e+01	   6.6522322e-01	  -4.0386202e-01	   1.7527454e-02	
   5.1095000e+01	   7.9479496e-01	  -6.7934802e-02	  -5.3568254e-02	
   5.1150000e+01	   6.7242841e-01	  -1.2087372e-01	  -2.4903855e-01	
   5.1205000e+01	   7.5412286e-01	  -5.6577996e-01	   6.9791844e-02	
   5.1260000e+01	   6.2916550e-01	  -1.1853697e-01	  -4.0515464e-02	
   5.1315000e+01	   6.6991560e-01	  -7.1208765e-01	  -7.8350167e-02	
   5.1370000e+01	   3.2153403e-01	  -6.7648879e-01	  -4.2477129e-01	
   5.1425000e+01	   3.6352061e-01	  -5.2644126e-01	  -6.1125607e-01	
   5.1480000e+01	   4.0265608e-01	  -6.3690154e-01	  -4.7903358e-01	
   5.1535000e+01	   4.3664781e-01	  -4.4194731e-01	  -8.7769452e-02	
   5.1590000e+01	   7.1556817e-01	  -2.8371825e-01	  -1.9411464e-01	
   5.1645000e+01	   9.6486483e-01	  -1.3694046e-01	  -5.3322177e-02	
   5.1700000e+01	   1.3015398e+00	   2.1541648e-01	  -8.6246331e-02	
   5.1755000e+01	   1.2378542e+00	   4.0928081e-02	   5.2368990e-01	
   5.1810000e+01	   1.1630144e+00	   4.2835259e-02	   2.9625900e-01	
   5.1865000e+01	   1.0271728e+00	  -1.9898863e-01	  -2.9877487e-02	
   5.1920000e+01	   1.1296101e+00	   2.5765338e-02	   3.7378623e-01	
   5.1975000e+01	   8.9132994e-01	  -4.9632011e-01	   3.6134820e-01	
   5.2030000e+01	   7.6058618e-01	  -2.3069978e-01	  -2.0686803e-01	
   5.2085000e+01	   6.6559027e-01	   2.6315645e-02	  -2.1790144e-01	
   5.2140000e+01	   9.4424356e-01	  -2.9257286e-02	  -2.8971719e-01	
   5.2195000e+01	   6.5287522e-01	  -2.0443752e-01	  -6.8643648e-02	
   5.2250000e+01	   7.6283534e-01	  -5.2504141e-01	  -5.3286851e-01	
   5.2305000e+01	   9.7517619e-01	   7.9072125e-02	   1.8367380e-01	
   5.2360000e+01	   1.1641005e+00	   2.0864335e-01	   4.5056524e-01	
   5.2415000e+01	   1.4537216e+00	   5.2370214e-01	   5.1282065e-01	
   5.2470000e+01	   1.2522095e+00	  -7.3367181e-02	   6.0127717e-01	
   5.2525000e+01	   1.4133832e+00	   2.7394385e-01	   7.8108802e-02	
   5.2580000e+01	   1.1542261e+00	   1.4480672e-01	   3.2488759e-01	
   5.2635000e+01	   1.4528804e+00	   6.0401307e-01	   2.5274863e-01	
   5.2690000e+01	   1.0565838e+00	   3.8294802e-01	   3.9581805e-01	
   5.2745000e+01	   9.5945666e-01	  -3.2694784e-01	   1.8547265e-01	
   5.2800000e+01	   9.3977062e-01	   5.0922875e-01	   2.5313585e-01	
   5.2855000e+01	   6.5719538e-01	   1.9546732e-01	  -3.2166276e-03	
   5.2910000e+01	   7.5555783e-01	  -5.4105005e-02	   2.5767566e-02	
   5.2965000e+01	   5.8805852e-01	  -1.9379740e-01	  -6.2763934e-02	
   5.3020000e+01	   1.1500977e+00	   7.1955836e-01	   1.1090076e+00	
   5.3075000e+01	   1.4286395e+00	   6.7468869e-01	   6.5494178e-01	
   5.3130000e+01	   1.2624030e+00	   1.9236634e-01	   4.5263463e-01	
   5.3185000e+01	   1.0874020e+00	   3.7210687e-01	   2.9989926e-01	
   5.3240000e+01	   1.2667806e+00	   4.0722859e-01	   5.3132802e-01	
   5.3295000e+01	   1.2969581e+00	   5.7573520e-01	   5.4147571e-01	
   5.3350000e+01	   1.1956252e+00	   7.3370219e-01	  -1.9388777e-02	
   5.3405000e+01	   1.0720927e+00	   6.8444774e-03	   2.8698029e-01	
   5.3460000e+01	   9.5591610e-01	   2.6844428e-01	   4.9046227e-01	
   5.3515000e+01	   8.3054388e-01	   1.7054366e-01	   2.1857098e-01	
   5.3570000e+01	   6.8046159e-01	  -1.6444136e-01	   2.2101636e-01	
   5.3625000e+01	   5.4735682e-01	  -2.1973958e-01	   2.0591441e-01	
   5.3680000e+01	   7.7501695e-01	   3.1281266e-01	   3.7495450e-01	
   5.3735000e+01	   1.2238771e+00	   5.3273063e-01	   9.8823558e-01	
   5.3790000e+01	   1.2741859e+00	   6.6802600e-02	   4.7285582e-01	
   5.3845000e+01	   1.1827832e+00	   6.1680435e-01	   5.7011209e-01	
   5.3900000e+01	   1.1072866e+00	   2.8882648e-01	   8.5381491e-01	
   5.3955000e+01	   1.1392719e+00	   2.9460104e-01	   6.5713670e-01	
   5.4010000e+01	   1.0498614e+00	   3.4241006e-01	   2.2716249e-01	
   5.4065000e+01	   9.1621773e-01	   5.3655955e-01	   3.8951107e-01	
   5.4120000e+01	   8.6423183e-01	  -4.3134950e-03	   3.3520573e-01	
   5.4175000e+01	   7.9538549e-01	   4.8721306e-01	   3.1697550e-01	
   5.4230000e+01	   8.9477404e-01	  -3.6138429e-02	   1.9934682e-01	
   5.4285000e+01	   4.9841272e-01	  -2.1245611e-01	   7.4694199e-03	
   5.4340000e+01	   7.2846156e-01	   2.1234409e-01	   4.0472796e-01	
   5.4395000e+01	   9.0642755e-01	   3.6629083e-01	   8.4898366e-01	
   5.4450000e+01	   1.0860995e+00	   6.4045437e-01	   8.4570691e-01	
   5.4505000e+01	   7.7655620e-01	   3.0277064e-01	   5.7220024e-01	
   5.4560000e+01	   8.2221446e-01	   1.1121107e-01	   5.9436076e-01	
   5.4615000e+01	   9.7113362e-01	   4.7599638e-01	   6.9002741e-01	
   5.4670000e+01	   8.2939096e-01	   2.0754340e-01	   7.1521990e-01	
   5.4725000e+01	   4.7728058e-01	  -1.6319452e-02	   1.6427452e-01	
   5.4780000e+01	   5.3250222e-01	   5.8028008e-02	   9.9889153e-02	
   5.4835000e+01	   5.4142561e-01	  -5.8950277e-02	   2.8687819e-01	
   5.4890000e+01	   1.3862250e-01	  -3.1465011e-01	   4.3437505e-01	
   5.4945000e+01	   4.3311795e-01	  -1.2847272e-01	   7.4694199e-03	
   5.5000000e+01	   1.0282812e+00	   5.0398523e-01	   7.3658658e-01	
   5.5055000e+01	   1.2991335e+00	   7.2594992e-01	   9.6422952e-01	
   5.5110000e+01	   9.8031098e-01	   3.5630105e-01	   6.6783649e-01	
   5.5165000e+01	   1.2783028e+00	   6.2116580e-01	   7.7613974e-01	
   5.5220000e+01	   1.0593120e+00	   5.9172568e-01	   8.2434927e-01	
   5.5275000e+01	   1.2889510e+00	   2.2392183e-01	   6.5610914e-01	
   5.5330000e+01	   1.1160459e+00	   6.6426411e-01	   6.7636264e-01	
   5.5385000e+01	   8.0176192e-01	  -1.0267557e-01	   3.4545257e-01	
   5.5440000e+01	   8.4613009e-01	   2.1553458e-01	   9.3864188e-01	
   5.5495000e+01	   6.2515609e-01	   8.2879209e-02	   7.3887658e-01	
   5.5550000e+01	   6.9743747e-01	   3.2650254e-01	   6.1473122e-01	
   5.5605000e+01	   9.3681945e-01	   2.8200558e-01	   8.8420326e-01	
   5.5660000e+01	   1.2612860e+00	   6.0525972e-01	   8.7595875e-01	
   5.5715000e+01	   1.5532513e+00	   1.1064661e+00	   7.3293500e-01	
   5.5770000e+01	   1.6278466e+00	   1.0044640e+00	   9.9988584e-01	
   5.5825000e+01	   1.6062371e+00	   6.1497170e-01	   8.4298347e-01	
   5.5880000e+01	   1.4979806e+00	   9.1975311e-01	   1.0727173e+00	
   5.5935000e+01	   1.6557485e+00	   8.8123997e-01	   9.2456467e-01	
   5.5990000e+01	   1.5392218e+00	   7.5577569e-01	   1.1189835e+00	
   5.6045000e+01	   1.4110141e+00	   3.5001972e-01	   7.1507479e-01	
   5.6100000e+01	   1.0386232e+00	   4.7908716e-01	   9.8012814e-01	
   5.6155000e+01	   1.1575288e+00	   6.3584827e-01	   1.2380573e+00	
   5.6210000e+01	   1.0996192e+00	   2.9803461e-01	   6.6966019e-01	
   5.6265000e+01	   7.3094751e-01	   1.8660102e-01	   2.8814362e-01	
   5.6320000e+01	   1.4025846e+00	   3.6119495e-01	   1.0235180e+00	
   5.6375000e+01	   1.7202375e+00	   1.0359225e+00	   9.8234295e-01	
   5.6430000e+01	   1.6617814e+00	   1.2672760e+00	   1.3884557e+00	
   5.6485000e+01	   1.7013351e+00	   9.4257590e-01	   1.4690229e+00	
   5.6540000e+01	   1.6107417e+00	   7.8292350e-01	   1.3417794e+00	
   5.6595000e+01	   1.5395145e+00	   7.4092466e-01	   1.3394413e+00	
   5.6650000e+01	   1.6676507e+00	   9.7316379e-01	   1.1462725e+00	
   5.6705000e+01	   1.5635751e+00	   8.4501858e-01	   8.5434237e-01	
   5.6760000e+01	   1.5127904e+00	   5.1500988e-01	   7.2270847e-01	
   5.6815000e+01	   1.3413363e+00	   6.5691489e-01	   9.1968655e-01	
   5.6870000e+01	   1.1527912e+00	   7.3656513e-01	   9.1067773e-01	
   5.6925000e+01	   7.8400109e-01	   2.4939002e-01	   9.7396503e-01	
   5.6980000e+01	   8.3642423e-01	   4.3234168e-01	   7.8801271e-01	
   5.7035000e+01	   1.3035120e+00	   7.7004409e-01	   1.1590823e+00	
   5.7090000e+01	   1.6736609e+00	   8.7006086e-01	   1.8201022e+00	
   5.7145000e+01	   1.5952865e+00	   9.9764390e-01	   1.4178540e+00	
   5.7200000e+01	   1.5016750e+00	   8.3062464e-01	   1.5230083e+00	
   5.7255000e+01	   1.7107686e+00	   1.0886870e+00	   1.4809219e+00	
   5.7310000e+01	   1.4486340e+00	   9.5591331e-01	   1.3494592e+00	
   5.7365000e+01	   1.3224171e+00	   7.6100896e-01	   1.2476238e+00	
   5.7420000e+01	   1.2552883e+00	   6.9620533e-01	   9.0937528e-01	
   5.7475000e+01	   1.1091313e+00	   5.4934301e-01	   1.0362107e+00	
   5.7530000e+01	   1.2609389e+00	   6.0134941e-01	   1.1733354e+00	
   5.7585000e+01	   8.8750257e-01	   3.8192757e-01	   8.7201027e-01	
   5.7640000e+01	   7.0172521e-01	   4.9523175e-01	   7.5901900e-01	
   5.7695000e+01	   1.2084138e+00	   7.3313685e-01	   1.3687615e+00	
   5.7750000e+01	   1.2904493e+00	   1.3789412e+00	   1.2570814e+00	
   5.7805000e+01	   1.2725160e+00	   8.7652747e-01	   1.7116360e+00	
   5.7860000e+01	   1.2919004e+00	   5.7676153e-01	   1.4180148e+00	
   5.7915000e+01	   1.3092609e+00	   7.5926758e-01	   1.6754894e+00	
   5.7970000e+01	   1.2990123e+00	   1.0718122e+00	   1.3512223e+00	
   5.8025000e+01	   1.3640920e+00	   5.3805336e-01	   1.6926826e+00	
   5.8080000e+01	   1.0003186e+00	   4.5534878e-01	   1.0981838e+00	
   5.8135000e+01	   9.0239880e-01	   6.5328565e-01	   1.1352677e+00	
   5.8190000e+01	   8.4649445e-01	   2.6152337e-01	   8.2127348e-01	
   5.8245000e+01	   6.8752948e-01	   2.6976310e-01	   8.8445733e-01	
   5.8300000e+01	   5.6728308e-01	   2.9061131e-01	   7.2419241e-01	
   5.8355000e+01	   1.1571649e+00	   8.2135026e-01	   1.4112007e+00	
   5.8410000e+01	   9.3168887e-01	   5.3176916e-01	   1.5648285e+00	
   5.8465000e+01	   1.0703400e+00	   7.7577575e-01	   1.5434771e+00	
   5.8520000e+01	   1.1019974e+00	   8.7838844e-01	   1.2983846e+00	
   5.8575000e+01	   1.3238183e+00	   8.6509463e-01	   1.8718528e+00	
   5.8630000e+01	   1.2507041e+00	   8.6745514e-01	   1.0859475e+00	
   5.8685000e+01	   1.0685538e+00	   5.8243908e-01	   1.3264659e+00	
   5.8740000e+01	   1.0013714e+00	   4.2743002e-01	   1.1003346e+00	
   5.8795000e+01	   8.6600101e-01	   7.7929709e-01	   8.9918321e-01	
   5.8850000e+01	   8.0126259e-01	   4.8425613e-01	   1.0382860e+00	
   5.8905000e+01	   6.2559162e-01	   4.4405149e-01	   7.8996856e-01	
   5.8960000e+01	   8.6311403e-01	   4.3047011e-01	   1.5120713e+00	
   5.9015000e+01	   1.2000906e+00	   8.7675645e-01	   1.7195517e+00	
   5.9070000e+01	   1.4548224e+00	   9.6409092e-01	   1.7399185e+00	
   5.9125000e+01	   1.1851915e+00	   1.0491185e+00	   1.7576718e+00	
   5.9180000e+01	   1.1668687e+00	   1.6413611e-01	   1.6268673e+00	
   5.9235000e+01	   1.1201957e+00	   1.0144755e+00	   1.3816336e+00	
   5.9290000e+01	   1.3042660e+00	   1.0372666e+00	   1.8279286e+00	
   5.9345000e+01	   1.1128840e+00	   6.6577132e-01	   1.2205159e+00	
   5.9400000e+01	   9.3932990e-01	   5.8456396e-01	   1.4687340e+00	
   5.9455000e+01	   1.0714033e+00	   6.7767433e-01	   1.2780633e+00	
   5.9510000e+01	   1.1726191e+00	   7.3433162e-01	   1.5960958e+00	
   5.9565000e+01	   7.5769018e-01	   3.1405010e-01	   1.0195455e+00	
   5.9620000e+01	   1.0248719e+00	   5.0212613e-01	   1.1585526e+00	
   5.9675000e+01	   1.5560550e+00	   1.2457770e+00	   1.9222045e+00	
   5.9730000e+01	   1.6673408e+00	   1.0260402e+00	   2.0535563e+00	
   5.9785000e+01	   1.7140356e+00	   1.2122358e+00	   1.8293497e+00	
   5.9840000e+01	   1.6675696e+00	   9.2838885e-01	   1.4698163e+00	
   5.9895000e+01	   1.7593007e+00	   1.5154166e+00	   1.7371580e+00	
   5.9950000e+01	   1.5605603e+00	   1.2442119e+00	   1.7538375e+00	
   6.0005000e+01	   1.4813422e+00	   1.2624759e+00	   1.4000342e+00	
   6.0060000e+01	   1.4000235e+00	   9.8193170e-01	   1.6709289e+00	
   6.0115000e+01	   1.2669982e+00	   9.2373603e-01	   9.5811000e-01	
   6.0170000e+01	   1.2196961e+00	   1.1383303e+00	   1.4190739e+00	
   6.0225000e+01	   9.4115389e-01	   8.6280815e-01	   1.0125928e+00	
   6.0280000e+01	   9.6437736e-01	   1.1330153e+00	   1.1497139e+00	
   6.0335000e+01	   1.4058535e+00	   1.2180257e+00	   1.7120271e+00	
   6.0390000e+01	   1.6734140e+00	   1.1803429e+00	   2.0901301e+00	
   6.0445000e+01	   1.6052460e+00	   1.2770839e+00	   1.9303550e+00	
   6.0500000e+01	   1.4269793e+00	   9.1464726e-01	   1.4707285e+00	
   6.0555000e+01	   1.6326353e+00	   1.2759264e+00	   1.9053841e+00	
   6.0610000e+01	   1.7310248e+00	   1.4555722e+00	   1.6274297e+00	
   6.0665000e+01	   1.5941649e+00	   1.1926877e+00	   1.2920382e+00	
   6.0720000e+01	   1.4348801e+00	   1.0094256e+00	   1.4666997e+00	
   6.0775000e+01	   1.1131302e+00	   9.6943813e-01	   1.4265654e+00	
   6.0830000e+01	   1.1583790e+00	   1.3488489e+00	   1.2195140e+00	
   6.0885000e+01	   1.0184881e+00	   3.0564196e-01	   9.8223933e-01	
   6.0940000e+01	   8.0375778e-01	   5.2441109e-01	   1.0038957e+00	
   6.0995000e+01	   8.1510077e-01	   8.4747377e-01	   7.4215022e-01	
   6.1050000e+01	   1.6055565e+00	   1.4245674e+00	   1.4393275e+00	
   6.1105000e+01	   1.3246426e+00	   1.4137814e+00	   1.5879782e+00	
   6.1160000e+01	   1.5117128e+00	   1.1477933e+00	   1.3618132e+00	
   6.1215000e+01	   1.6173601e+00	   1.6254813e+00	   1.4551628e+00	
   6.1270000e+01	   1.6319169e+00	   1.5454657e+00	   1.5157775e+00	
   6.1325000e+01	   1.5900106e+00	   1.2706397e+00	   2.0337568e+00	
   6.1380000e+01	   1.1717526e+00	   1.0262125e+00	   1.2893811e+00	
   6.1435000e+01	   1.2908202e+00	   8.8122618e-01	   1.5663593e+00	
   6.1490000e+01	   1.2830380e+00	   7.9315350e-01	   1.3426568e+00	
   6.1545000e+01	   1.0977663e+00	   9.3508715e-01	   1.2589852e+00	
   6.1600000e+01	   9.3817707e-01	   6.2777705e-01	   8.7753182e-01	
   6.1655000e+01	   1.0013925e+00	   8.3152117e-01	   1.1190189e+00	
   6.1710000e+01	   1.3957712e+00	   1.3840814e+00	   1.6226354e+00	
   6.1765000e+01	   1.5701957e+00	   1.1781605e+00	   1.8652223e+00	
   6.1820000e+01	   1.5025380e+00	   1.0859942e+00	   1.1475014e+00	
   6.1875000e+01	   1.4901170e+00	   8.8663500e-01	   1.4066771e+00	
   6.1930000e+01	   1.4852115e+00	   8.7178786e-01	   1.6428240e+00	
   6.1985000e+01	   1.6207679e+00	   1.2329204e+00	   1.5239345e+00	
   6.2040000e+01	   1.2748008e+00	   1.0087629e+00	   1.0859475e+00	
   6.2095000e+01	   1.0476886e+00	   1.0571928e+00	   1.0794019e+00	
   6.2150000e+01	   1.0059908e+00	   1.0085010e+00	   1.4449440e+00	
   6.2205000e+01	   9.6577152e-01	   6.4590892e-01	   6.5419030e-01	
   6.2260000e+01	   9.0146601e-01	   4.3217505e-01	   8.7454060e-01	
   6.2315000e+01	   1.3922862e+00	   6.7392312e-01	   1.2243356e+00	
   6.2370000e+01	   1.6897044e+00	   1.0784760e+00	   1.4947396e+00	
   6.2425000e+01	   1.7008269e+00	   1.1575806e+00	   1.6359560e+00	
   6.2480000e+01	   1.6572898e+00	   5.2125900e-01	   1.2753913e+00	
   6.2535000e+01	   1.5378741e+00	   1.0506577e+00	   1.4869864e+00	
   6.2590000e+01	   1.4653414e+00	   8.5938073e-01	   1.2258256e+00	
   6.2645000e+01	   1.5858339e+00	   8.6799100e-01	   7.8664028e-01	
   6.2700000e+01	   1.3994692e+00	   5.6286893e-01	   1.0768229e+00	
   6.2755000e+01	   1.2186391e+00	   5.8817088e-01	   1.0582579e+00	
   6.2810000e+01	   1.1309596e+00	   1.7432250e-01	   6.8403596e-01	
   6.2865000e+01	   1.1388115e+00	   4.9093711e-01	   8.4264030e-01	
   6.2920000e+01	   8.6759353e-01	   1.6731110e-01	   9.2088333e-01	
   6.2975000e+01	   1.1791523e+00	   7.7442700e-01	   6.9136146e-01	
   6.3030000e+01	   1.4152047e+00	   9.3080110e-01	   1.0198653e+00	
   6.3085000e+01	   1.4537656e+00	   1.2854312e+00	   1.5634388e+00	
   6.3140000e+01	   1.3958326e+00	   1.2624483e+00	   1.2113059e+00	
   6.3195000e+01	   1.6199678e+00	   1.3846599e+00	   1.5124046e+00	
   6.3250000e+01	   1.5014832e+00	   1.1170658e+00	   1.1158562e+00	
   6.3305000e+01	   1.7618670e+00	   7.9774141e-01	   1.2347058e+00	
   6.3360000e+01	   1.4261653e+00	   1.1912192e+00	   8.4017030e-01	
   6.3415000e+01	   1.2220562e+00	   6.9181621e-01	   8.1341597e-01	
   6.3470000e+01	   1.2556408e+00	   8.9148218e-01	   7.7327898e-01	
   6.3525000e+01	   1.3009309e+00	   8.2547780e-01	   1.0727290e+00	
   6.3580000e+01	   1.0755758e+00	   3.2043029e-01	   5.5754482e-01	
   6.3635000e+01	   1.3254280e+00	   1.1021568e+00	   8.6453633e-01	
   6.3690000e+01	   1.7516524e+00	   1.3158715e+00	   1.3188783e+00	
   6.3745000e+01	   1.7185801e+00	   1.7931519e+00	   1.1899452e+00	
   6.3800000e+01	   1.7203821e+00	   1.0096218e+00	   1.0715112e+00	
   6.3855000e+01	   1.9291160e+00	   1.0793713e+00	   1.0894995e+00	
   6.3910000e+01	   1.9638267e+00	   1.3910230e+00	   1.0176757e+00	
   6.3965000e+01	   1.9014106e+00	   1.1184845e+00	   8.9442658e-01	
   6.4020000e+01	   1.5737797e+00	   1.0999023e+00	   6.5690943e-01	
   6.4075000e+01	   1.4402829e+00	   6.0789223e-01	   1.5033091e-01	
   6.4130000e+01	   1.4667103e+00	   6.1222169e-01	   8.4724288e-01	
   6.4185000e+01	   1.2467019e+00	   5.9687078e-01	   5.7011209e-01	
   6.4240000e+01	   1.1104308e+00	   7.0542455e-01	   1.0907988e-01	
   6.4295000e+01	   9.5655474e-01	   1.8026818e-01	   5.9927945e-01	
   6.4350000e+01	   1.3129364e+00	   1.0647506e+00	   7.9190111e-01	
   6.4405000e+01	   1.4093918e+00	   1.2981540e+00	   1.0793570e+00	
   6.4460000e+01	   1.5073917e+00	   7.0644127e-01	   9.5336188e-01	
   6.4515000e+01	   1.6454189e+00	   1.3891652e+00	   1.0495805e+00	
   6.4570000e+01	   1.2484598e+00	   1.4405015e+00	   7.6005298e-01	
   6.4625000e+01	   1.4410364e+00	   1.2444416e+00	   1.0041341e+00	
   6.4680000e+01	   1.3495969e+00	   1.0566561e+00	   8.5212393e-01	
   6.4735000e+01	   8.9623979e-01	   9.2786756e-01	   4.0037510e-01	
   6.4790000e+01	   1.1357823e+00	   3.8507641e-01	   5.8298972e-01	
   6.4845000e+01	   1.0363069e+00	   7.7734258e-01	   5.0176053e-01	
   6.4900000e+01	   8.7424467e-01	   8.6504860e-01	   5.6257863e-01	
   6.4955000e+01	   6.6650635e-01	   1.8645098e-01	   1.4647465e-01	
   6.5010000e+01	   6.1548431e-01	   4.3319067e-01	   2.9524927e-01	
   6.5065000e+01	   8.7680189e-01	   4.9990846e-01	   7.0848555e-01	
   6.5120000e+01	   1.1830172e+00	   1.0767918e+00	   5.5753119e-01	
   6.5175000e+01	   1.1132889e+00	   3.2617209e-01	   8.0869733e-01	
   6.5230000e+01	   1.2846179e+00	   9.7350813e-01	   6.1288659e-01	
   6.5285000e+01	   1.2978419e+00	   6.1267206e-01	   1.0916071e+00	
   6.5340000e+01	   1.0222145e+00	   4.7049610e-01	   7.2281931e-01	
   6.5395000e+01	   8.4223479e-01	   3.1166581e-01	   2.2981958e-01	
   6.5450000e+01	   8.1698148e-01	   1.6715336e-01	  -5.3568254e-02	
   6.5505000e+01	   8.8527622e-01	   6.7621462e-01	   3.3086525e-01	
   6.5560000e+01	   6.8036432e-01	   2.3570358e-01	   3.6284435e-01	
   6.5615000e+01	   4.3303154e-01	  -4.1754736e-02	   3.4753763e-01	
   6.5670000e+01	   3.2404512e-01	  -7.9644772e-02	   2.0823174e-01	
   6.5725000e+01	   8.8944396e-01	   6.9359398e-01	   3.9180496e-01	
   6.5780000e+01	   9.4704239e-01	   7.3203782e-01	   6.9399085e-01	
   6.5835000e+01	   7.9592043e-01	  -1.2327337e-01	   6.4812391e-01	
   6.5890000e+01	   8.2743458e-01	   2.8290148e-01	   4.8915679e-01	
   6.5945000e+01	   9.2788261e-01	   4.7385441e-01	   4.0706189e-01	
   6.6000000e+01	   7.1141753e-01	   2.9653771e-01	   4.5532791e-01	
   6.6055000e+01	   4.4197113e-01	   5.3798376e-02	  -2.1515820e-02	
   6.6110000e+01	   5.9335578e-01	  -6.6054762e-02	   2.3360193e-02	
   6.6165000e+01	   3.4915387e-01	   1.3416662e-01	   2.0591441e-01	
   6.6220000e+01	   3.3000839e-01	   3.2538650e-01	  -7.6641404e-02	
   6.6275000e+01	  -1.0040016e-01	  -4.8324997e-01	  -1.9608499e-01	
   6.6330000e+01	  -2.5027569e-01	  -7.1601831e-01	   9.5373521e-02	
   6.6385000e+01	   7.1136522e-02	  -3.2013743e-01	  -2.7178241e-01	
   6.6440000e+01	   4.9719436e-01	  -1.5202610e-01	   1.1735195e-01	
   6.6495000e+01	   5.6428472e-01	   1.4271792e-01	   4.0633754e-01	
   6.6550000e+01	   6.3201409e-01	   3.6222444e-01	   1.6019609e-01	
   6.6605000e+01	   7.7234319e-01	   5.7626267e-01	   7.7121970e-01	
   6.6660000e+01	   6.8998754e-01	   5.3612737e-01	   2.5767566e-02	
   6.6715000e+01	   5.3060266e-01	   2.4035858e-01	   4.9045504e-04	
   6.6770000e+01	   3.7215579e-01	  -1.7208438e-01	  -8.8170363e-01	
   6.6825000e+01	   2.4410427e-01	   1.3661714e-01	  -5.0000519e-03	
   6.6880000e+01	   2.2726937e-01	  -4.8505700e-01	  -8.1394306e-03	
   6.6935000e+01	  -9.1471753e-02	  -1.1814838e+00	  -6.0591017e-01	
   6.6990000e+01	  -1.0096699e-01	  -3.1587655e-01	  -4.0563725e-01	
   6.7045000e+01	  -9.3964601e-02	  -2.9533409e-01	  -2.9272449e-01	
   6.7100000e+01	   1.4438108e-01	  -4.4108141e-01	   7.7476648e-02	
   6.7155000e+01	   3.6667152e-01	   1.4704760e-01	   1.4838272e-01	
   6.7210000e+01	   3.8422604e-01	   1.3331118e-01	   1.0675948e-01	
   6.7265000e+01	   6.0171486e-01	   4.2444131e-01	   7.8814481e-02	
   6.7320000e+01	   4.7337994e-01	   4.3237749e-01	   1.5313439e-02	
   6.7375000e+01	   4.2494503e-01	   1.2191631e-01	  -3.5646456e-01	
   6.7430000e+01	   3.1805048e-01	  -1.1778322e-01	  -4.6855777e-01	
   6.7485000e+01	   1.9267251e-01	   1.1644802e-01	  -1.6881603e-01	
   6.7540000e+01	   2.0339594e-01	  -4.8676855e-02	  -4.5190777e-01	
   6.7595000e+01	   7.7566905e-02	  -8.0753866e-02	  -5.9208483e-01	
   6.7650000e+01	   8.4609128e-02	  -3.1957182e-01	  -6.1687870e-01	
   6.7705000e+01	  -9.7588181e-02	   1.6523124e-01	  -4.6461376e-01	
   6.7760000e+01	  -3.6552168e-02	  -5.8145545e-01	  -5.7873203e-01	
   6.7815000e+01	   9.9326472e-02	  -1.0816514e-01	  -7.6579227e-01	
   6.7870000e+01	   1.6938121e-01	   2.7815174e-01	  -3.1320407e-01	
   6.7925000e+01	   5.5865370e-01	   4.8954366e-01	   2.2923039e-01	
   6.7980000e+01	   6.4287829e-01	   2.2200866e-01	   1.5307758e-01	
   6.8035000e+01	   5.6471898e-01	  -2.2761247e-02	  -2.5996723e-01	
   6.8090000e+01	   1.6830657e-01	   2.4518221e-01	  -3.3603606e-01	
   6.8145000e+01	   4.3774129e-01	   3.2639067e-01	  -2.5920087e-01	
   6.8200000e+01	   1.4726198e-01	   2.6102323e-01	  -4.0069870e-01	
   6.8255000e+01	  -2.1957913e-01	  -6.1779434e-01	  -7.1350274e-01	
   6.8310000e+01	   8.6806876e-02	  -1.4393018e-01	  -4.9647121e-01	
   6.8365000e+01	  -2.6811373e-01	  -2.6595141e-01	  -8.9170224e-01	
   6.8420000e+01	  -3.2993002e-01	  -4.3335723e-01	  -7.6486917e-01	
   6.8475000e+01	  -3.6388830e-01	  -2.7031849e-01	  -1.1276306e+00	
   6.8530000e+01	   1.7101051e-01	  -1.5835026e-01	  -4.3857398e-01	
   6.8585000e+01	   2.7809655e-01	   1.9204452e-01	  -3.1999443e-01	
   6.8640000e+01	   1.5028291e-01	  -5.3124070e-02	  -3.4577606e-01	
   6.8695000e+01	   1.4054194e-01	  -3.9631336e-01	  -3.1997905e-01	
   6.8750000e+01	   2.0355847e-01	   3.0037521e-03	  -3.6083601e-01	
   6.8805000e+01	   2.9147506e-01	  -3.0029442e-01	  -4.8220071e-01	
   6.8860000e+01	   1.5861828e-01	  -1.9207380e-01	  -3.6411695e-01	
   6.8915000e+01	  -1.4267365e-01	  -6.4857627e-01	  -7.5864167e-01	
   6.8970000e+01	  -9.0366971e-02	  -8.8846905e-01	  -9.9987683e-01	
   6.9025000e+01	  -5.2495079e-01	  -8.4188806e-01	  -7.0772613e-01	
   6.9080000e+01	  -5.4675382e-01	  -6.3367311e-01	  -7.5167507e-01	
   6.9135000e+01	  -4.6282882e-01	  -6.2588913e-01	  -7.5471994e-01	
   6.9190000e+01	  -2.9756978e-01	  -2.4408065e-01	  -2.1491930e-01	
   6.9245000e+01	   1.4507404e-01	  -2.9197832e-01	  -1.0100469e-01	
   6.9300000e+01	   1.4729762e-01	  -2.5937717e-02	  -6.8473114e-01	
   6.9355000e+01	  -1.0678348e-02	  -6.3199054e-01	  -8.0947926e-01	
   6.9410000e+01	  -1.5609272e-01	  -6.7461656e-01	  -8.7414493e-01	
   6.9465000e+01	  -8.5192151e-02	  -5.2454561e-01	  -8.2025196e-01	
   6.9520000e+01	   1.4221491e-02	  -4.0282827e-01	  -5.0049194e-01	
   6.9575000e+01	  -2.4248993e-01	  -9.5685396e-01	  -9.5229463e-01	
   6.9630000e+01	  -4.6214162e-01	  -9.8456142e-01	  -1.0657005e+00	
   6.9685000e+01	  -5.4501900e-01	  -9.7077935e-01	  -7.8100267e-01	
   6.9740000e+01	  -3.2729428e-01	  -6.7606527e-01	  -1.0163084e+00	
   6.9795000e+01	  -4.5231294e-01	  -1.1573374e+00	  -7.0695107e-01	
   6.9850000e+01	  -8.4749018e-03	  -3.2255770e-02	  -5.9730307e-01	
   6.9905000e+01	   7.9400316e-02	  -3.1548799e-01	  -3.0677635e-01	
   6.9960000e+01	   3.8642994e-01	  -5.1652136e-01	  -5.3263740e-01	
   7.0015000e+01	   9.7719893e-02	  -2.2527990e-01	  -7.3590224e-01	
   7.0070000e+01	   8.4197588e-02	  -6.2951046e-01	  -4.4208694e-01	
   7.0125000e+01	   3.1726054e-01	  -5.7423387e-02	  -6.5936634e-01	
   7.0180000e+01	   2.9650878e-01	  -4.5303795e-01	  -5.1623821e-01	
   7.0235000e+01	  -2.5497754e-01	  -1.1072745e+00	  -1.1897193e+00	
   7.0290000e+01	  -2.0196099e-01	  -4.2650515e-01	  -5.8432891e-01	
   7.0345000e+01	  -2.4118377e-01	  -5.9001694e-01	  -8.8956211e-01	
   7.0400000e+01	  -3.9997938e-01	  -8.4361950e-01	  -9.7474427e-01	
   7.0455000e+01	  -5.9131673e-01	  -8.2107532e-01	  -9.4011563e-01	
   7.0510000e+01	  -1.0115115e-01	  -6.6802103e-01	  -3.7521000e-01	
   7.0565000e+01	   2.0324076e-01	   3.7283679e-02	  -1.4413993e-01	
   7.0620000e+01	   2.5751650e-01	  -5.4980300e-01	  -4.1822041e-01	
   7.0675000e+01	   1.1382351e-01	   1.6491313e-01	  -9.0574956e-01	
   7.0730000e+01	   2.7627536e-01	   8.0772173e-02	  -4.4915854e-01	
   7.0785000e+01	   5.0861452e-01	  -3.5205004e-02	  -4.0502230e-01	
   7.0840000e+01	   3.3989694e-01	   2.9247703e-02	  -3.6479797e-01	
   7.0895000e+01	   1.8830639e-01	  -3.3251685e-01	  -1.1228228e+00	
   7.0950000e+01	   5.7703941e-03	  -5.4848641e-01	  -5.7790799e-01	
   7.1005000e+01	   2.0597873e-03	  -6.4636379e-01	  -5.5786095e-01	
   7.1060000e+01	  -8.4645917e-02	  -6.6148734e-01	  -5.6896643e-01	
   7.1115000e+01	  -3.9501835e-01	  -7.0460141e-01	  -1.0492026e+00	
   7.1170000e+01	  -3.1197875e-01	  -8.0456452e-01	  -1.0629595e+00	
   7.1225000e+01	   1.0558826e-01	  -4.1885117e-01	  -3.5173035e-01	
   7.1280000e+01	   3.1430076e-01	  -3.8363199e-01	  -2.8117831e-01	
   7.1335000e+01	   2.4048542e-01	  -2.1539169e-01	  -7.9669450e-01	
   7.1390000e+01	   5.8164333e-01	   2.0600953e-01	  -1.3863737e-01	
   7.1445000e+01	   3.7168913e-01	  -2.4865745e-02	  -1.6438335e-01	
   7.1500000e+01	   4.4978395e-01	   9.1596985e-02	  -6.3897251e-01	
   7.1555000e+01	   1.6904147e-01	  -3.8421849e-02	  -3.0645837e-01	
   7.1610000e+01	   3.9324002e-01	   3.0027995e-02	   4.2371528e-02	
   7.1665000e+01	   2.2720438e-01	  -1.2630859e-01	  -2.6892138e-01	
   7.1720000e+01	   1.3689797e-01	  -3.2950176e-01	  -4.3672729e-01	
   7.1775000e+01	  -2.0642361e-01	  -8.1003037e-01	  -1.0733712e+00	
   7.1830000e+01	  -4.0490334e-02	  -4.2390708e-01	  -7.9640898e-01	
   7.1885000e+01	  -1.8648455e-01	  -7.7320760e-01	  -1.0011580e+00	
   7.1940000e+01	  -6.9908238e-01	  -1.1289056e+00	  -1.1930012e+00	
   7.1995000e+01	  -1.3980458e-01	  -9.3940978e-01	  -8.6015729e-01	
   7.2050000e+01	   7.4331388e-02	  -4.0192315e-01	  -3.1335324e-01	
   7.2105000e+01	   1.3552712e-01	  -4.6969065e-01	  -5.1623821e-01	
   7.2160000e+01	   2.1182979e-01	  -2.6678070e-01	  -5.2525657e-01	
   7.2215000e+01	   9.9190288e-02	   1.7831005e-02	  -3.7364742e-01	
   7.2270000e+01	   2.9053475e-01	   2.5010087e-01	  -3.5522917e-01	
   7.2325000e+01	   7.5508915e-02	  -6.3997763e-01	  -5.8657022e-01	
   7.2380000e+01	   1.3525090e-02	  -7.1153214e-01	  -2.8976835e-01	
   7.2435000e+01	  -3.6360737e-01	  -4.3329000e-01	  -6.7190001e-01	
   7.2490000e+01	  -2.5710112e-01	  -7.9970898e-01	  -9.0663350e-01	
   7.2545000e+01	  -4.9256001e-01	  -1.0651495e+00	  -6.7370511e-01	
   7.2600000e+01	  -4.5805595e-01	  -1.3012783e+00	  -1.1126441e+00	
   7.2655000e+01	  -6.0882000e-01	  -6.9276326e-01	  -7.4712236e-01	
   7.2710000e+01	  -3.4638481e-02	  -3.2798355e-01	  -4.1182841e-01	
   7.2765000e+01	  -6.2185762e-02	  -5.6247802e-01	  -7.1798535e-01	
   7.2820000e+01	  -1.4470051e-01	  -8.0003850e-01	  -6.9681652e-01	
   7.2875000e+01	   1.2453189e-01	  -3.8041166e-01	  -3.5653759e-01	
   7.2930000e+01	  -1.1518330e-01	  -6.4139474e-01	  -7.2777540e-01	
   7.2985000e+01	   7.8480828e-03	  -9.4106902e-01	  -3.6327593e-01	
   7.3040000e+01	  -6.1945789e-03	  -6.9443872e-01	  -5.5263250e-01	
   7.3095000e+01	  -1.8957234e-01	  -5.8650665e-01	  -7.9212437e-01	
   7.3150000e+01	  -3.8069073e-01	  -1.0818112e+00	  -6.9739595e-01	
   7.3205000e+01	  -3.3328599e-01	  -1.0800147e+00	  -7.6400717e-01	
   7.3260000e+01	  -6.0382503e-01	  -1.2883367e+00	  -1.0962729e+00	
   7.3315000e+01	  -4.5176307e-01	  -1.1043691e+00	  -9.7242973e-01	
   7.3370000e+01	  -1.8036889e-01	  -3.3965087e-01	  -4.7965727e-01	
   7.3425000e+01	   1.6709172e-01	  -3.0885884e-01	  -3.8737677e-01	
   7.3480000e+01	   1.0433326e-01	  -5.3547504e-01	  -4.7361490e-01	
   7.3535000e+01	   3.6801677e-01	  -9.9803725e-02	  -5.0423659e-01	
   7.3590000e+01	   4.1871360e-02	  -4.9760785e-01	  -5.7753151e-01	
   7.3645000e+01	  -6.5290685e-02	  -4.5243835e-01	  -5.4560469e-01	
   7.3700000e+01	   3.4616273e-03	  -2.9863383e-01	  -4.4067990e-01	
   7.3755000e+01	  -2.2913599e-01	  -1.0083722e-01	  -9.2059578e-01	
   7.3810000e+01	  -2.1467972e-01	  -7.4734790e-01	  -9.0210989e-01	
   7.3865000e+01	  -3.0430264e-01	  -6.0560102e-01	  -1.0429670e+00	
   7.3920000e+01	  -4.7304399e-01	  -6.1256191e-01	  -7.0609029e-01	
   7.3975000e+01	  -5.1577406e-01	  -1.0621690e+00	  -1.0931954e+00	
   7.4030000e+01	  -4.2848747e-01	  -9.7706040e-01	  -1.0992218e+00	
   7.4085000e+01	  -1.6538409e-01	  -6.9823570e-01	  -6.3121570e-01	
   7.4140000e+01	   8.0846237e-02	  -2.8414905e-01	  -3.8057484e-01	
   7.4195000e+01	   1.8464467e-01	  -3.9678521e-01	  -6.0273411e-01	
   7.4250000e+01	   2.4491480e-01	  -2.0508826e-01	  -1.5789130e-01	
   7.4305000e+01	   3.3659133e-01	  -2.2837278e-01	  -5.0845684e-01	
   7.4360000e+01	   2.8977631e-01	  -1.9085786e-01	  -5.1373477e-01	
   7.4415000e+01	   1.5869581e-01	  -7.0218835e-01	  -8.6932885e-01	
   7.4470000e+01	  -6.8894693e-03	  -4.7359726e-01	  -7.2543380e-01	
   7.4525000e+01	   6.3118035e-02	  -3.7282903e-01	  -6.3001705e-01	
   7.4580000e+01	  -1.9604411e-01	  -9.0551425e-01	  -1.0385584e+00	
   7.4635000e+01	  -2.0826111e-01	  -9.8878415e-01	  -9.1648654e-01	
   7.4690000e+01	  -3.3257200e-01	  -5.1845221e-01	  -7.2554638e-01	
   7.4745000e+01	   3.8033011e-02	  -1.2805347e-01	  -6.8133512e-01	
   7.4800000e+01	   5.6650840e-02	  -4.4168979e-01	  -6.7723658e-01	
   7.4855000e+01	   3.6216046e-01	  -1.7616354e-01	  -2.0720142e-01	
   7.4910000e+01	   4.6653616e-01	  -3.8964890e-01	  -2.7534225e-01	
   7.4965000e+01	   6.7869998e-01	  -3.3639529e-01	  -1.7281323e-01	
   7.5020000e+01	   3.2947164e-01	   7.6940454e-02	  -2.7923179e-01	
   7.5075000e+01	   2.9158712e-01	  -5.3511281e-01	  -7.0275652e-01	
   7.5130000e+01	   2.0552207e-01	  -8.0702379e-02	  -8.9650878e-01	
   7.5185000e+01	   6.5510956e-02	  -3.7555866e-01	  -7.5654254e-01	
   7.5240000e+01	   1.5580051e-01	  -3.2311434e-01	  -7.8513873e-01	
   7.5295000e+01	  -2.3267999e-01	  -6.8749433e-01	  -7.0518362e-01	
   7.5350000e+01	  -4.6102559e-02	  -6.1603360e-01	  -7.4525456e-01	
   7.5405000e+01	  -9.6504146e-02	  -7.8760655e-01	  -8.7602996e-01	
   7.5460000e+01	  -7.4464282e-02	  -4.6951220e-01	  -5.6030562e-01	
   7.5515000e+01	   2.0923026e-01	  -4.9709461e-01	  -2.5223403e-01	
   7.5570000e+01	   4.8479259e-01	  -8.8025529e-02	  -4.1530504e-01	
   7.5625000e+01	   4.7591118e-01	  -7.6062473e-02	  -8.7368924e-02	
   7.5680000e+01	   2.4513515e-01	  -3.2653927e-01	  -4.9492426e-01	
   7.5735000e+01	   4.3373542e-01	  -1.4783606e-01	  -5.0113623e-01	
   7.5790000e+01	   4.9461112e-01	  -2.9132778e-01	  -3.2809330e-01	
   7.5845000e+01	  -6.3488935e-02	  -7.4972619e-01	  -1.0310201e+00	
   7.5900000e+01	   1.4341179e-02	  -5.6366367e-01	  -4.6087240e-01	
   7.5955000e+01	   2.0265479e-01	  -1.5843242e-01	  -3.8095603e-01	
   7.6010000e+01	  -1.4270332e-01	  -8.3638728e-01	  -8.6527668e-01	
   7.6065000e+01	  -1.0267001e-01	  -1.0298061e+00	  -1.1193154e+00	
   7.6120000e+01	   1.6468251e-01	  -2.8191147e-01	  -6.1834684e-01	
   7.6175000e+01	   4.9762863e-01	  -4.2502548e-01	  -2.5648802e-01	
   7.6230000e+01	   3.8745214e-01	  -3.3329700e-01	  -4.7903579e-01	
   7.6285000e+01	   2.0007650e-01	  -5.1799046e-01	  -4.3414456e-01	
   7.6340000e+01	   5.0826686e-01	   1.7307654e-01	  -1.1721595e-01	
   7.6395000e+01	   6.7914034e-01	  -2.6391213e-01	  -3.4752852e-01	
   7.6450000e+01	   4.1913644e-01	  -3.1441461e-01	  -4.1197236e-01	
   7.6505000e+01	   1.2128790e-01	  -3.4042279e-01	  -4.2755371e-01	
   7.6560000e+01	   2.0320814e-01	  -3.6374387e-01	  -5.7481051e-01	
   7.6615000e+01	  -1.2782460e-01	  -8.9088221e-01	  -7.5520166e-01	
   7.6670000e+01	  -3.5659304e-01	  -1.3867087e+00	  -7.6606741e-01	
   7.6725000e+01	  -2.1138393e-02	  -7.2002152e-01	  -5.3481658e-01	
   7.6780000e+01	   2.3023095e-01	  -1.7567931e-01	  -2.7725078e-01	
   7.6835000e+01	   5.0082724e-01	   1.8449333e-01	  -1.3660579e-01	
   7.6890000e+01	   6.6431657e-01	  -1.7611581e-01	   1.8705198e-01	
   7.6945000e+01	   6.9528584e-01	   6.8620782e-02	  -2.7001646e-01	
   7.7000000e+01	   5.2500804e-01	  -7.4827340e-02	   3.1402208e-01	
   7.7055000e+01	   4.4746358e-01	  -4.1464717e-01	  -3.6833361e-01	
   7.7110000e+01	   6.3350714e-01	  -2.2121820e-01	  -3.5191043e-01	
   7.7165000e+01	   5.2362697e-01	  -4.0016178e-01	  -2.0787716e-01	
   7.7220000e+01	   3.4432101e-01	  -4.2486568e-01	  -2.8712276e-01	
   7.7275000e+01	   9.1443427e-02	  -4.4304221e-01	  -8.8466036e-01	
   7.7330000e+01	   3.6969311e-01	  -3.5261068e-01	  -2.4932889e-01	
   7.7385000e+01	   1.8511588e-01	  -3.3944671e-01	  -4.3586761e-01	
   7.7440000e+01	   4.7728994e-01	  -2.7134097e-01	  -3.0135027e-01	
   7.7495000e+01	   6.9626849e-01	  -1.0107633e-01	   1.0655989e-01	
   7.7550000e+01	   9.5403594e-01	   1.0179191e-01	   6.9224595e-02	
   7.7605000e+01	   1.0315213e+00	   1.1535655e-01	   2.8249062e-04	
   7.7660000e+01	   9.7265226e-01	   5.9653315e-02	   7.5889971e-02	
   7.7715000e+01	   8.7526355e-01	  -1.3919549e-01	  -9.0232950e-02	
   7.7770000e+01	   1.0079693e+00	   3.2581084e-01	   1.7359920e-01	
   7.7825000e+01	   7.2417753e-01	  -3.2816338e-01	  -3.2345458e-01	
   7.7880000e+01	   5.3918147e-01	  -3.6015098e-01	  -7.0306069e-01	
   7.7935000e+01	   6.2574206e-01	  -3.8775333e-02	  -4.5898428e-02	
   7.7990000e+01	   6.2761430e-01	  -1.4829384e-02	  -1.4524842e-01	
   7.8045000e+01	   5.9425757e-01	  -4.3784788e-01	  -2.0493375e-01	
   7.8100000e+01	   3.9496125e-01	  -3.4336823e-01	  -4.3037798e-01	
   7.8155000e+01	   9.7348523e-01	   7.5383530e-02	   2.7511522e-01	
   7.8210000e+01	   8.4632982e-01	  -1.0272546e-01	   4.3157454e-03	
   7.8265000e+01	   1.1466048e+00	   2.4788789e-01	   6.0558545e-02	
   7.8320000e+01	   1.2710645e+00	   2.0973146e-01	   4.1512425e-01	
   7.8375000e+01	   1.1459353e+00	   4.1998762e-01	   5.1432854e-01	
   7.8430000e+01	   1.0015069e+00	   1.4810762e-01	   3.0330612e-01	
   7.8485000e+01	   1.1108086e+00	   4.6341064e-01	   1.7222360e-01	
   7.8540000e+01	   9.8499560e-01	   1.6120503e-01	   2.9681937e-01	
   7.8595000e+01	   9.2368036e-01	   1.7825515e-01	  -1.8558162e-01	
   7.8650000e+01	   8.1442678e-01	   7.6345169e-02	  -6.9521545e-02	
   7.8705000e+01	   5.9538843e-01	   3.4744160e-02	   1.4102215e-01	
   7.8760000e+01	   7.0906817e-01	   1.8969858e-01	   2.4103387e-02	
   7.8815000e+01	   4.7815533e-01	  -5.5033469e-03	  -5.5541106e-01	
   7.8870000e+01	   9.1267162e-01	   2.3412962e-03	   3.8118084e-01	
   7.8925000e+01	   1.2588205e+00	   3.0073693e-01	   5.0523201e-01	
   7.8980000e+01	   1.1715496e+00	   2.6407808e-01	   9.4936577e-02	
   7.9035000e+01	   1.3242919e+00	   3.8454055e-01	   5.1850254e-01	
   7.9090000e+01	   1.2260257e+00	   3.5085080e-01	   2.4515107e-01	
   7.9145000e+01	   1.1496044e+00	   3.9049460e-01	   4.2975641e-01	
   7.9200000e+01	   1.0329299e+00	   4.4123472e-01	   3.2773350e-01	
   7.9255000e+01	   6.6017859e-01	   3.2052627e-02	  -1.9843218e-01	
   7.9310000e+01	   1.0561997e+00	   1.3140210e-01	  -2.2850382e-02	
   7.9365000e+01	   8.2072137e-01	   8.6026055e-02	   9.0950171e-02	
   7.9420000e+01	   7.1507684e-01	   1.3536757e-01	   1.7217387e-02	
   7.9475000e+01	   6.9005489e-01	  -3.2838895e-01	   2.8137874e-01	
   7.9530000e+01	   1.0986071e+00	   6.5323824e-02	   3.6755570e-01	
   7.9585000e+01	   1.0480447e+00	   2.8864380e-01	   4.8130073e-01	
   7.9640000e+01	   1.0513497e+00	   2.0380486e-01	   4.7462492e-01	
   7.9695000e+01	   9.4273276e-01	   1.8016150e-01	   3.1736114e-01	
   7.9750000e+01	   1.1255974e+00	   3.0226718e-01	   3.0847706e-01	
   7.9805000e+01	   8.9595309e-01	   3.5562333e-01	  -1.5521851e-01	
   7.9860000e+01	   8.9800874e-01	   2.2765360e-01	   5.6205958e-02	
   7.9915000e+01	   7.6823023e-01	   1.1059673e-02	   3.3172897e-01	
   7.9970000e+01	   8.2402125e-01	  -3.5130856e-01	   2.5635326e-01	
   8.0025000e+01	   7.7568855e-01	  -6.1831193e-02	   1.9030744e-01	
   8.0080000e+01	   5.3757305e-01	   5.8137216e-02	  -4.4604275e-02	
   8.0135000e+01	   8.0565234e-01	  -1.4023023e-01	   4.0425073e-01	
   8.0190000e+01	   1.1402378e+00	   3.1479910e-01	   5.1498085e-01	
   8.0245000e+01	   1.1600141e+00	   1.6311396e-01	   6.8124736e-01	
   8.0300000e+01	   1.4075340e+00	   6.1727107e-01	   7.4702319e-01	
   8.0355000e+01	   1.3395515e+00	   3.6708001e-01	   7.2512074e-01	
   8.0410000e+01	   1.2456976e+00	   2.3924481e-01	   3.9180496e-01	
   8.0465000e+01	   1.2523407e+00	   2.5978265e-01	   2.8394556e-01	
   8.0520000e+01	   1.0968759e+00	   1.0578041e-01	   2.0573895e-01	
   8.0575000e+01	   8.3167847e-01	   4.3818792e-02	   1.9913701e-01	
   8.0630000e+01	   8.5403439e-01	  -5.0488440e-02	   1.5307758e-01	
   8.0685000e+01	   6.8015953e-01	  -1.0305769e-01	   1.2095953e-01	
   8.0740000e+01	   8.5583291e-01	  -2.5769181e-02	  -4.9546620e-02	
   8.0795000e+01	   7.9064957e-01	  -1.6623610e-01	  -1.2840206e-01	
   8.0850000e+01	   1.0956540e+00	   3.2924457e-01	   5.0830159e-01	
   8.0905000e+01	   1.1468901e+00	   5.5333957e-01	   1.0553387e+00	
   8.0960000e+01	   1.2370084e+00	   6.5827572e-01	   6.2128896e-01	
   8.1015000e+01	   1.4025072e+00	   7.0164746e-01	   4.8174572e-01	
   8.1070000e+01	   1.3332868e+00	   4.9571786e-01	   5.5493388e-01	
   8.1125000e+01	   1.5120123e+00	   4.2465480e-01	   5.1007970e-01	
   8.1180000e+01	   1.1381221e+00	   2.4122184e-01	   8.3849298e-02	
   8.1235000e+01	   9.2492720e-01	   2.0730024e-01	   3.4169547e-01	
   8.1290000e+01	   1.1129755e+00	   2.6389407e-01	   2.7321745e-01	
   8.1345000e+01	   8.5990784e-01	  -3.9765156e-01	   3.4754054e-01	
   8.1400000e+01	   7.8117046e-01	   1.7161810e-01	   3.9584876e-02	
   8.1455000e+01	   5.2004062e-01	   6.7755890e-02	   1.4908409e-01	
   8.1510000e+01	   8.0719713e-01	   1.5715092e-01	  -7.8883474e-02	
   8.1565000e+01	   1.3101488e+00	   6.8062758e-01	   7.8440415e-01	
   8.1620000e+01	   1.3942925e+00	   7.0324231e-01	   6.7879049e-01	
   8.1675000e+01	   1.4118002e+00	   5.7753284e-01	   9.3660203e-01	
   8.1730000e+01	   1.3181805e+00	   3.4777969e-01	   8.0906169e-01	
   8.1785000e+01	   1.4262817e+00	   5.3760203e-01	   6.9321857e-01	
   8.1840000e+01	   1.4069462e+00	   6.0690597e-01	   6.6238389e-01	
   8.1895000e+01	   1.1802850e+00	   3.1571910e-01	   5.5900626e-01	
   8.1950000e+01	   9.4360190e-01	   5.1387925e-01	   5.2599381e-01	
   8.2005000e+01	   1.0359138e+00	   3.7493835e-01	   3.3454807e-01	
   8.2060000e+01	   1.0541437e+00	   4.9513528e-01	   3.6978570e-01	
   8.2115000e+01	   6.9864261e-01	   3.9321302e-01	   2.1751029e-01	
   8.2170000e+01	   6.3463743e-01	  -1.9089867e-01	   2.5072829e-01	
   8.2225000e+01	   1.3130098e+00	   8.1361715e-01	   6.9537363e-01	
   8.2280000e+01	   1.1824534e+00	   7.8983382e-01	   7.9362165e-01	
   8.2335000e+01	   1.1959208e+00	   4.2806363e-01	   6.2906724e-01	
   8.2390000e+01	   1.3129628e+00	   7.3200076e-01	   8.8125396e-01	
   8.2445000e+01	   1.3664942e+00	   8.9594459e-01	   9.4843667e-01	
   8.2500000e+01	   8.7024172e-01	   1.1992315e-01	   2.7841914e-01	
   8.2555000e+01	   1.0111956e+00	   4.2208091e-01	   5.7755316e-01	
   8.2610000e+01	   8.0995675e-01	   4.3096590e-01	   5.7051756e-01	
   8.2665000e+01	   5.6327252e-01	   8.8429852e-01	   6.1038647e-01	
   8.2720000e+01	   6.0931601e-01	   1.8738373e-01	   8.8846655e-02	
   8.2775000e+01	   6.3593943e-01	   3.5443310e-01	   3.9069623e-01	
   8.2830000e+01	   5.7960913e-01	  -2.3593117e-02	  -9.5973002e-02	
   8.2885000e+01	   7.6811078e-01	   6.5409287e-01	   2.9989926e-01	
   8.2940000e+01	   1.0297634e+00	   4.8638518e-01	   5.9820766e-01	
   8.2995000e+01	   1.0430803e+00	   6.0753462e-01	   8.7444869e-01	
   8.3050000e+01	   9.2678054e-01	   2.8518074e-01	   6.9705115e-01	
   8.3105000e+01	   7.2304937e-01	   3.8323670e-01	   2.7086754e-01	
   8.3160000e+01	   7.8864073e-01	   3.2933901e-01	   7.6850087e-01	
   8.3215000e+01	   9.8249141e-01	   2.4001228e-01	   6.6616044e-01	
   8.3270000e+01	   6.2003489e-01	   4.1824423e-01	   3.7150946e-01	
   8.3325000e+01	   5.3687745e-01	  -1.8037059e-01	   5.4428803e-01	
   8.3380000e+01	   7.2610482e-01	   2.2882128e-01	   6.8398260e-01	
   8.3435000e+01	   4.1422510e-01	  -4.2944814e-01	   1.3760027e-01	
   8.3490000e+01	   1.4345358e-01	  -4.2485733e-01	   1.5412944e-01	
   8.3545000e+01	   8.1254989e-01	   3.9698403e-01	   6.5326963e-01	
   8.3600000e+01	   8.9179679e-01	   2.6565914e-01	   6.9855563e-01	
   8.3655000e+01	   9.3596157e-01	   6.9590060e-01	   8.8243401e-01	
   8.3710000e+01	   7.5584871e-01	   3.8079198e-01	   4.8994683e-01	
   8.3765000e+01	   7.7993612e-01	   5.4021763e-01	   8.7662144e-01	
   8.3820000e+01	   6.6972931e-01	   1.8428536e-01	   8.4763685e-01	
   8.3875000e+01	   3.8516679e-01	  -9.2597201e-02	   1.6573925e-01	
   8.3930000e+01	   5.7543227e-01	   2.7681893e-01	   3.0084162e-01	
   8.3985000e+01	   3.8930049e-01	  -9.4002309e-02	   3.2147772e-01	
   8.4040000e+01	   1.7218693e-01	  -6.2857300e-01	   1.9878959e-01	
   8.4095000e+01	   7.3794137e-02	   1.4711571e-01	   1.1237441e-02	
   8.4150000e+01	   3.0294814e-01	   1.2870231e-01	   1.0513460e-01	
   8.4205000e+01	   2.7667141e-01	   2.0521197e-01	   3.5548555e-01	
   8.4260000e+01	   5.7089466e-01	   1.3517505e-01	   2.7004865e-01	
   8.4315000e+01	   8.3288373e-01	   1.1355550e+00	   1.3475570e+00	
   8.4370000e+01	   9.0847140e-01	   5.6459619e-01	   8.9091797e-01	
   8.4425000e+01	   6.5104270e-01	   6.4624326e-01	   1.1143468e+00	
   8.4480000e+01	   8.5611515e-01	   4.9366510e-01	   7.3266542e-01	
   8.4535000e+01	   6.0033189e-01	   4.9231538e-01	   6.0272482e-01	
   8.4590000e+01	   5.0031561e-01	   3.2362044e-01	   5.2432433e-01	
   8.4645000e+01	   2.8362226e-01	   2.5973302e-02	   4.8684635e-02	
   8.4700000e+01	   3.5377011e-01	   4.6165032e-02	   1.5285525e-03	
   8.4755000e+01	   6.5312286e-02	  -9.4861265e-02	   1.6662932e-01	
   8.4810000e+01	   5.0460733e-02	  -2.2737631e-01	   8.5318370e-04	
   8.4865000e+01	   5.5335475e-01	   3.9293766e-02	   5.6490646e-01	
   8.4920000e+01	   8.9192837e-01	   6.2419947e-01	   8.1210086e-01	
   8.4975000e+01	   9.1189683e-01	   6.1957939e-01	   9.0067077e-01	
   8.5030000e+01	   8.2711977e-01	   6.9023479e-01	   8.2536697e-01	
   8.5085000e+01	   7.4096990e-01	   5.5496717e-01	   5.4045627e-01	
   8.5140000e+01	   9.1189683e-01	   7.8115192e-01	   8.1306940e-01	
   8.5195000e+01	   7.0261479e-01	   5.1223149e-01	   3.6465348e-01	
   8.5250000e+01	   7.7088607e-01	   6.1172377e-01	   4.6387529e-01	
   8.5305000e+01	   6.4758110e-01	   6.6415876e-01	   5.3845532e-01	
   8.5360000e+01	   2.9625781e-01	  -8.2700389e-02	   2.8179374e-01	
   8.5415000e+01	   3.0994202e-01	  -5.7610543e-01	   1.0788653e-01	
   8.5470000e+01	   4.6030667e-01	   4.2613373e-02	   4.4408699e-01	
   8.5525000e+01	   6.0045999e-01	   1.6872925e-01	   4.3546893e-01	
   8.5580000e+01	   9.7564063e-01	   5.9565194e-01	   9.2681402e-01	
   8.5635000e+01	   1.0489635e+00	   9.4725182e-01	   1.1727522e+00	
   8.5690000e+01	   7.2596720e-01	   3.8575267e-01	   7.3175087e-01	
   8.5745000e+01	   7.8610300e-01	   4.8365463e-01	   5.0382520e-01	
   8.5800000e+01	   8.3866660e-01	   4.3600310e-01	   5.1869118e-01	
   8.5855000e+01	   9.2478283e-01	   6.3307881e-01	   5.8008832e-01	
   8.5910000e+01	   5.8779455e-01	   2.5270856e-01	   2.7845834e-01	
   8.5965000e+01	   7.5913662e-01	   1.9640305e-02	   1.0265741e-01	
   8.6020000e+01	   5.2360814e-01	   2.1263525e-01	   5.9864003e-01	
   8.6075000e+01	   3.0513930e-01	   8.2564430e-02	   2.1394878e-01	
   8.6130000e+01	   8.1442260e-02	  -2.9082648e-01	   1.4119589e-01	
   8.6185000e+01	   5.1537650e-01	  -1.9931739e-02	   3.7336236e-01	
   8.6240000e+01	   1.0123073e+00	   7.1943894e-01	   8.9064478e-01	
   8.6295000e+01	   8.4983437e-01	   3.6547418e-01	   9.4492123e-01	
   8.6350000e+01	   8.8263023e-01	   8.4815313e-01	   3.9216339e-01	
   8.6405000e+01	   1.1906809e+00	   1.1742786e+00	   1.1108169e+00	
   8.6460000e+01	   6.5973460e-01	   7.8686466e-02	   5.4792819e-01	
   8.6515000e+01	   6.4910863e-01	   2.1890513e-01	   1.9111929e-01	
   8.6570000e+01	   6.2587337e-01	   1.0641424e-01	   8.0647055e-01	
   8.6625000e+01	   5.6291120e-01	   9.6025503e-02	   2.4205953e-01	
   8.6680000e+01	   3.1137254e-01	   2.6879161e-01	   4.2314642e-01	
   8.6735000e+01	   1.6926135e-01	  -1.0147695e-01	  -1.3802426e-01	
   8.6790000e+01	   3.4034349e-01	   3.5712790e-01	   1.1675769e-01	
   8.6845000e+01	   2.5868713e-01	  -2.9499020e-01	  -4.8506144e-02	
   8.6900000e+01	   3.7869685e-01	  -1.9684294e-01	   8.9659648e-01	
   8.6955000e+01	   7.5599487e-01	   7.2116009e-02	   1.0685904e+00	
   8.7010000e+01	   6.7798098e-01	   6.8709919e-01	   9.5430010e-01	
   8.7065000e+01	   5.1967858e-01	   3.2834985e-01	   6.2297397e-01	
   8.7120000e+01	   5.7094064e-01	  -2.9822077e-02	   4.9458668e-01	
   8.7175000e+01	   5.6148891e-01	   1.2331265e-01	   6.4916656e-01	
   8.7230000e+01	   6.7274195e-01	   1.2367081e-01	   5.0875994e-01	
   8.7285000e+01	   3.4287179e-02	  -3.9208316e-01	   2.2956577e-01	
   8.7340000e+01	   3.2264663e-01	  -9.6543370e-02	   3.6177235e-01	
   8.7395000e+01	   3.7866122e-01	  -1.8187863e-01	   2.8607619e-01	
   8.7450000e+01	   6.2870698e-01	  -3.1932211e-01	   5.9820766e-01	
   8.7505000e+01	   6.2842783e-01	   8.5819842e-01	   5.6003537e-01	
   8.7560000e+01	   6.5635652e-01	   5.7917697e-01	   1.1157959e+00	
   8.7615000e+01	   7.9385395e-01	   3.5183402e-01	   1.0206116e+00	
   8.7670000e+01	   6.2807049e-01	   3.2360021e-01	   7.2756940e-01	
   8.7725000e+01	   6.9535901e-01	   3.3207734e-01	   9.6619547e-01	
   8.7780000e+01	   7.3740509e-01	   3.7484449e-01	   9.7978607e-01	
   8.7835000e+01	   5.3189406e-01	  -3.1859088e-02	   4.7824281e-01	
   8.7890000e+01	   3.2859168e-01	  -1.7170055e-01	   1.9916528e-01	
   8.7945000e+01	   2.7856751e-01	  -1.2149627e-01	   4.5019702e-02	
   8.8000000e+01	   1.0883091e-01	  -6.9500842e-01	   4.9319539e-01	
   8.8055000e+01	   3.7880148e-02	  -3.8321227e-01	   2.0021047e-01	
   8.8110000e+01	   5.9825985e-01	   1.3114260e-01	   6.5283852e-01	
   8.8165000e+01	   7.5723358e-01	  -3.3366808e-01	   7.6406913e-01	
   8.8220000e+01	   7.3180440e-01	   2.9564841e-01	   8.6830819e-01	
   8.8275000e+01	   6.0015913e-01	   4.0375904e-01	   8.1519941e-01	
   8.8330000e+01	   8.2527684e-01	   1.4473862e-01	   1.1769611e+00	
   8.8385000e+01	   6.9037416e-01	   2.5655765e-01	   6.4881524e-01	
   8.8440000e+01	   4.9334922e-01	   1.0878785e-01	   6.8433541e-01	
   8.8495000e+01	   1.5389391e-01	  -2.8122228e-01	   4.2582652e-01	
   8.8550000e+01	   3.9731616e-01	   2.1233805e-02	   3.8993857e-01	
   8.8605000e+01	   2.9531479e-01	  -3.4658575e-01	   1.7590765e-01	
   8.8660000e+01	   2.4337292e-01	  -4.5304050e-01	   7.6153567e-01	
   8.8715000e+01	   2.3083122e-01	  -2.0649477e-01	   3.3246836e-01	
   8.8770000e+01	   7.9255932e-01	   2.3445687e-01	   7.0317271e-01	
   8.8825000e+01	   8.3308748e-01	  -6.5623146e-02	   7.2125081e-01	
   8.8880000e+01	   1.0529063e+00	   4.4572387e-01	   9.3810363e-01	
   8.8935000e+01	   1.0308425e+00	   4.9276028e-01	   7.0852265e-01	
   8.8990000e+01	   9.1678585e-01	   6.4892344e-02	   8.3417667e-01	
   8.9045000e+01	   9.3241029e-01	   6.2973277e-01	   8.2207752e-01	
   8.9100000e+01	   9.7901006e-01	   3.2168664e-01	   8.6709440e-01	
   8.9155000e+01	   5.1921613e-01	  -3.2916418e-02	   3.9026061e-01	
   8.9210000e+01	   8.7239333e-01	   8.6791388e-02	   4.1253065e-01	
   8.9265000e+01	   6.7283037e-01	  -2.5406665e-01	   4.4873919e-01	
   8.9320000e+01	   4.6667037e-01	  -2.6718785e-01	   3.1258450e-01	
   8.9375000e+01	   3.2154314e-01	  -1.5613257e-01	   6.4549079e-02	
   8.9430000e+01	   1.0977004e+00	   6.3297954e-02	   8.4991379e-01	
   8.9485000e+01	   1.0667048e+00	   1.3075470e-01	   5.6759295e-01	
   8.9540000e+01	   1.1748134e+00	   2.7202019e-01	   6.0976489e-01	
   8.9595000e+01	   1.1620520e+00	   3.0543920e-01	   6.7717456e-01	
   8.9650000e+01	   1.1756666e+00	   4.7498088e-01	   1.1531270e+00	
   8.9705000e+01	   1.1882135e+00	   3.1024505e-01	   5.0231500e-01	
   8.9760000e+01	   1.1050591e+00	   4.4625812e-01	   5.6165481e-01	
   8.9815000e+01	   9.3456001e-01	   2.3391319e-01	   5.5483708e-01	
   8.9870000e+01	   1.0386155e+00	   6.3565505e-01	   8.3968422e-01	
   8.9925000e+01	   6.8263489e-01	  -1.8875385e-01	   1.6179946e-01	
   8.9980000e+01	   6.0667668e-01	  -4.7290889e-02	   1.7864595e-01	
   9.0035000e+01	   5.9480558e-01	  -1.0433223e-01	   3.2118304e-01	
   9.0090000e+01	   5.2207585e-01	  -2.7098569e-01	   2.5543768e-01	
   9.0145000e+01	   8.1968144e-01	   2.7416789e-01	   5.2273249e-01	
   9.0200000e+01	   1.2498879e+00	   3.1461202e-01	   6.1781488e-01	
   9.0255000e+01	   1.3998747e+00	   7.5122485e-01	   1.1719954e+00	
   9.0310000e+01	   1.0576540e+00	   4.6007466e-02	   8.0239104e-01	
   9.0365000e+01	   9.9669117e-01	   1.6465126e-01	   8.8544143e-01	
   9.0420000e+01	   1.2220355e+00	   7.5646308e-01	   1.0178704e+00	
   9.0475000e+01	   1.1825450e+00	   1.9496428e-01	   7.7356707e-01	
   9.0530000e+01	   9.1995423e-01	   3.1732833e-01	   4.9282825e-01	
   9.0585000e+01	   8.3023452e-01	   3.1695636e-01	   7.5213968e-01	
   9.0640000e+01	   8.4492207e-01	  -8.4192829e-02	   4.7669856e-01	
   9.0695000e+01	   4.3886334e-01	  -2.2831417e-01	   3.7798404e-02	
   9.0750000e+01	   4.6954966e-01	  -9.1747174e-02	   3.1695324e-01	
   9.0805000e+01	   9.4243837e-01	   4.7748236e-01	   5.6611706e-01	
   9.0860000e+01	   9.4792179e-01	   4.2776100e-01	   1.0813493e+00	
   9.0915000e+01	   1.0215250e+00	   2.8196184e-01	   9.8955897e-01	
   9.0970000e+01	   8.7802106e-01	   1.7462095e-01	   1.0213050e+00	
   9.1025000e+01	   1.0670985e+00	   8.7722440e-01	   9.7239461e-01	
   9.1080000e+01	   8.7704902e-01	  -3.5843361e-02	   8.0309995e-01	
   9.1135000e+01	   8.1502922e-01	   3.3778749e-01	   6.5136294e-01	
   9.1190000e+01	   7.7289084e-01	  -2.2858609e-01	   6.1368460e-01	
   9.1245000e+01	   5.6875529e-01	   1.6101005e-01	   4.7598746e-01	
   9.1300000e+01	   5.6471696e-01	   2.4122567e-01	   3.7094939e-01	
   9.1355000e+01	   5.0325557e-01	  -9.9608093e-02	   5.6588416e-02	
   9.1410000e+01	   6.1927840e-01	   1.4338147e-01	   1.4668694e-01	
   9.1465000e+01	   7.3054400e-01	   1.2975403e-01	   6.8735667e-01	
   9.1520000e+01	   9.8665397e-01	   1.1649475e-01	   8.7158040e-01	
   9.1575000e+01	   1.0836007e+00	   4.0748699e-01	   7.7475500e-01	
   9.1630000e+01	   9.6909781e-01	   4.4573494e-01	   3.1729479e-01	
   9.1685000e+01	   7.7554213e-01	   3.8114439e-01	   7.2386325e-01	
   9.1740000e+01	   7.5210582e-01	   1.6559697e-01	   6.7747288e-01	
   9.1795000e+01	   7.5987683e-01	   2.1951518e-01	   4.4308426e-01	
   9.1850000e+01	   4.5790358e-01	   3.0155516e-02	   2.6801231e-01	
   9.1905000e+01	   5.8776469e-01	  -9.4241261e-02	   2.0785416e-01	
   9.1960000e+01	   4.1843929e-01	   6.4098130e-03	   7.1606360e-02	
   9.2015000e+01	   2.8088085e-01	  -3.0687394e-01	   1.5375670e-01	
   9.2070000e+01	   2.3917136e-01	  -2.4728916e-01	   3.5213684e-01	
   9.2125000e+01	   6.3731718e-01	   2.3849264e-01	   5.3800875e-01	
   9.2180000e+01	   9.3029485e-01	   4.3717097e-01	   6.8958112e-01	
   9.2235000e+01	   9.0637555e-01	   4.0545983e-01	   8.0251074e-01	
   9.2290000e+01	   9.8916928e-01	   6.4770561e-01	   8.8819640e-01	
   9.2345000e+01	   1.0449664e+00	   4.9665116e-01	   9.6969340e-01	
   9.2400000e+01	   9.5832022e-01	   5.0849919e-01	   7.7473437e-01	
   9.2455000e+01	   8.1948399e-01	   2.2877950e-01	   5.9740988e-01	
   9.2510000e+01	   5.6366869e-01	   2.5880527e-01	   2.6639130e-01	
   9.2565000e+01	   7.0754991e-01	  -2.4878313e-02	   4.5808011e-01	
   9.2620000e+01	   5.9713791e-01	   1.4454550e-01	   3.9400278e-01	
   9.2675000e+01	   4.7454785e-01	   1.7878040e-01	   3.0141093e-01	
   9.2730000e+01	   2.6732102e-01	   1.0760820e-01	   4.7310498e-01	
   9.2785000e+01	   4.8719377e-01	   1.7738933e-01	   3.9550517e-01	
   9.2840000e+01	   9.2695172e-01	   2.5341280e-01	   6.1570580e-01	
   9.2895000e+01	   8.2923250e-01	   2.4295698e-01	   8.9147410e-01	
   9.2950000e+01	   1.1618347e+00	   9.5167445e-01	   4.8243052e-01	
   9.3005000e+01	   1.0454139e+00	   2.4299407e-01	   7.1362223e-01	
   9.3060000e+01	   8.7906059e-01	   1.3892272e-01	   5.2936067e-01	
   9.3115000e+01	   9.9923927e-01	   4.4476357e-01	   1.0679990e+00	
   9.3170000e+01	   1.1151587e+00	   4.1104960e-01	   1.0459939e+00	
   9.3225000e+01	   9.1849247e-01	   5.0407233e-01	   1.0159835e+00	
   9.3280000e+01	   7.1881514e-01	   5.6210948e-01	   2.7582119e-01	
   9.3335000e+01	   6.2776928e-01	   6.8189598e-01	   7.1509692e-01	
   9.3390000e+01	   4.8365647e-01	   2.3499254e-01	  -9.9315287e-03	
   9.3445000e+01	   4.1723346e-02	  -3.3899870e-01	   8.7348812e-02	
   9.3500000e+01	   9.4664158e-01	   9.6623731e-01	   5.7528278e-01	
   9.3555000e+01	   1.0743772e+00	   7.9785539e-01	   1.0789164e+00	
   9.3610000e+01	   1.0249241e+00	   4.2637200e-01	   8.8715411e-01	
   9.3665000e+01	   1.0066086e+00	   7.6363192e-01	   1.1464230e+00	
   9.3720000e+01	   1.1569372e+00	   6.0965628e-01	   1.0273070e+00	
   9.3775000e+01	   9.9006749e-01	   6.2749867e-01	   1.1021257e+00	
   9.3830000e+01	   1.1157354e+00	   4.8864257e-01	   8.6991142e-01	
   9.3885000e+01	   8.7147261e-01	   3.6829132e-01	   5.8911272e-01	
   9.3940000e+01	   7.4749045e-01	  -2.2269103e-03	   1.0544150e-01	
   9.3995000e+01	   5.3574420e-01	  -3.0486472e-02	   4.9551759e-01	
   9.4050000e+01	   2.2568938e-01	  -7.3814482e-02	   4.1814744e-01	
   9.4105000e+01	   2.3351414e-01	   3.8712132e-01	   4.7924395e-02	
   9.4160000e+01	   8.3969373e-01	   4.0873460e-01	   5.2486653e-01	
   9.4215000e+01	   7.8770599e-01	   2.9879377e-01	   5.2641437e-01	
   9.4270000e+01	   8.4167662e-01	   4.3687569e-01	   8.9781575e-01	
   9.4325000e+01	   9.8838607e-01	   7.6651518e-01	   9.1340888e-01	
   9.4380000e+01	   7.7379068e-01	   2.9497108e-01	   2.6013509e-01	
   9.4435000e+01	   8.6766846e-01	   3.0998741e-01	   6.8735667e-01	
   9.4490000e+01	   6.4176365e-01	   7.7078227e-01	   2.7623014e-01	
   9.4545000e+01	   8.2301812e-01	   6.9935963e-01	   6.7708053e-01	
   9.4600000e+01	   4.3972348e-01	   1.1284000e-01	   4.2257317e-01	
   9.4655000e+01	   3.2285133e-01	  -4.0131283e-02	   4.9165578e-01	
   9.4710000e+01	   3.3712977e-01	   2.0591151e-01	   1.5003665e-01	
   9.4765000e+01	   4.7278424e-01	   8.7492882e-02	   2.4557773e-01	
   9.4820000e+01	   7.0161951e-01	   9.2616599e-01	   4.7759459e-01	
   9.4875000e+01	   1.0457737e+00	   6.3019980e-01	   7.8782498e-01	
   9.4930000e+01	   8.7387764e-01	   8.9659711e-01	   1.1281008e+00	
   9.4985000e+01	   9.3564476e-01	   8.2215323e-01	   5.2913714e-01	
   9.5040000e+01	   9.1116352e-01	   4.0298299e-01	   1.0079915e+00	
   9.5095000e+01	   1.0439625e+00	   8.1337423e-01	   1.2305290e+00	
   9.5150000e+01	   7.8708856e-01	   3.1349257e-01	   5.9509330e-01	
   9.5205000e+01	   4.2744899e-01	   3.4271118e-01	   3.9295989e-01	
   9.5260000e+01	   3.7834307e-01	  -1.6960565e-01	   4.0026626e-01	
   9.5315000e+01	   4.6332510e-01	  -4.6751957e-01	   1.9214989e-01	
   9.5370000e+01	  -7.2769731e-03	  -3.8350363e-01	   1.8273895e-01	
   9.5425000e+01	   8.0782058e-01	   3.7828010e-01	   3.6386244e-01	
   9.5480000e+01	   1.1863038e+00	   1.0821851e+00	   9.3945813e-01	
   9.5535000e+01	   9.2815454e-01	   8.2998108e-01	   9.0093131e-01	
