
0   5   7
   0.0000000e+00	   2.0249048e+00	  -5.0134464e-02	
   5.5000000e-02	   2.2098506e+00	  -1.8791115e-02	
   1.1000000e-01	   1.7722192e+00	  -3.4544433e-02	
   1.6500000e-01	   1.8752574e+00	   1.2340435e-01	
   2.2000000e-01	   1.7791608e+00	  -5.8025360e-02	
   2.7500000e-01	   1.6926774e+00	  -2.3877013e-01	
   3.3000000e-01	   1.6203462e+00	  -1.4896296e-01	
   3.8500000e-01	   1.3955949e+00	  -2.7182945e-01	
   4.4000000e-01	   1.8820478e+00	   2.3781324e-02	
   4.9500000e-01	   2.3047380e+00	   1.5904367e-01	
   5.5000000e-01	   2.2861422e+00	   2.4460032e-01	
   6.0500000e-01	   2.4938030e+00	   3.2681306e-01	
   6.6000000e-01	   2.5128327e+00	   3.0245284e-01	
   7.1500000e-01	   2.7530226e+00	   2.2429468e-01	
   7.7000000e-01	   2.1960622e+00	   7.7022759e-02	
   8.2500000e-01	   2.0399684e+00	   5.9616243e-02	
   8.8000000e-01	   2.3031507e+00	   1.0632774e-01	
   9.3500000e-01	   2.0317064e+00	  -1.2729142e-01	
   9.9000000e-01	   1.8696107e+00	  -1.3160364e-01	
   1.0450000e+00	   1.9862043e+00	  -1.6370290e-02	
   1.1000000e+00	   2.0625472e+00	  -8.6845552e-02	
   1.1550000e+00	   2.1175062e+00	  -6.2947279e-02	
   1.2100000e+00	   2.2105686e+00	   3.8867234e-02	
   1.2650000e+00	   2.4687392e+00	   3.3172311e-01	
   1.3200000e+00	   2.4481660e+00	   2.2323254e-01	
   1.3750000e+00	   2.5307738e+00	   2.5722968e-01	
   1.4300000e+00	   2.4255847e+00	   1.9298658e-01	
   1.4850000e+00	   2.5753585e+00	   3.8787011e-01	
   1.5400000e+00	   2.6360544e+00	   1.4584220e-01	
   1.5950000e+00	   2.3765533e+00	  -2.6384281e-03	
   1.6500000e+00	   2.2589676e+00	   3.1735126e-02	
   1.7050000e+00	   2.1825154e+00	  -2.7155476e-03	
   1.7600000e+00	   2.4358478e+00	   2.3529673e-01	
   1.8150000e+00	   2.6392142e+00	   2.4328086e-01	
   1.8700000e+00	   2.7675065e+00	   3.1204270e-01	
   1.9250000e+00	   2.7267169e+00	   5.1276220e-01	
   1.9800000e+00	   2.6639861e+00	   3.8912586e-01	
   2.0350000e+00	   2.6854952e+00	   1.4981649e-01	
   2.0900000e+00	   2.7368318e+00	   3.5741707e-01	
   2.1450000e+00	   2.6423663e+00	   1.7928340e-01	
   2.2000000e+00	   2.6388114e+00	   2.2296039e-01	
   2.2550000e+00	   2.1778246e+00	   2.4124440e-02	
   2.3100000e+00	   1.5635000e+00	   1.2568040e-01	
   2.3650000e+00	   5.8152866e-01	  -9.0910032e-02	
   2.4200000e+00	   4.7272063e-01	   8.0041452e-02	
   2.4750000e+00	   6.8918569e-01	  -1.0081216e-01	
   2.5300000e+00	   1.2224256e+00	   4.1150982e-01	
   2.5850000e+00	   3.0217407e+00	   3.0317421e-01	
   2.6400000e+00	   2.7483114e+00	   1.7518444e-01	
   2.6950000e+00	   3.0252293e+00	   4.8583544e-01	
   2.7500000e+00	   2.9066850e+00	   3.2706862e-01	
   2.8050000e+00	   2.8205535e+00	   3.9712896e-01	
   2.8600000e+00	   2.7264139e+00	   1.9479004e-01	
   2.9150000e+00	   2.7020885e+00	   1.9996895e-01	
   2.9700000e+00	   2.6082504e+00	   2.2128178e-01	
   3.0250000e+00	   2.8112865e+00	   3.5433949e-02	
   3.0800000e+00	   2.3451290e+00	  -8.8787131e-03	
   3.1350000e+00	   2.2892258e+00	  -1.1340681e-01	
   3.1900000e+00	   2.4385001e+00	  -2.6375396e-03	
   3.2450000e+00	   2.4427326e+00	  -1.3603916e-01	
   3.3000000e+00	   2.3811599e+00	   9.5142129e-02	
   3.3550000e+00	   3.0584206e+00	   3.9896157e-01	
   3.4100000e+00	   3.0387888e+00	   3.2758828e-01	
   3.4650000e+00	   3.1661517e+00	   2.4140206e-01	
   3.5200000e+00	   2.9747053e+00	   3.2721074e-01	
   3.5750000e+00	   3.2535305e+00	   3.9383825e-01	
   3.6300000e+00	   1.3402073e+00	   2.4522456e-01	
   3.6850000e+00	   1.2090163e+00	   1.3445158e-01	
   3.7400000e+00	   1.3036745e+00	   1.3183903e-01	
   3.7950000e+00	   1.1713221e+00	  -4.5041331e-03	
   3.8500000e+00	   2.6835762e+00	  -1.8455879e-02	
   3.9050000e+00	   2.5634018e+00	  -1.1429317e-01	
   3.9600000e+00	   2.4571862e+00	  -1.4907098e-01	
   4.0150000e+00	   2.3294454e+00	  -1.1523762e-01	
   4.0700000e+00	   2.3170632e+00	  -1.0047891e-01	
   4.1250000e+00	   3.0440697e+00	   1.7262071e-02	
   4.1800000e+00	   3.0379860e+00	   2.1908527e-01	
   4.2350000e+00	   3.1200282e+00	   4.2673010e-01	
   4.2900000e+00	   3.3419042e+00	   2.9604485e-01	
   4.3450000e+00	   3.1556154e+00	   9.2213671e-02	
   4.4000000e+00	   3.1119155e+00	   2.0813622e-01	
   4.4550000e+00	   3.2549344e+00	   2.9578675e-01	
   4.5100000e+00	   2.9624583e+00	   3.1913156e-01	
   4.5650000e+00	   2.7792281e+00	  -9.7363535e-02	
   4.6200000e+00	   2.8089828e+00	   4.2888332e-02	
   4.6750000e+00	   2.6898121e+00	  -6.6359770e-02	
   4.7300000e+00	   2.6028069e+00	  -1.6334671e-01	
   4.7850000e+00	   2.2683216e+00	  -3.9583463e-01	
   4.8400000e+00	   2.4652209e+00	  -2.8405984e-01	
   4.8950000e+00	   2.9883087e+00	   2.0597613e-01	
   4.9500000e+00	   3.3445287e+00	   1.6201479e-01	
   5.0050000e+00	   2.8891444e+00	  -5.5161408e-02	
   5.0600000e+00	   3.1720528e+00	   3.4642398e-01	
   5.1150000e+00	   2.9044498e+00	   1.2081882e-01	
   5.1700000e+00	   2.9215620e+00	   1.0046955e-01	
   5.2250000e+00	   2.7798019e+00	   7.4993921e-04	
   5.2800000e+00	   2.7243966e+00	   6.7654366e-02	
   5.3350000e+00	   2.8939095e+00	   1.1610564e-01	
   5.3900000e+00	   2.4961377e+00	  -2.5843597e-01	
   5.4450000e+00	   2.1303042e+00	  -3.6902754e-01	
   5.5000000e+00	   2.4360435e+00	  -1.1497721e-01	
   5.5550000e+00	   2.9057761e+00	  -2.0969631e-02	
   5.6100000e+00	   2.9713228e+00	  -2.9238516e-02	
   5.6650000e+00	   3.1371116e+00	   1.7375833e-01	
   5.7200000e+00	   3.0508245e+00	   2.0401274e-01	
   5.7750000e+00	   3.0643676e+00	   1.8875654e-01	
   5.8300000e+00	   2.7710536e+00	   9.5171507e-02	
   5.8850000e+00	   2.5033504e+00	  -4.0215809e-02	
   5.9400000e+00	   2.8077210e+00	  -1.1045571e-01	
   5.9950000e+00	   2.4608475e+00	  -2.1109742e-01	
   6.0500000e+00	   2.2802778e+00	  -3.6483176e-01	
   6.1050000e+00	   2.4362769e+00	  -1.9745124e-01	
   6.1600000e+00	   2.1758352e+00	  -3.4929606e-01	
   6.2150000e+00	   1.9543620e+00	  -4.2527440e-01	
   6.2700000e+00	   4.7813857e-01	  -4.6199560e-01	
   6.3250000e+00	   1.1287768e+00	  -5.4419873e-02	
   6.3800000e+00	   1.2683899e+00	   2.3154358e-02	
   6.4350000e+00	   3.0077750e+00	   2.4102671e-02	
   6.4900000e+00	   2.8619565e+00	   6.5720509e-02	
   6.5450000e+00	   2.9274117e+00	   1.2928176e-01	
   6.6000000e+00	   2.8005834e+00	   1.4307830e-01	
   6.6550000e+00	   2.5527571e+00	  -7.6193460e-03	
   6.7100000e+00	   2.4025238e+00	  -1.0412985e-01	
   6.7650000e+00	   2.6442734e+00	   4.0882680e-02	
   6.8200000e+00	   2.5770515e+00	  -2.5734464e-01	
   6.8750000e+00	   2.0147539e+00	  -3.1326867e-01	
   6.9300000e+00	   1.9974917e+00	  -3.3989932e-01	
   6.9850000e+00	   2.0617502e+00	  -2.2151665e-01	
   7.0400000e+00	   2.0824196e+00	  -1.0920169e-01	
   7.0950000e+00	   2.6094127e+00	  -5.3928540e-02	
   7.1500000e+00	   2.7423374e+00	   2.4440494e-01	
   7.2050000e+00	   3.0418133e+00	   3.6296248e-01	
   7.2600000e+00	   2.6627578e+00	   2.0148774e-01	
   7.3150000e+00	   9.7865591e-01	  -6.9629869e-03	
   7.3700000e+00	   1.3281596e+00	   2.3633091e-01	
   7.4250000e+00	   1.0911863e+00	   1.9744632e-01	
   7.4800000e+00	   9.5134996e-01	   1.0579921e-01	
   7.5350000e+00	   6.8479297e-01	   6.7177509e-02	
   7.5900000e+00	   2.3555058e+00	  -1.2718147e-01	
   7.6450000e+00	   2.1933181e+00	  -1.8593736e-01	
   7.7000000e+00	   1.9997948e+00	  -2.1520150e-01	
   7.7550000e+00	   2.0832920e+00	  -3.4359276e-01	
   7.8100000e+00	   2.2047441e+00	  -2.0006096e-01	
   7.8650000e+00	   2.3552808e+00	   3.5096509e-02	
   7.9200000e+00	   2.6338998e+00	   2.6374207e-01	
   7.9750000e+00	   2.8516343e+00	   3.2472949e-01	
   8.0300000e+00	   2.8022177e+00	   2.9529636e-01	
   8.0850000e+00	   2.6336429e+00	   1.9190369e-01	
   8.1400000e+00	   8.8021779e-01	  -2.0289205e-02	
   8.1950000e+00	   8.9462994e-01	  -5.6891606e-02	
   8.2500000e+00	   8.5320534e-01	   1.6802201e-01	
   8.3050000e+00	   7.9994999e-01	   1.7222579e-02	
   8.3600000e+00	   4.7569837e-01	  -1.3837877e-02	
   8.4150000e+00	   6.5505154e-01	  -2.7419088e-01	
   8.4700000e+00	   2.0756256e+00	   7.7346245e-03	
   8.5250000e+00	   1.7557701e+00	  -3.3224363e-01	
   8.5800000e+00	   1.3234349e+00	  -5.0216243e-01	
   8.6350000e+00	   2.2069990e+00	  -1.5130866e-01	
   8.6900000e+00	   2.2781129e+00	   8.4512194e-02	
   8.7450000e+00	   2.5898949e+00	   1.4608100e-01	
   8.8000000e+00	   2.2875194e+00	   1.1429823e-01	
   8.8550000e+00	   2.4271417e+00	   1.5105223e-01	
   8.9100000e+00	   2.3867036e+00	   2.2364257e-01	
   8.9650000e+00	   2.2209135e+00	  -3.5688982e-02	
   9.0200000e+00	   2.1590971e+00	   4.8300306e-02	
   9.0750000e+00	   1.8486148e+00	   7.1138898e-03	
   9.1300000e+00	   4.9716808e-01	  -1.4323797e-01	
   9.1850000e+00	   2.8462609e-01	  -1.3717847e-01	
   9.2400000e+00	   8.5078910e-03	  -2.7905033e-01	
   9.2950000e+00	   3.0268830e-01	  -8.4029008e-02	
   9.3500000e+00	   5.2317064e-01	  -9.4626417e-03	
   9.4050000e+00	   1.0094675e+00	   1.3545507e-01	
   9.4600000e+00	   7.6705542e-01	   1.2202084e-01	
   9.5150000e+00	   8.1481279e-01	   1.2351986e-01	
   9.5700000e+00	   8.9453339e-01	  -5.6707188e-02	
   9.6250000e+00	   6.4650363e-01	  -1.0046046e-02	
   9.6800000e+00	   6.7836779e-01	   2.3847917e-02	
   9.7350000e+00	   4.6787083e-01	  -1.9320379e-02	
   9.7900000e+00	   3.0422064e-01	  -2.2975904e-02	
   9.8450000e+00	   6.4740790e-02	  -3.6481392e-01	
   9.9000000e+00	  -1.8947975e-01	  -3.2495724e-01	
   9.9550000e+00	  -1.5128475e-01	  -2.3134666e-01	
   1.0010000e+01	  -1.4920179e-01	  -2.5362619e-01	
   1.0065000e+01	   6.0995719e-01	  -1.6828185e-02	
   1.0120000e+01	   5.6669826e-01	   2.7450994e-01	
   1.0175000e+01	   7.9005901e-01	   2.8458340e-01	
   1.0230000e+01	   4.9344265e-01	   2.6351733e-02	
   1.0285000e+01	   4.4653811e-01	   7.6962424e-02	
   1.0340000e+01	   7.3127445e-01	   4.7779341e-02	
   1.0395000e+01	   8.3917868e-01	   2.4021403e-01	
   1.0450000e+01	   5.1126483e-01	  -3.7136135e-02	
   1.0505000e+01	   2.0655173e-03	  -1.0916382e-01	
   1.0560000e+01	   3.0158960e-01	   1.5112527e-02	
   1.0615000e+01	   2.6856783e-01	  -8.7739655e-02	
   1.0670000e+01	  -2.3404811e-01	  -4.7940053e-01	
   1.0725000e+01	  -2.2137115e-01	  -3.4971285e-01	
   1.0780000e+01	   2.2869902e-01	  -7.2750255e-02	
   1.0835000e+01	   5.9889449e-01	   1.8820744e-01	
   1.0890000e+01	   4.3949382e-01	  -1.5287882e-02	
   1.0945000e+01	   9.6850441e-01	   2.6144223e-01	
   1.1000000e+01	   8.8358501e-01	   4.9039007e-01	
   1.1055000e+01	   9.4123261e-01	   1.9129110e-01	
   1.1110000e+01	   6.2979379e-01	   1.5198576e-01	
   1.1165000e+01	   5.3295429e-01	   1.2904359e-01	
   1.1220000e+01	   4.1190674e-01	   6.1556910e-03	
   1.1275000e+01	   4.0691440e-01	  -9.4476807e-02	
   1.1330000e+01	   1.0705684e-01	  -1.5011147e-01	
   1.1385000e+01	   1.2290405e-01	  -1.1111331e-01	
   1.1440000e+01	  -5.5866315e-02	  -2.1711780e-01	
   1.1495000e+01	  -2.4533093e-02	  -1.2918328e-01	
   1.1550000e+01	  -5.1817021e-02	  -3.3663136e-01	
   1.1605000e+01	   5.1286722e-01	   2.3102671e-01	
   1.1660000e+01	   6.5397428e-01	   2.1556902e-01	
   1.1715000e+01	   7.3871542e-01	   3.7489069e-01	
   1.1770000e+01	   6.7258539e-01	   3.1523697e-01	
   1.1825000e+01	   7.6384107e-01	   4.8142263e-01	
   1.1880000e+01	   5.0581523e-01	   1.9276561e-01	
   1.1935000e+01	   5.9533177e-01	   2.5284300e-01	
   1.1990000e+01	   6.3705714e-01	   6.9379605e-02	
   1.2045000e+01	   6.8818170e-01	   1.5098390e-01	
   1.2100000e+01	   5.3279694e-01	   1.0215383e-01	
   1.2155000e+01	   3.4094547e-01	   2.8872504e-02	
   1.2210000e+01	   6.3377173e-02	  -6.0151862e-02	
   1.2265000e+01	   5.2155980e-01	   4.3418508e-02	
   1.2320000e+01	   5.0868071e-01	   1.9416031e-01	
   1.2375000e+01	   5.1090144e-01	   2.6857421e-01	
   1.2430000e+01	   5.1582451e-01	   3.7389518e-01	
   1.2485000e+01	   5.5024677e-01	   2.9202180e-01	
   1.2540000e+01	   4.8315790e-01	   1.0065434e-01	
   1.2595000e+01	   4.5359196e-01	   9.6537315e-02	
   1.2650000e+01	   4.9812954e-01	   1.9768406e-01	
   1.2705000e+01	   3.9927485e-01	   1.8156655e-02	
   1.2760000e+01	   2.8869056e-01	  -2.9084372e-02	
   1.2815000e+01	   1.4309681e-01	  -6.4655333e-02	
   1.2870000e+01	  -8.3319823e-02	   2.6803151e-02	
   1.2925000e+01	   2.4359363e-01	   1.7947343e-03	
   1.2980000e+01	   6.3777562e-01	   1.2259018e-01	
   1.3035000e+01	   7.2951669e-01	   2.9224615e-01	
   1.3090000e+01	   1.0324880e+00	   3.4699548e-01	
   1.3145000e+01	   7.9879411e-01	   3.2979565e-01	
   1.3200000e+01	   6.5792540e-01	   2.4057666e-01	
   1.3255000e+01	   3.6839450e-01	   2.4648941e-01	
   1.3310000e+01	   6.0952317e-01	   3.1979154e-01	
   1.3365000e+01	   4.5131813e-01	   1.2581238e-01	
   1.3420000e+01	   3.5475226e-01	   6.2946682e-02	
   1.3475000e+01	   2.9964447e-01	   7.2968293e-02	
   1.3530000e+01	   2.9881092e-01	   1.1314443e-01	
   1.3585000e+01	  -5.2685177e-02	  -3.3338040e-02	
   1.3640000e+01	   3.4640677e-01	  -1.7019722e-02	
   1.3695000e+01	   5.7486610e-01	   2.9312199e-01	
   1.3750000e+01	   8.4623910e-01	   3.8271570e-01	
   1.3805000e+01	   9.2595923e-01	   3.6988908e-01	
   1.3860000e+01	   6.8886488e-01	   2.4925412e-01	
   1.3915000e+01	   8.2457065e-01	   3.1211971e-01	
   1.3970000e+01	   8.4352060e-01	   4.8211948e-01	
   1.4025000e+01	   7.3841480e-01	   2.9208733e-01	
   1.4080000e+01	   4.6862875e-01	   2.0163348e-01	
   1.4135000e+01	   4.9564356e-01	   1.4243492e-01	
   1.4190000e+01	   3.0317094e-01	   1.2641496e-01	
   1.4245000e+01	   2.3200368e-01	  -5.5761304e-02	
   1.4300000e+01	   2.0372150e-01	  -1.1760517e-02	
   1.4355000e+01	   1.1441411e-01	  -1.2777605e-01	
   1.4410000e+01	  -5.2047529e-02	  -1.0970290e-01	
   1.4465000e+01	   5.8525243e-01	   1.9790363e-01	
   1.4520000e+01	   6.8386289e-01	   1.9967599e-01	
   1.4575000e+01	   8.5621821e-01	   2.8863766e-01	
   1.4630000e+01	   8.7919183e-01	   3.0271995e-01	
   1.4685000e+01	   7.5093225e-01	   3.0735822e-01	
   1.4740000e+01	   7.8817406e-01	   5.1286777e-01	
   1.4795000e+01	   1.1650100e+00	   4.1502968e-01	
   1.4850000e+01	   3.4663915e-01	  -3.0214470e-02	
   1.4905000e+01	   5.9482906e-01	   6.5774638e-02	
   1.4960000e+01	   6.0219854e-01	   1.3684480e-01	
   1.5015000e+01	   4.2622055e-01	  -4.8645261e-02	
   1.5070000e+01	   3.9698510e-01	  -1.0469440e-01	
   1.5125000e+01	   1.2840714e-01	  -2.6789649e-01	
   1.5180000e+01	   9.1666074e-02	  -6.2199587e-02	
   1.5235000e+01	   3.1546051e-01	   1.0191837e-01	
   1.5290000e+01	   4.0795533e-01	   3.7984131e-02	
   1.5345000e+01	   5.9154194e-01	   3.3799636e-01	
   1.5400000e+01	   8.4265313e-01	   4.2508476e-01	
   1.5455000e+01	   7.0737797e-01	   2.7592150e-01	
   1.5510000e+01	   6.3967810e-01	   1.6809542e-01	
   1.5565000e+01	   6.7816699e-01	   2.5082954e-01	
   1.5620000e+01	   6.5208382e-01	   3.0811554e-01	
   1.5675000e+01	   4.3524923e-01	   1.0049257e-01	
   1.5730000e+01	   6.9882715e-02	  -2.5650355e-01	
   1.5785000e+01	   2.5948743e-01	  -1.0542959e-01	
   1.5840000e+01	   2.8213807e-01	  -2.1443641e-01	
   1.5895000e+01	  -1.7773801e-01	  -4.5901421e-01	
   1.5950000e+01	  -2.2006822e-01	  -3.2999497e-01	
   1.6005000e+01	   6.0164751e-01	  -1.6587330e-01	
   1.6060000e+01	   7.5461203e-01	   1.9646788e-01	
   1.6115000e+01	   5.9169128e-01	  -1.0328220e-01	
   1.6170000e+01	   3.2535034e-01	  -1.2541483e-01	
   1.6225000e+01	   6.9064909e-01	   1.4201812e-01	
   1.6280000e+01	   6.1914372e-01	   7.1550992e-02	
   1.6335000e+01	   1.8587645e-01	  -3.0480621e-01	
   1.6390000e+01	   2.3135488e-01	  -3.1028359e-01	
   1.6445000e+01	   1.6389976e-01	  -1.3536475e-01	
   1.6500000e+01	   2.2468879e-01	  -2.9835013e-01	
   1.6555000e+01	  -4.2011806e-01	  -4.1973623e-01	
   1.6610000e+01	  -3.5284030e-01	  -4.3680891e-01	
   1.6665000e+01	  -3.8565606e-01	  -4.5227650e-01	
   1.6720000e+01	   8.4643134e-02	  -2.6403318e-01	
   1.6775000e+01	   7.7824272e-02	  -2.6631087e-01	
   1.6830000e+01	   2.7142603e-01	  -1.4585606e-01	
   1.6885000e+01	   5.5026098e-01	  -6.3806688e-02	
   1.6940000e+01	   3.3867738e-01	  -1.5253840e-01	
   1.6995000e+01	  -1.2566822e-01	  -2.4810356e-01	
   1.7050000e+01	   1.9056129e-03	  -1.5927680e-01	
   1.7105000e+01	  -2.8845776e-01	  -4.8500514e-01	
   1.7160000e+01	  -4.6117538e-01	  -5.2755517e-01	
   1.7215000e+01	  -4.7134897e-01	  -6.2494577e-01	
   1.7270000e+01	  -1.9716219e-01	  -2.9093958e-01	
   1.7325000e+01	  -4.9461784e-01	  -5.2917355e-01	
   1.7380000e+01	  -4.3815779e-01	  -6.2317860e-01	
   1.7435000e+01	  -2.1988376e-01	  -4.9316581e-01	
   1.7490000e+01	  -1.8226344e-01	  -3.8941853e-01	
   1.7545000e+01	   1.2063879e-01	  -1.8750173e-01	
   1.7600000e+01	  -2.3327768e-01	  -5.2872293e-01	
   1.7655000e+01	  -4.1507703e-01	  -4.1190503e-01	
   1.7710000e+01	   1.5384279e-02	  -1.9994909e-01	
   1.7765000e+01	  -1.8477714e-01	  -4.0511639e-01	
   1.7820000e+01	  -4.8258355e-01	  -6.2100903e-01	
   1.7875000e+01	  -5.9973632e-01	  -8.2847203e-01	
   1.7930000e+01	  -5.1196418e-01	  -6.6450614e-01	
   1.7985000e+01	  -7.6397624e-01	  -8.8557726e-01	
   1.8040000e+01	  -8.5011950e-01	  -9.6492876e-01	
   1.8095000e+01	  -5.9225690e-01	  -6.2137655e-01	
   1.8150000e+01	  -2.0392603e-01	  -4.5374865e-01	
   1.8205000e+01	  -4.9970836e-01	  -3.8755060e-01	
   1.8260000e+01	  -4.3925638e-01	  -6.3542790e-01	
   1.8315000e+01	  -1.4037329e-01	  -3.7259501e-01	
   1.8370000e+01	  -2.1925714e-01	  -4.2231775e-01	
   1.8425000e+01	  -5.4409270e-01	  -6.5285586e-01	
   1.8480000e+01	  -4.6806954e-01	  -5.3046521e-01	
   1.8535000e+01	  -6.2221809e-01	  -4.4753995e-01	
   1.8590000e+01	  -7.3320190e-01	  -6.8980797e-01	
   1.8645000e+01	  -1.1866061e+00	  -9.4577009e-01	
   1.8700000e+01	  -1.1121314e+00	  -8.5043560e-01	
   1.8755000e+01	  -5.8929415e-01	  -4.8696663e-01	
   1.8810000e+01	  -2.7785351e-01	  -2.3479616e-01	
   1.8865000e+01	  -4.1845880e-01	  -2.9502382e-01	
   1.8920000e+01	  -4.7827953e-01	  -2.1371420e-01	
   1.8975000e+01	  -3.4488269e-01	  -1.1017142e-01	
   1.9030000e+01	  -4.4381416e-01	  -2.3437587e-01	
   1.9085000e+01	  -4.5683597e-01	  -2.7420753e-01	
   1.9140000e+01	  -6.3234250e-01	  -1.8899245e-01	
   1.9195000e+01	  -5.4302127e-01	  -3.2350179e-01	
   1.9250000e+01	  -7.4104387e-01	  -2.9005974e-01	
   1.9305000e+01	  -7.8914418e-01	  -5.0146745e-01	
   1.9360000e+01	  -9.9178458e-01	  -5.4726692e-01	
   1.9415000e+01	  -7.2700120e-01	  -5.3726222e-01	
   1.9470000e+01	  -2.4090475e-01	  -5.6851584e-02	
   1.9525000e+01	  -4.8035947e-01	  -1.7567225e-01	
   1.9580000e+01	  -1.3797912e-01	   1.5997829e-02	
   1.9635000e+01	  -1.3971901e-01	   3.8510556e-02	
   1.9690000e+01	  -1.8439708e-01	  -1.6111908e-01	
   1.9745000e+01	  -1.9508627e-01	  -1.4302343e-01	
   1.9800000e+01	  -4.0098778e-01	   1.1201167e-02	
   1.9855000e+01	  -1.2095083e-01	   1.0721188e-01	
   1.9910000e+01	  -2.8420288e-01	  -1.3455801e-01	
   1.9965000e+01	  -5.7521092e-01	  -1.9625167e-01	
   2.0020000e+01	  -5.2840825e-01	  -1.3201778e-01	
   2.0075000e+01	  -3.7115269e-01	  -3.0496976e-01	
   2.0130000e+01	  -5.4813930e-01	  -2.1548187e-01	
   2.0185000e+01	  -3.2487402e-01	  -9.5786906e-02	
   2.0240000e+01	  -3.0580371e-02	   1.7056473e-01	
   2.0295000e+01	   3.0864810e-01	   2.4937331e-01	
   2.0350000e+01	   4.1616036e-01	   2.9430622e-01	
   2.0405000e+01	   5.7607961e-02	   1.0423354e-01	
   2.0460000e+01	   2.0448364e-01	   3.0135457e-01	
   2.0515000e+01	   1.5394672e-01	   1.9156039e-01	
   2.0570000e+01	   5.1453177e-02	   7.8934571e-03	
   2.0625000e+01	  -3.2031615e-01	  -1.1580076e-01	
   2.0680000e+01	  -2.4805752e-01	   7.7068269e-02	
   2.0735000e+01	  -1.4235316e-01	  -1.2909688e-01	
   2.0790000e+01	  -3.7712189e-01	  -1.6295840e-01	
   2.0845000e+01	  -4.1003806e-01	  -5.8762718e-02	
   2.0900000e+01	  -2.8211324e-01	  -2.4126199e-01	
   2.0955000e+01	   1.5927817e-01	   1.3627188e-01	
   2.1010000e+01	   4.1079959e-02	   7.3118868e-02	
   2.1065000e+01	   5.8002725e-01	   5.1877811e-01	
   2.1120000e+01	   5.9778948e-01	   4.2154016e-01	
   2.1175000e+01	   5.8205521e-01	   4.7115672e-01	
   2.1230000e+01	   3.7871206e-01	   1.7778746e-01	
   2.1285000e+01	   4.1841425e-01	   3.0705573e-01	
   2.1340000e+01	   4.0583378e-01	   3.8397020e-01	
   2.1395000e+01	   6.4564938e-02	   1.1389955e-01	
   2.1450000e+01	  -1.4321541e-02	  -2.5645646e-02	
   2.1505000e+01	   1.7965863e-01	   1.8473658e-01	
   2.1560000e+01	   1.2374523e-01	   6.8404590e-02	
   2.1615000e+01	  -3.2927374e-01	  -2.3524972e-01	
   2.1670000e+01	   6.0959195e-03	  -2.8622005e-02	
   2.1725000e+01	   5.2933501e-01	   5.4217543e-01	
   2.1780000e+01	   5.3314250e-01	   3.8730881e-01	
   2.1835000e+01	   3.5290223e-01	   2.9029838e-01	
   2.1890000e+01	   7.2442646e-01	   3.2529916e-01	
   2.1945000e+01	   7.2300430e-01	   4.2342287e-01	
   2.2000000e+01	   3.6727694e-01	   2.3711195e-01	
   2.2055000e+01	   2.7931814e-01	   2.4481297e-01	
   2.2110000e+01	   3.7453046e-01	   1.3196690e-01	
   2.2165000e+01	   4.1971183e-01	   2.0823609e-01	
   2.2220000e+01	   4.4125057e-01	   1.6784019e-01	
   2.2275000e+01	   1.0006438e-01	   1.5597719e-01	
   2.2330000e+01	   1.2267537e-01	  -4.4459328e-02	
   2.2385000e+01	   1.2719789e-01	   1.3867741e-01	
   2.2440000e+01	   4.1409467e-01	   3.0688299e-01	
   2.2495000e+01	   5.9553504e-01	   2.8506495e-01	
   2.2550000e+01	   6.9392994e-01	   4.0043891e-01	
   2.2605000e+01	   7.3945596e-01	   3.9872725e-01	
   2.2660000e+01	   6.1400141e-01	   3.8063933e-01	
   2.2715000e+01	   4.4744289e-01	   3.3677119e-01	
   2.2770000e+01	   4.3404790e-01	   2.6110019e-01	
   2.2825000e+01	   5.2557290e-01	   3.3991381e-01	
   2.2880000e+01	   2.2968410e-01	   2.1006763e-01	
   2.2935000e+01	   2.7097180e-01	   1.6157023e-02	
   2.2990000e+01	   1.7423894e-01	   1.6819946e-01	
   2.3045000e+01	   4.1887355e-01	   1.4411847e-01	
   2.3100000e+01	  -4.9513828e-02	  -1.4395542e-01	
   2.3155000e+01	   4.3434406e-01	   6.4906849e-02	
   2.3210000e+01	   7.0073029e-01	   4.2829276e-01	
   2.3265000e+01	   6.8674708e-01	   4.3502317e-01	
   2.3320000e+01	   7.4324196e-01	   3.4245777e-01	
   2.3375000e+01	   7.1709865e-01	   2.8561087e-01	
   2.3430000e+01	   7.9937739e-01	   5.0501297e-01	
   2.3485000e+01	   5.6950995e-01	   1.6900645e-01	
   2.3540000e+01	   2.7865300e-01	   1.0610479e-01	
   2.3595000e+01	   2.0549615e-01	   1.2332512e-02	
   2.3650000e+01	   3.1425356e-01	   2.4302370e-01	
   2.3705000e+01	   8.8217247e-02	  -6.6735064e-02	
   2.3760000e+01	  -5.8719898e-02	  -9.3279419e-02	
   2.3815000e+01	   8.4707001e-01	   2.2189587e-01	
   2.3870000e+01	   1.1895980e+00	   4.2858708e-01	
   2.3925000e+01	   5.1786904e-01	   1.5413235e-01	
   2.3980000e+01	   5.4188363e-01	   2.5155468e-01	
   2.4035000e+01	   5.8531445e-01	   1.4348945e-01	
   2.4090000e+01	   8.2861110e-01	   4.2395449e-01	
   2.4145000e+01	   6.2581340e-01	   1.8004972e-01	
   2.4200000e+01	   4.3354800e-01	   1.7164300e-01	
   2.4255000e+01	   5.8071866e-01	   1.2757087e-01	
   2.4310000e+01	   3.5432431e-01	   3.4496741e-02	
   2.4365000e+01	   5.0185812e-01	   7.8014000e-03	
   2.4420000e+01	   3.9549704e-01	  -1.7250068e-01	
   2.4475000e+01	   4.7726656e-01	   1.6930344e-01	
   2.4530000e+01	   8.4091127e-01	   4.2903731e-01	
   2.4585000e+01	   9.5981988e-01	   4.6692632e-01	
   2.4640000e+01	   8.2679887e-01	   4.6862613e-01	
   2.4695000e+01	   1.0079226e+00	   5.2200519e-01	
   2.4750000e+01	   1.1422559e+00	   6.2829074e-01	
   2.4805000e+01	   8.8396984e-01	   3.4224364e-01	
   2.4860000e+01	   7.8008580e-01	   4.3139166e-01	
   2.4915000e+01	   7.1336254e-01	   4.1034520e-01	
   2.4970000e+01	   6.0586813e-01	   3.6990888e-01	
   2.5025000e+01	   4.1959887e-01	   1.2458764e-01	
   2.5080000e+01	   5.1388349e-01	   2.0115154e-01	
   2.5135000e+01	   1.4696902e-01	   1.5506098e-01	
   2.5190000e+01	   8.5530561e-01	   3.0707960e-01	
   2.5245000e+01	   1.0684936e+00	   3.2914948e-01	
   2.5300000e+01	   1.2362206e+00	   6.0848573e-01	
   2.5355000e+01	   1.3288003e+00	   6.1362685e-01	
   2.5410000e+01	   1.2743590e+00	   7.4016217e-01	
   2.5465000e+01	   7.9873864e-01	   5.4340981e-01	
   2.5520000e+01	   1.1202432e+00	   7.1925904e-01	
   2.5575000e+01	   1.2785583e+00	   7.3230492e-01	
   2.5630000e+01	   1.0896253e+00	   4.7381776e-01	
   2.5685000e+01	   7.9658471e-01	   4.0322318e-01	
   2.5740000e+01	   6.6653343e-01	   3.5116309e-01	
   2.5795000e+01	   6.6436133e-01	   3.1930374e-01	
   2.5850000e+01	   3.2144178e-01	   2.6538362e-02	
   2.5905000e+01	   4.9547468e-01	   4.3200295e-02	
   2.5960000e+01	   9.1882155e-01	   3.7605212e-01	
   2.6015000e+01	   1.4212450e+00	   5.0806721e-01	
   2.6070000e+01	   1.4410376e+00	   6.9796464e-01	
   2.6125000e+01	   1.4684227e+00	   6.3107855e-01	
   2.6180000e+01	   1.4191046e+00	   7.9840500e-01	
   2.6235000e+01	   1.3090393e+00	   5.7720464e-01	
   2.6290000e+01	   1.2380997e+00	   5.7632486e-01	
   2.6345000e+01	   9.5913934e-01	   4.3346879e-01	
   2.6400000e+01	   1.3564857e+00	   6.5368755e-01	
   2.6455000e+01	   1.1337825e+00	   6.8836790e-01	
   2.6510000e+01	   7.3303380e-01	   1.9787721e-01	
   2.6565000e+01	   4.8849448e-01	   2.4522830e-01	
   2.6620000e+01	   6.7004823e-01	   3.7674033e-01	
   2.6675000e+01	   9.6994054e-01	   3.6034991e-01	
   2.6730000e+01	   1.0895823e+00	   4.9974679e-01	
   2.6785000e+01	   1.3661032e+00	   5.3436560e-01	
   2.6840000e+01	   1.9168480e+00	   7.5556545e-01	
   2.6895000e+01	   1.2550300e+00	   7.0597712e-01	
   2.6950000e+01	   1.3170131e+00	   5.0171028e-01	
   2.7005000e+01	   1.3610804e+00	   6.3096183e-01	
   2.7060000e+01	   1.4485226e+00	   6.1711353e-01	
   2.7115000e+01	   1.2161586e+00	   5.9673064e-01	
   2.7170000e+01	   6.6423047e-01	   4.1240546e-01	
   2.7225000e+01	   1.2379541e+00	   5.8340228e-01	
   2.7280000e+01	   1.2084563e+00	   4.2390377e-01	
   2.7335000e+01	   6.3043543e-01	   1.3259685e-01	
   2.7390000e+01	   9.1092919e-01	   2.3791799e-01	
   2.7445000e+01	   1.2783016e+00	   5.9554016e-01	
   2.7500000e+01	   1.5174276e+00	   6.7226890e-01	
   2.7555000e+01	   1.3567475e+00	   6.6076389e-01	
   2.7610000e+01	   1.2915196e+00	   6.1967861e-01	
   2.7665000e+01	   1.5835767e+00	   7.9484025e-01	
   2.7720000e+01	   1.6434398e+00	   7.1191539e-01	
   2.7775000e+01	   1.0571036e+00	   5.6453565e-01	
   2.7830000e+01	   1.0487870e+00	   5.6792169e-01	
   2.7885000e+01	   1.2522526e+00	   5.0229140e-01	
   2.7940000e+01	   1.1383747e+00	   4.4420586e-01	
   2.7995000e+01	   9.6902954e-01	   3.8700891e-01	
   2.8050000e+01	   7.1351473e-01	   1.1463335e-01	
   2.8105000e+01	   6.3864575e-01	   1.0795181e-01	
   2.8160000e+01	   1.1030154e+00	   4.1963879e-01	
   2.8215000e+01	   1.2698813e+00	   5.0773430e-01	
   2.8270000e+01	   1.4362230e+00	   5.6918517e-01	
   2.8325000e+01	   1.5340551e+00	   8.9578415e-01	
   2.8380000e+01	   1.4582381e+00	   5.4788601e-01	
   2.8435000e+01	   1.4631382e+00	   6.8416979e-01	
   2.8490000e+01	   1.2223789e+00	   4.7661585e-01	
   2.8545000e+01	   1.2687489e+00	   6.4836488e-01	
   2.8600000e+01	   1.0582425e+00	   3.1549922e-01	
   2.8655000e+01	   8.7683741e-01	   2.4786784e-01	
   2.8710000e+01	   1.1418668e+00	   3.5740168e-01	
   2.8765000e+01	   8.5229287e-01	   4.3382967e-01	
   2.8820000e+01	   6.5189415e-01	   2.9659476e-01	
   2.8875000e+01	   1.0258864e+00	   2.7807947e-01	
   2.8930000e+01	   1.1463366e+00	   4.7888696e-01	
   2.8985000e+01	   1.3306309e+00	   6.4816375e-01	
   2.9040000e+01	   1.2896218e+00	   5.1869062e-01	
   2.9095000e+01	   1.3105808e+00	   4.0529879e-01	
   2.9150000e+01	   1.2602813e+00	   6.4776702e-01	
   2.9205000e+01	   1.1711735e+00	   3.9445089e-01	
   2.9260000e+01	   9.7468621e-01	   2.5414743e-01	
   2.9315000e+01	   7.6700267e-01	   2.0024497e-01	
   2.9370000e+01	   8.9774976e-01	   3.0126270e-01	
   2.9425000e+01	   9.3428809e-01	   1.7220067e-01	
   2.9480000e+01	   7.4521776e-01	   9.5584915e-02	
   2.9535000e+01	   8.7879083e-01	   1.9155716e-01	
   2.9590000e+01	   1.1827976e+00	   4.9549235e-01	
   2.9645000e+01	   1.4186732e+00	   5.1716238e-01	
   2.9700000e+01	   1.4205159e+00	   5.0286821e-01	
   2.9755000e+01	   9.3015438e-01	   5.6456885e-01	
   2.9810000e+01	   1.0955100e+00	   4.6935231e-01	
   2.9865000e+01	   1.4290446e+00	   5.1988706e-01	
   2.9920000e+01	   1.0346090e+00	   2.6240495e-01	
   2.9975000e+01	   8.4603941e-01	   1.7690397e-01	
   3.0030000e+01	   7.6280430e-01	   1.5060967e-01	
   3.0085000e+01	   7.5593337e-01	   1.4698889e-01	
   3.0140000e+01	   5.4190390e-01	   1.8934469e-02	
   3.0195000e+01	   8.4143339e-01	   1.6525597e-01	
   3.0250000e+01	   1.4630601e+00	   5.9780720e-01	
   3.0305000e+01	   1.4439482e+00	   4.8229201e-01	
   3.0360000e+01	   1.3492459e+00	   2.9169596e-01	
   3.0415000e+01	   1.0924720e+00	   3.7264225e-01	
   3.0470000e+01	   1.3520811e+00	   5.4715315e-01	
   3.0525000e+01	   1.0922742e+00	   3.7612493e-01	
   3.0580000e+01	   1.0503056e+00	   3.5560060e-01	
   3.0635000e+01	   9.2590205e-01	   2.7711892e-01	
   3.0690000e+01	   1.3381521e+00	   4.0633915e-01	
   3.0745000e+01	   9.3841248e-01	   1.7674262e-01	
   3.0800000e+01	   8.9432712e-01	  -5.0812014e-02	
   3.0855000e+01	   7.5311324e-01	  -1.9054619e-01	
   3.0910000e+01	   9.2184523e-01	   2.1193449e-01	
   3.0965000e+01	   1.3866242e+00	   4.6614057e-01	
   3.1020000e+01	   1.3550950e+00	   6.6577956e-02	
   3.1075000e+01	   1.5532118e+00	   3.3725808e-01	
   3.1130000e+01	   1.4906110e+00	   4.5425233e-01	
   3.1185000e+01	   1.4796590e+00	   2.9589113e-01	
   3.1240000e+01	   1.0663750e+00	   3.2738566e-01	
   3.1295000e+01	   1.1356727e+00	   1.4510468e-01	
   3.1350000e+01	   1.3579275e+00	   5.0563980e-01	
   3.1405000e+01	   9.6423618e-01	   1.6373555e-01	
   3.1460000e+01	   7.9788173e-01	   6.1960363e-03	
   3.1515000e+01	   1.0241489e+00	  -1.9767299e-02	
   3.1570000e+01	   9.2101803e-01	   6.8520899e-02	
   3.1625000e+01	   5.7880364e-01	  -4.5667502e-02	
   3.1680000e+01	   1.0920700e+00	   1.0348971e-01	
   3.1735000e+01	   1.3264255e+00	   2.8964784e-01	
   3.1790000e+01	   1.6834442e+00	   5.4890088e-01	
   3.1845000e+01	   1.6232965e+00	   4.0797056e-01	
   3.1900000e+01	   1.5081215e+00	   2.3187438e-01	
   3.1955000e+01	   1.5920307e+00	   2.9634877e-01	
   3.2010000e+01	   1.6854117e+00	   4.7036838e-01	
   3.2065000e+01	   1.3281921e+00	   1.7955594e-01	
   3.2120000e+01	   1.2620762e+00	   2.5013805e-01	
   3.2175000e+01	   1.2908766e+00	   1.6186834e-01	
   3.2230000e+01	   1.2811597e+00	   1.7408551e-01	
   3.2285000e+01	   7.9192192e-01	  -1.0552375e-01	
   3.2340000e+01	   7.5016652e-01	  -2.3233873e-01	
   3.2395000e+01	   8.4886535e-01	  -3.2778412e-02	
   3.2450000e+01	   1.1774814e+00	   9.6655446e-02	
   3.2505000e+01	   1.4992934e+00	   3.2738648e-01	
   3.2560000e+01	   1.3151989e+00	   8.4056503e-02	
   3.2615000e+01	   1.5269859e+00	   4.2144861e-01	
   3.2670000e+01	   1.6172304e+00	   3.0920992e-01	
   3.2725000e+01	   1.4880383e+00	   1.7980978e-01	
   3.2780000e+01	   1.0936765e+00	   1.9842887e-01	
   3.2835000e+01	   1.3921730e+00	   2.4902005e-01	
   3.2890000e+01	   1.3413876e+00	   3.6512348e-01	
   3.2945000e+01	   9.9818370e-01	  -7.8327040e-04	
   3.3000000e+01	   8.2941622e-01	  -3.1124987e-02	
   3.3055000e+01	   1.0383363e+00	  -1.4884647e-01	
   3.3110000e+01	   9.8499493e-01	  -2.0305302e-01	
   3.3165000e+01	   9.7742254e-01	  -2.8841599e-01	
   3.3220000e+01	   1.3216892e+00	   1.1228047e-01	
   3.3275000e+01	   1.6482379e+00	   3.1399177e-01	
   3.3330000e+01	   1.7052957e+00	   2.3534774e-01	
   3.3385000e+01	   1.5583455e+00	   8.0926111e-02	
   3.3440000e+01	   1.4422576e+00	   1.0157011e-01	
   3.3495000e+01	   1.4775054e+00	   2.8574367e-01	
   3.3550000e+01	   1.5190104e+00	   2.8135052e-01	
   3.3605000e+01	   1.1565324e+00	   3.2493758e-02	
   3.3660000e+01	   1.3346667e+00	   1.5338194e-01	
   3.3715000e+01	   1.0004483e+00	  -1.2229158e-01	
   3.3770000e+01	   9.4512629e-01	  -7.4571188e-02	
   3.3825000e+01	   8.0823018e-01	  -1.4520547e-01	
   3.3880000e+01	   7.5115290e-01	  -2.1596351e-01	
   3.3935000e+01	   1.4406514e+00	   2.4750722e-01	
   3.3990000e+01	   1.7176036e+00	   1.2572128e-01	
   3.4045000e+01	   1.7842684e+00	   1.5661250e-01	
   3.4100000e+01	   1.4243761e+00	   1.6381169e-01	
   3.4155000e+01	   1.5435889e+00	   1.8287545e-01	
   3.4210000e+01	   1.6478948e+00	   2.2280560e-01	
   3.4265000e+01	   1.2623888e+00	  -1.3224570e-01	
   3.4320000e+01	   1.1063367e+00	  -2.3161176e-03	
   3.4375000e+01	   1.1057362e+00	  -5.0608731e-02	
   3.4430000e+01	   1.1187383e+00	  -1.8279982e-01	
   3.4485000e+01	   6.8248346e-01	  -3.2186517e-01	
   3.4540000e+01	   9.4053726e-01	  -1.5051768e-01	
   3.4595000e+01	   1.7102434e+00	   9.0184684e-02	
   3.4650000e+01	   1.3062684e+00	   1.1480259e-01	
   3.4705000e+01	   1.4794485e+00	   1.4463505e-02	
   3.4760000e+01	   1.3512972e+00	   1.2122994e-01	
   3.4815000e+01	   1.2916865e+00	   2.9478105e-03	
   3.4870000e+01	   1.4840984e+00	   1.8277621e-01	
   3.4925000e+01	   1.1840668e+00	  -2.5374501e-02	
   3.4980000e+01	   1.0046040e+00	  -3.1120715e-02	
   3.5035000e+01	   1.0408192e+00	   9.8066273e-03	
   3.5090000e+01	   5.4567652e-01	  -4.2789829e-01	
   3.5145000e+01	   6.2610009e-01	  -3.6489076e-01	
   3.5200000e+01	   6.3766275e-01	  -2.6642288e-01	
   3.5255000e+01	   1.3166321e+00	   1.4871043e-01	
   3.5310000e+01	   8.7037949e-01	  -1.9334452e-01	
   3.5365000e+01	   1.2492020e+00	  -1.9675931e-01	
   3.5420000e+01	   9.9972440e-01	  -3.1062794e-02	
   3.5475000e+01	   1.0179559e+00	   4.9635074e-02	
   3.5530000e+01	   1.1152090e+00	  -1.8396099e-01	
   3.5585000e+01	   7.9347444e-01	  -4.6548085e-01	
   3.5640000e+01	   5.4581286e-01	  -3.2547986e-01	
   3.5695000e+01	   7.4398979e-01	  -1.9257233e-01	
   3.5750000e+01	   6.4280146e-01	  -3.3959818e-01	
   3.5805000e+01	   1.0003326e+00	  -1.9411975e-01	
   3.5860000e+01	   1.1710513e+00	  -1.2789305e-01	
   3.5915000e+01	   1.2006157e+00	   6.8540582e-02	
   3.5970000e+01	   1.1580414e+00	  -1.2086469e-01	
   3.6025000e+01	   8.7113254e-01	  -2.7986317e-01	
   3.6080000e+01	   1.1514952e+00	   1.1313692e-01	
   3.6135000e+01	   9.3977978e-01	  -2.0880201e-02	
   3.6190000e+01	   6.8419775e-01	  -2.4331652e-01	
   3.6245000e+01	   7.3830724e-01	  -1.6032821e-01	
   3.6300000e+01	   8.0526053e-01	  -9.3726718e-02	
   3.6355000e+01	   5.9031522e-01	  -2.3744286e-01	
   3.6410000e+01	   1.0163648e+00	  -8.0027765e-02	
   3.6465000e+01	   1.2547208e+00	  -4.8193013e-02	
   3.6520000e+01	   1.5480973e+00	   2.0991521e-01	
   3.6575000e+01	   1.3707952e+00	   2.3712864e-01	
   3.6630000e+01	   1.0457026e+00	   8.0708045e-02	
   3.6685000e+01	   1.2862644e+00	   3.3167435e-01	
   3.6740000e+01	   1.3558618e+00	   1.4118894e-01	
   3.6795000e+01	   1.0218953e+00	  -1.3829725e-02	
   3.6850000e+01	   1.0245518e+00	   3.7761510e-02	
   3.6905000e+01	   6.0123680e-01	  -1.4429884e-01	
   3.6960000e+01	   9.6820797e-01	   1.0649101e-01	
   3.7015000e+01	   1.4161327e+00	   2.5682283e-01	
   3.7070000e+01	   1.5202231e+00	   1.9407702e-01	
   3.7125000e+01	   1.2498841e+00	   2.5558684e-01	
   3.7180000e+01	   1.6424407e+00	   4.7605045e-01	
   3.7235000e+01	   1.4621713e+00	   3.8262023e-01	
   3.7290000e+01	   1.5807288e+00	   5.6304047e-01	
   3.7345000e+01	   1.2611900e+00	   3.3633714e-01	
   3.7400000e+01	   1.3952917e+00	   4.4435728e-01	
   3.7455000e+01	   1.2676703e+00	   3.0104289e-01	
   3.7510000e+01	   1.2903874e+00	   3.7447403e-01	
   3.7565000e+01	   9.5153948e-01	   7.5586775e-02	
   3.7620000e+01	   1.6987425e+00	   5.2396074e-01	
   3.7675000e+01	   1.7087221e+00	   6.1607006e-01	
   3.7730000e+01	   1.6347520e+00	   5.8105226e-01	
   3.7785000e+01	   1.7191498e+00	   6.9787954e-01	
   3.7840000e+01	   1.9496637e+00	   9.1520249e-01	
   3.7895000e+01	   2.0416725e+00	   7.3367226e-01	
   3.7950000e+01	   1.5932306e+00	   5.3041461e-01	
   3.8005000e+01	   1.4508972e+00	   5.2864539e-01	
   3.8060000e+01	   1.5482562e+00	   5.8031379e-01	
   3.8115000e+01	   1.6717850e+00	   5.9486161e-01	
   3.8170000e+01	   1.4797463e+00	   3.2995347e-01	
   3.8225000e+01	   1.2448543e+00	   3.2138445e-01	
   3.8280000e+01	   1.3122209e+00	   4.5536813e-01	
   3.8335000e+01	   1.4184127e+00	   5.3262899e-01	
   3.8390000e+01	   1.5813904e+00	   3.9740756e-01	
   3.8445000e+01	   1.8171350e+00	   7.7045792e-01	
   3.8500000e+01	   1.8575650e+00	   8.4938239e-01	
   3.8555000e+01	   2.0502217e+00	   9.7931276e-01	
   3.8610000e+01	   1.8390017e+00	   6.6388597e-01	
   3.8665000e+01	   1.7721147e+00	   6.5227207e-01	
   3.8720000e+01	   1.7141615e+00	   6.4705132e-01	
   3.8775000e+01	   1.7118617e+00	   6.3567400e-01	
   3.8830000e+01	   1.5429170e+00	   4.4006857e-01	
   3.8885000e+01	   1.2775640e+00	   3.3924575e-01	
   3.8940000e+01	   1.5438558e+00	   4.3306044e-01	
   3.8995000e+01	   1.2144075e+00	   2.7515749e-01	
   3.9050000e+01	   9.4838801e-01	   4.1674680e-02	
   3.9105000e+01	   1.4541524e+00	   4.0959523e-01	
   3.9160000e+01	   1.9639470e+00	   7.8771804e-01	
   3.9215000e+01	   2.0106120e+00	   7.6503939e-01	
   3.9270000e+01	   1.9230282e+00	   6.5501563e-01	
   3.9325000e+01	   1.9225127e+00	   7.2050075e-01	
   3.9380000e+01	   1.8213479e+00	   7.0808462e-01	
   3.9435000e+01	   1.6454613e+00	   6.2743428e-01	
   3.9490000e+01	   1.6345712e+00	   6.1808679e-01	
   3.9545000e+01	   1.6586164e+00	   5.1911379e-01	
   3.9600000e+01	   1.4242679e+00	   4.2627560e-01	
   3.9655000e+01	   1.4051890e+00	   4.8744663e-01	
   3.9710000e+01	   1.0972321e+00	   3.6091871e-01	
   3.9765000e+01	   9.5327149e-01	   1.0840388e-01	
   3.9820000e+01	   1.0646664e+00	   3.3735798e-01	
   3.9875000e+01	   1.4397627e+00	   5.5434576e-01	
   3.9930000e+01	   1.5080639e+00	   4.2027120e-01	
   3.9985000e+01	   1.4978279e+00	   6.8851135e-01	
   4.0040000e+01	   1.6771817e+00	   5.9980601e-01	
   4.0095000e+01	   1.7910422e+00	   6.0715869e-01	
   4.0150000e+01	   1.3879960e+00	   4.5598457e-01	
   4.0205000e+01	   1.3610197e+00	   3.8620308e-01	
   4.0260000e+01	   1.3478436e+00	   5.0994489e-01	
   4.0315000e+01	   1.2414263e+00	   4.3376191e-01	
   4.0370000e+01	   1.0301912e+00	   2.5933447e-01	
   4.0425000e+01	   1.1440961e+00	   2.7615752e-01	
   4.0480000e+01	   8.4279195e-01	   2.4097618e-01	
   4.0535000e+01	   4.4254923e-01	  -3.8895951e-02	
   4.0590000e+01	   1.3070676e+00	   3.6490369e-01	
   4.0645000e+01	   1.3448273e+00	   6.8135140e-01	
   4.0700000e+01	   1.3220626e+00	   4.7969447e-01	
   4.0755000e+01	   1.2827602e+00	   6.5750913e-01	
   4.0810000e+01	   1.2693688e+00	   6.5655053e-01	
   4.0865000e+01	   1.1572416e+00	   5.0270336e-01	
   4.0920000e+01	   1.1936881e+00	   5.6828342e-01	
   4.0975000e+01	   1.0701262e+00	   4.5956152e-01	
   4.1030000e+01	   8.4377662e-01	   2.3577823e-01	
   4.1085000e+01	   7.8292395e-01	   2.1581556e-01	
   4.1140000e+01	   6.0832954e-01	   2.3672469e-01	
   4.1195000e+01	   8.6264353e-01	   2.6701878e-01	
   4.1250000e+01	   1.0404273e+00	   2.7851588e-01	
   4.1305000e+01	   1.3795427e+00	   6.6473036e-01	
   4.1360000e+01	   1.2496904e+00	   5.5436082e-01	
   4.1415000e+01	   1.3632935e+00	   5.0931708e-01	
   4.1470000e+01	   1.0485905e+00	   2.5230314e-01	
   4.1525000e+01	   1.0301096e+00	   2.7043433e-01	
   4.1580000e+01	   1.0356318e+00	   4.0744579e-01	
   4.1635000e+01	   7.7016170e-01	   1.2106953e-01	
   4.1690000e+01	   3.3362039e-01	   3.1074530e-02	
   4.1745000e+01	   5.4966006e-01	   7.4082028e-02	
   4.1800000e+01	   6.9528186e-01	   1.7455672e-01	
   4.1855000e+01	   5.5075726e-01	   1.0728885e-01	
   4.1910000e+01	   1.0800564e+00	   3.2830295e-01	
   4.1965000e+01	   1.3278453e+00	   6.1151198e-01	
   4.2020000e+01	   9.6157007e-01	   5.0717367e-01	
   4.2075000e+01	   1.1455542e+00	   5.8525709e-01	
   4.2130000e+01	   9.7529377e-01	   4.4209995e-01	
   4.2185000e+01	   9.9974160e-01	   4.9177546e-01	
   4.2240000e+01	   9.4872491e-01	   5.5750393e-01	
   4.2295000e+01	   9.9645083e-01	   4.8164309e-01	
   4.2350000e+01	   7.2369968e-01	   3.1408001e-01	
   4.2405000e+01	   4.2803966e-01	   1.2658421e-01	
   4.2460000e+01	   5.2773686e-01	   3.4713594e-01	
   4.2515000e+01	   4.9929958e-01	   2.9295707e-01	
   4.2570000e+01	   9.2636639e-01	   4.9153021e-01	
   4.2625000e+01	   8.1573715e-01	   4.1569930e-01	
   4.2680000e+01	   1.2426081e+00	   7.1338105e-01	
   4.2735000e+01	   1.4844041e+00	   8.3970477e-01	
   4.2790000e+01	   1.1335368e+00	   5.6219628e-01	
   4.2845000e+01	   8.6467147e-01	   6.1047016e-01	
   4.2900000e+01	   1.0899944e+00	   6.8713612e-01	
   4.2955000e+01	   1.0692546e+00	   5.8864434e-01	
   4.3010000e+01	   8.0154801e-01	   5.9969987e-01	
   4.3065000e+01	   4.9326924e-01	   3.6685600e-01	
   4.3120000e+01	   8.2252915e-01	   4.6503722e-01	
   4.3175000e+01	   6.1978556e-01	   3.9497895e-01	
   4.3230000e+01	   7.2287570e-01	   4.4874612e-01	
   4.3285000e+01	   1.0898866e+00	   6.7471804e-01	
   4.3340000e+01	   1.4077836e+00	   8.6944805e-01	
   4.3395000e+01	   1.4845708e+00	   8.6992551e-01	
   4.3450000e+01	   1.0542042e+00	   6.3607537e-01	
   4.3505000e+01	   1.1431735e+00	   7.4300462e-01	
   4.3560000e+01	   1.4003701e+00	   8.4136300e-01	
   4.3615000e+01	   7.9136010e-01	   6.7861378e-01	
   4.3670000e+01	   1.0208658e+00	   6.4289732e-01	
   4.3725000e+01	   5.0344166e-01	   4.2840462e-01	
   4.3780000e+01	   6.6720858e-01	   4.2705823e-01	
   4.3835000e+01	   4.9129824e-01	   5.1714729e-01	
   4.3890000e+01	   7.8929948e-01	   5.5417892e-01	
   4.3945000e+01	   1.0955178e+00	   7.9504737e-01	
   4.4000000e+01	   9.7781225e-01	   6.3374870e-01	
   4.4055000e+01	   1.0539794e+00	   8.7494829e-01	
   4.4110000e+01	   1.0978799e+00	   7.8803732e-01	
   4.4165000e+01	   1.4119689e+00	   7.5937188e-01	
   4.4220000e+01	   1.0187417e+00	   7.4902192e-01	
   4.4275000e+01	   1.0459049e+00	   7.2588045e-01	
   4.4330000e+01	   8.0294219e-01	   6.0718389e-01	
   4.4385000e+01	   6.7953819e-01	   4.6591506e-01	
   4.4440000e+01	   9.3738695e-01	   6.4802268e-01	
   4.4495000e+01	   5.5865846e-01	   4.5863101e-01	
   4.4550000e+01	   4.8982962e-01	   3.2448531e-01	
   4.4605000e+01	   7.4002362e-01	   4.4156793e-01	
   4.4660000e+01	   9.0729379e-01	   8.4150423e-01	
   4.4715000e+01	   1.2259032e+00	   8.6313957e-01	
   4.4770000e+01	   7.6511407e-01	   7.3284310e-01	
   4.4825000e+01	   6.2615540e-01	   6.3351318e-01	
   4.4880000e+01	   1.3233563e+00	   1.0074232e+00	
   4.4935000e+01	   8.6772414e-01	   8.2080069e-01	
   4.4990000e+01	   9.9633562e-01	   7.5073433e-01	
   4.5045000e+01	   6.8920999e-01	   5.3452573e-01	
   4.5100000e+01	   8.4159229e-01	   7.6369736e-01	
   4.5155000e+01	   6.4750258e-01	   5.0160762e-01	
   4.5210000e+01	   4.6214345e-01	   3.1287776e-01	
   4.5265000e+01	   5.2675766e-01	   4.1722306e-01	
   4.5320000e+01	   1.0777663e+00	   7.3375507e-01	
   4.5375000e+01	   1.2204131e+00	   8.3989611e-01	
   4.5430000e+01	   8.2037697e-01	   4.7697793e-01	
   4.5485000e+01	   7.6536227e-01	   5.2776465e-01	
   4.5540000e+01	   9.7841535e-01	   5.7940841e-01	
   4.5595000e+01	   1.0207594e+00	   6.9478596e-01	
   4.5650000e+01	   6.8069598e-01	   4.2207598e-01	
   4.5705000e+01	   6.5049061e-01	   4.5107031e-01	
   4.5760000e+01	   7.9080909e-01	   6.2407601e-01	
   4.5815000e+01	   4.4631285e-01	   4.2005291e-01	
   4.5870000e+01	   1.3090519e-01	   2.6238524e-01	
   4.5925000e+01	   4.7613648e-01	   3.2710747e-01	
   4.5980000e+01	   1.0121740e+00	   7.8846026e-01	
   4.6035000e+01	   1.0931880e+00	   6.7676407e-01	
   4.6090000e+01	   7.6960499e-01	   6.5606584e-01	
   4.6145000e+01	   1.0552413e+00	   6.9811171e-01	
   4.6200000e+01	   1.0097969e+00	   6.9157989e-01	
   4.6255000e+01	   6.1509022e-01	   5.0416074e-01	
   4.6310000e+01	   8.8467986e-01	   4.9257094e-01	
   4.6365000e+01	   6.1469655e-01	   3.1524134e-01	
   4.6420000e+01	   6.2717885e-01	   6.2762602e-01	
   4.6475000e+01	   5.2712568e-01	   4.6698227e-01	
   4.6530000e+01	   3.0891281e-01	   2.5490157e-01	
   4.6585000e+01	   3.4272187e-01	   2.2945250e-01	
   4.6640000e+01	   9.0340438e-01	   7.6016482e-01	
   4.6695000e+01	   1.1149940e+00	   8.3050075e-01	
   4.6750000e+01	   1.0832827e+00	   7.6146675e-01	
   4.6805000e+01	   9.3177572e-01	   6.8756722e-01	
   4.6860000e+01	   1.2801283e+00	   7.7305435e-01	
   4.6915000e+01	   1.4126429e+00	   9.5684299e-01	
   4.6970000e+01	   1.1449498e+00	   7.2895269e-01	
   4.7025000e+01	   7.2309856e-01	   3.6310110e-01	
   4.7080000e+01	   8.0450952e-01	   6.1216913e-01	
   4.7135000e+01	   7.1148203e-01	   4.9506959e-01	
   4.7190000e+01	   6.9710110e-01	   4.4842230e-01	
   4.7245000e+01	   5.6765410e-01	   3.1879535e-01	
   4.7300000e+01	   7.0447545e-01	   3.1099065e-01	
   4.7355000e+01	   1.1891271e+00	   1.0672824e+00	
   4.7410000e+01	   1.2412495e+00	   8.1493584e-01	
   4.7465000e+01	   1.4175784e+00	   8.4167073e-01	
   4.7520000e+01	   1.3973114e+00	   8.3677053e-01	
   4.7575000e+01	   1.4217336e+00	   8.4267228e-01	
   4.7630000e+01	   1.3155725e+00	   6.4730815e-01	
   4.7685000e+01	   1.1891271e+00	   6.8279634e-01	
   4.7740000e+01	   1.1052736e+00	   5.8269618e-01	
   4.7795000e+01	   9.9048479e-01	   6.0029551e-01	
   4.7850000e+01	   1.0292550e+00	   4.1850139e-01	
   4.7905000e+01	   7.3888023e-01	   1.8701025e-01	
   4.7960000e+01	   8.1226419e-01	   4.4089616e-01	
   4.8015000e+01	   7.6074344e-01	   3.9190656e-01	
   4.8070000e+01	   8.4082435e-01	   4.6279147e-01	
   4.8125000e+01	   1.1126110e+00	   6.0911655e-01	
   4.8180000e+01	   1.4416233e+00	   6.7691887e-01	
   4.8235000e+01	   1.4643798e+00	   8.4790509e-01	
   4.8290000e+01	   1.3087956e+00	   5.4769519e-01	
   4.8345000e+01	   1.3079980e+00	   7.6796934e-01	
   4.8400000e+01	   1.3992476e+00	   6.4809577e-01	
   4.8455000e+01	   1.4149084e+00	   8.2682829e-01	
   4.8510000e+01	   1.1032984e+00	   5.8703282e-01	
   4.8565000e+01	   1.0799981e+00	   5.1115147e-01	
   4.8620000e+01	   1.1774668e+00	   5.9853039e-01	
   4.8675000e+01	   8.6983094e-01	   5.1571836e-01	
   4.8730000e+01	   8.7286056e-01	   2.7917391e-01	
   4.8785000e+01	   7.2032952e-01	   2.5887632e-01	
   4.8840000e+01	   9.1936113e-01	   2.7018265e-01	
   4.8895000e+01	   1.3549749e+00	   7.1421764e-01	
   4.8950000e+01	   1.2773166e+00	   7.2677849e-01	
   4.9005000e+01	   1.2558664e+00	   6.1272036e-01	
   4.9060000e+01	   1.2572840e+00	   7.0259449e-01	
   4.9115000e+01	   1.1895522e+00	   6.9519357e-01	
   4.9170000e+01	   1.3517443e+00	   5.5222945e-01	
   4.9225000e+01	   9.1669608e-01	   3.6498273e-01	
   4.9280000e+01	   1.0364341e+00	   3.5877089e-01	
   4.9335000e+01	   1.0369369e+00	   4.5483488e-01	
   4.9390000e+01	   6.6372891e-01	   2.8824845e-01	
   4.9445000e+01	   5.7271291e-01	   1.3431483e-01	
   4.9500000e+01	   6.2879274e-01	   1.1431904e-01	
   4.9555000e+01	   8.5003438e-01	   2.8609929e-01	
   4.9610000e+01	   8.8504011e-01	   4.6020865e-01	
   4.9665000e+01	   9.2356802e-01	   3.6286977e-01	
   4.9720000e+01	   1.3233447e+00	   6.8525764e-01	
   4.9775000e+01	   1.2963668e+00	   5.0597068e-01	
   4.9830000e+01	   1.1057399e+00	   2.9377630e-01	
   4.9885000e+01	   9.6759159e-01	   2.8784794e-01	
   4.9940000e+01	   1.0136488e+00	   2.7358925e-01	
   4.9995000e+01	   7.4947500e-01	   3.1786289e-01	
   5.0050000e+01	   6.9733922e-01	   2.1118509e-01	
   5.0105000e+01	   4.0217171e-01	   3.7696877e-02	
   5.0160000e+01	   4.1278223e-01	  -2.0971094e-02	
   5.0215000e+01	   7.2863153e-01	   1.6237483e-01	
   5.0270000e+01	   1.0015632e+00	   2.6985622e-01	
   5.0325000e+01	   1.0489057e+00	   4.0001927e-01	
   5.0380000e+01	   1.2402757e+00	   3.3281967e-01	
   5.0435000e+01	   9.6306076e-01	   2.6736104e-01	
   5.0490000e+01	   1.2804546e+00	   5.0413019e-01	
   5.0545000e+01	   9.3678474e-01	   1.7981119e-01	
   5.0600000e+01	   6.6012127e-01	   1.0596188e-01	
   5.0655000e+01	   8.7529356e-01	   2.4794824e-01	
   5.0710000e+01	   7.4450946e-01	   1.5699629e-01	
   5.0765000e+01	   5.4784578e-01	  -1.7481445e-02	
   5.0820000e+01	   3.6483500e-02	  -3.2586345e-01	
   5.0875000e+01	   4.0461285e-02	  -1.8433051e-01	
   5.0930000e+01	   7.8986277e-01	   2.1636930e-01	
   5.0985000e+01	   8.0812812e-01	   2.7659839e-02	
   5.1040000e+01	   1.0116597e+00	   4.9728004e-01	
   5.1095000e+01	   1.1097174e+00	   4.5359735e-01	
   5.1150000e+01	   1.3033529e+00	   4.3420814e-01	
   5.1205000e+01	   1.0679477e+00	   3.2961406e-01	
   5.1260000e+01	   1.0885717e+00	   2.4912766e-01	
   5.1315000e+01	   1.2033924e+00	   3.1274245e-01	
   5.1370000e+01	   9.9695628e-01	   2.0902610e-01	
   5.1425000e+01	   8.4387433e-01	   3.5998773e-02	
   5.1480000e+01	   6.6753845e-01	   5.9821216e-02	
   5.1535000e+01	   8.5237847e-01	   1.4370372e-01	
   5.1590000e+01	   1.1905021e+00	   2.4765902e-01	
   5.1645000e+01	   1.2829980e+00	   2.6315447e-01	
   5.1700000e+01	   1.2958922e+00	   4.4948615e-01	
   5.1755000e+01	   1.5806799e+00	   3.9055924e-01	
   5.1810000e+01	   1.4599912e+00	   6.6130513e-01	
   5.1865000e+01	   1.3018173e+00	   4.1612508e-01	
   5.1920000e+01	   1.1176554e+00	   4.1341823e-01	
   5.1975000e+01	   1.3607775e+00	   4.0473455e-01	
   5.2030000e+01	   1.2060531e+00	   3.0187829e-01	
   5.2085000e+01	   1.2865311e+00	   2.3484829e-01	
   5.2140000e+01	   1.1056536e+00	   8.8814158e-02	
   5.2195000e+01	   1.0730920e+00	   2.0686250e-01	
   5.2250000e+01	   1.0940203e+00	   3.6058228e-01	
   5.2305000e+01	   1.2097216e+00	   3.0672084e-01	
   5.2360000e+01	   1.5062098e+00	   4.8262245e-01	
   5.2415000e+01	   1.8806691e+00	   6.1974514e-01	
   5.2470000e+01	   1.7231332e+00	   7.7794662e-01	
   5.2525000e+01	   1.5512559e+00	   5.4957085e-01	
   5.2580000e+01	   1.5012803e+00	   4.5783366e-01	
   5.2635000e+01	   1.7877318e+00	   6.0030789e-01	
   5.2690000e+01	   1.3744771e+00	   4.5169720e-01	
   5.2745000e+01	   1.2940231e+00	   2.8493830e-01	
   5.2800000e+01	   1.4544553e+00	   3.9812310e-01	
   5.2855000e+01	   1.1579508e+00	   3.2007248e-01	
   5.2910000e+01	   8.3414143e-01	   3.0238466e-01	
   5.2965000e+01	   1.1137223e+00	   2.4374986e-01	
   5.3020000e+01	   1.4644019e+00	   3.8100844e-01	
   5.3075000e+01	   1.6112471e+00	   5.8809557e-01	
   5.3130000e+01	   1.7757466e+00	   5.5382121e-01	
   5.3185000e+01	   1.7507430e+00	   4.8363416e-01	
   5.3240000e+01	   1.7346418e+00	   5.2263231e-01	
   5.3295000e+01	   1.7592888e+00	   6.0825711e-01	
   5.3350000e+01	   1.9716729e+00	   8.2706232e-01	
   5.3405000e+01	   1.5461992e+00	   4.0903662e-01	
   5.3460000e+01	   1.3050670e+00	   3.0149031e-01	
   5.3515000e+01	   1.6801758e+00	   5.5383873e-01	
   5.3570000e+01	   1.1943590e+00	   3.6696835e-01	
   5.3625000e+01	   1.3022987e+00	   2.8841654e-01	
   5.3680000e+01	   1.1688909e+00	   1.4673646e-01	
   5.3735000e+01	   1.6626756e+00	   6.7144594e-01	
   5.3790000e+01	   1.8627906e+00	   7.3223430e-01	
   5.3845000e+01	   1.5657740e+00	   3.9250766e-01	
   5.3900000e+01	   1.5720732e+00	   5.2958376e-01	
   5.3955000e+01	   1.6989069e+00	   6.5493025e-01	
   5.4010000e+01	   1.7091065e+00	   6.3239547e-01	
   5.4065000e+01	   1.4916771e+00	   4.4097493e-01	
   5.4120000e+01	   1.2680024e+00	   2.3880570e-01	
   5.4175000e+01	   1.2522491e+00	   3.3434220e-01	
   5.4230000e+01	   1.3183120e+00	   3.1103631e-01	
   5.4285000e+01	   9.8095257e-01	   1.9003300e-01	
   5.4340000e+01	   1.4575345e+00	   4.8458148e-01	
   5.4395000e+01	   1.3951330e+00	   4.9339396e-01	
   5.4450000e+01	   1.6830711e+00	   6.6408903e-01	
   5.4505000e+01	   1.5900346e+00	   4.2232844e-01	
   5.4560000e+01	   1.5330832e+00	   3.2599272e-01	
   5.4615000e+01	   1.5332423e+00	   5.2466911e-01	
   5.4670000e+01	   1.4772171e+00	   5.2538016e-01	
   5.4725000e+01	   1.3950857e+00	   3.2524890e-01	
   5.4780000e+01	   1.0395657e+00	   2.8738599e-01	
   5.4835000e+01	   1.1098030e+00	   2.6204256e-01	
   5.4890000e+01	   1.0905552e+00	   2.8410282e-01	
   5.4945000e+01	   9.1124844e-01	   6.4943175e-02	
   5.5000000e+01	   1.3760269e+00	   2.7328179e-01	
   5.5055000e+01	   1.5651765e+00	   5.2061464e-01	
   5.5110000e+01	   1.6649956e+00	   6.3047565e-01	
   5.5165000e+01	   1.7181027e+00	   6.5866265e-01	
   5.5220000e+01	   1.5085919e+00	   4.4020574e-01	
   5.5275000e+01	   1.6009146e+00	   5.6504367e-01	
   5.5330000e+01	   1.4257278e+00	   4.7707907e-01	
   5.5385000e+01	   1.5674459e+00	   5.5286716e-01	
   5.5440000e+01	   1.4120744e+00	   3.5558012e-01	
   5.5495000e+01	   1.1489610e+00	   1.6058705e-01	
   5.5550000e+01	   1.2764462e+00	   2.8117310e-01	
   5.5605000e+01	   1.2293213e+00	   3.5974542e-01	
   5.5660000e+01	   1.7911040e+00	   4.5587008e-01	
   5.5715000e+01	   1.8211369e+00	   5.2432332e-01	
   5.5770000e+01	   1.8399834e+00	   7.4320327e-01	
   5.5825000e+01	   2.0489055e+00	   5.2055129e-01	
   5.5880000e+01	   1.9344820e+00	   6.1330241e-01	
   5.5935000e+01	   1.9589870e+00	   6.9851307e-01	
   5.5990000e+01	   2.0766706e+00	   7.0354385e-01	
   5.6045000e+01	   1.5091043e+00	   3.8695695e-01	
   5.6100000e+01	   1.4122640e+00	   3.1603491e-01	
   5.6155000e+01	   1.8006848e+00	   3.6312558e-01	
   5.6210000e+01	   1.5395649e+00	   4.2373267e-01	
   5.6265000e+01	   1.4307032e+00	   2.0572997e-01	
   5.6320000e+01	   1.4542223e+00	   3.8835664e-01	
   5.6375000e+01	   1.7214513e+00	   7.0950912e-01	
   5.6430000e+01	   2.1603317e+00	   7.9399598e-01	
   5.6485000e+01	   1.9810495e+00	   7.1985744e-01	
   5.6540000e+01	   2.0079043e+00	   5.6411149e-01	
   5.6595000e+01	   1.7167978e+00	   6.1520310e-01	
   5.6650000e+01	   1.9738529e+00	   7.8184305e-01	
   5.6705000e+01	   2.2387712e+00	   7.1365912e-01	
   5.6760000e+01	   1.5628509e+00	   3.2737172e-01	
   5.6815000e+01	   1.3935455e+00	   4.4740353e-01	
   5.6870000e+01	   1.7850738e+00	   6.9086790e-01	
   5.6925000e+01	   1.3019849e+00	   5.2638978e-01	
   5.6980000e+01	   1.2267205e+00	   1.2778241e-01	
   5.7035000e+01	   1.6254921e+00	   5.0813454e-01	
   5.7090000e+01	   2.0579365e+00	   7.8094917e-01	
   5.7145000e+01	   2.0580627e+00	   6.2405067e-01	
   5.7200000e+01	   2.1427248e+00	   7.5935108e-01	
   5.7255000e+01	   2.0950165e+00	   6.7238589e-01	
   5.7310000e+01	   2.0840080e+00	   6.6261735e-01	
   5.7365000e+01	   2.0739306e+00	   6.1251724e-01	
   5.7420000e+01	   1.7010507e+00	   4.0956268e-01	
   5.7475000e+01	   1.4016015e+00	   4.2124946e-01	
   5.7530000e+01	   1.5920350e+00	   2.7622290e-01	
   5.7585000e+01	   1.5029853e+00	   3.6478145e-01	
   5.7640000e+01	   9.8729064e-01	   6.7506209e-02	
   5.7695000e+01	   1.3091619e+00	   1.9047979e-01	
   5.7750000e+01	   1.8034538e+00	   4.3244927e-01	
   5.7805000e+01	   1.8803987e+00	   4.7847647e-01	
   5.7860000e+01	   1.7193408e+00	   6.8766280e-01	
   5.7915000e+01	   1.7395796e+00	   4.5019232e-01	
   5.7970000e+01	   1.7296710e+00	   5.9943417e-01	
   5.8025000e+01	   1.7345417e+00	   5.3419818e-01	
   5.8080000e+01	   1.4189242e+00	   3.8542484e-01	
   5.8135000e+01	   1.1748195e+00	   6.3498437e-02	
   5.8190000e+01	   1.3849035e+00	   2.8252471e-01	
   5.8245000e+01	   1.1113334e+00	   2.2090044e-01	
   5.8300000e+01	   1.1692160e+00	   3.3754343e-01	
   5.8355000e+01	   1.1104324e+00	   9.5382391e-02	
   5.8410000e+01	   1.5572367e+00	   4.8188123e-01	
   5.8465000e+01	   1.7605658e+00	   5.0605518e-01	
   5.8520000e+01	   1.3473127e+00	   3.6931985e-01	
   5.8575000e+01	   1.4450407e+00	   3.2573175e-01	
   5.8630000e+01	   1.4243554e+00	   4.0046686e-01	
   5.8685000e+01	   1.2170713e+00	   3.1200270e-01	
   5.8740000e+01	   1.1974550e+00	   1.2662598e-01	
   5.8795000e+01	   9.1095494e-01	   1.3536322e-01	
   5.8850000e+01	   6.3929225e-01	   2.2654637e-01	
   5.8905000e+01	   8.6646015e-01	   7.8825371e-02	
   5.8960000e+01	   8.5625336e-01	   1.6594409e-02	
   5.9015000e+01	   1.3088914e+00	   5.0522974e-01	
   5.9070000e+01	   1.4546607e+00	   4.3947096e-01	
   5.9125000e+01	   1.3863030e+00	   6.4504260e-01	
   5.9180000e+01	   1.3249898e+00	   4.4399299e-01	
   5.9235000e+01	   1.2489228e+00	   3.5111966e-01	
   5.9290000e+01	   1.2525369e+00	   4.2472374e-01	
   5.9345000e+01	   1.2256847e+00	   4.0431656e-01	
   5.9400000e+01	   1.0628157e+00	   2.7780455e-01	
   5.9455000e+01	   8.0280220e-01	   5.9306451e-02	
   5.9510000e+01	   4.8613440e-01	  -1.0431094e-02	
   5.9565000e+01	   5.9203886e-01	   8.5926755e-02	
   5.9620000e+01	   9.6413177e-01	   1.7750373e-01	
   5.9675000e+01	   1.0603576e+00	   2.8662529e-01	
   5.9730000e+01	   1.5414313e+00	   5.6244915e-01	
   5.9785000e+01	   1.5575337e+00	   6.0107323e-01	
   5.9840000e+01	   1.2729121e+00	   4.1234662e-01	
   5.9895000e+01	   1.2674417e+00	   3.2938775e-01	
   5.9950000e+01	   1.1445286e+00	   3.6825048e-01	
   6.0005000e+01	   1.0506111e+00	   4.8407987e-01	
   6.0060000e+01	   1.1001616e+00	   3.1590673e-01	
   6.0115000e+01	   8.9867633e-01	   2.1478366e-01	
   6.0170000e+01	   9.0550133e-01	   2.0332839e-01	
   6.0225000e+01	   9.3799923e-01	   1.1455062e-01	
   6.0280000e+01	   7.0307622e-01	  -1.1583174e-01	
   6.0335000e+01	   8.5488227e-01	   9.5127036e-02	
   6.0390000e+01	   1.3387877e+00	   4.9915602e-01	
   6.0445000e+01	   1.4975393e+00	   6.5266689e-01	
   6.0500000e+01	   1.2449673e+00	   4.5408618e-01	
   6.0555000e+01	   1.3890209e+00	   4.4191271e-01	
   6.0610000e+01	   1.2168420e+00	   4.0553895e-01	
   6.0665000e+01	   1.1682693e+00	   3.8834069e-01	
   6.0720000e+01	   1.1839653e+00	   3.3458531e-01	
   6.0775000e+01	   9.1436367e-01	   3.1060292e-01	
   6.0830000e+01	   8.2528066e-01	   1.3282575e-01	
   6.0885000e+01	   6.1483888e-01	   2.8744955e-01	
   6.0940000e+01	   6.7877264e-01	  -3.3701661e-02	
   6.0995000e+01	   5.3063442e-01	  -1.6708792e-01	
   6.1050000e+01	   7.1537562e-01	   1.7547760e-01	
   6.1105000e+01	   1.2344559e+00	   5.7695194e-01	
   6.1160000e+01	   1.1821685e+00	   3.1618324e-01	
   6.1215000e+01	   1.3160353e+00	   5.0252726e-01	
   6.1270000e+01	   1.2207788e+00	   4.7737689e-01	
   6.1325000e+01	   1.0520162e+00	   2.9670391e-01	
   6.1380000e+01	   1.1260911e+00	   3.8289707e-01	
   6.1435000e+01	   8.8969700e-01	   2.5626622e-01	
   6.1490000e+01	   6.9423325e-01	   2.8411449e-01	
   6.1545000e+01	   9.5611014e-01	   1.7773995e-01	
   6.1600000e+01	   5.6866509e-01	  -4.3036770e-03	
   6.1655000e+01	   5.6437430e-01	  -1.2232845e-01	
   6.1710000e+01	   5.1346423e-01	   1.4812041e-01	
   6.1765000e+01	   1.3561291e+00	   4.0643836e-01	
   6.1820000e+01	   1.2715235e+00	   4.1475723e-01	
   6.1875000e+01	   1.0519560e+00	   2.4034444e-01	
   6.1930000e+01	   1.0903209e+00	   3.6580718e-01	
   6.1985000e+01	   1.0630484e+00	   4.5423739e-01	
   6.2040000e+01	   1.0838678e+00	   3.6457965e-01	
   6.2095000e+01	   1.0356355e+00	   2.6710364e-01	
   6.2150000e+01	   5.4660251e-01	   1.2211330e-02	
   6.2205000e+01	   6.0039262e-01	   2.1375414e-01	
   6.2260000e+01	   6.4569110e-01	   3.7263274e-03	
   6.2315000e+01	   8.6813375e-01	   1.1562117e-01	
   6.2370000e+01	   1.1516609e+00	   4.0924684e-01	
   6.2425000e+01	   1.2734140e+00	   5.6191677e-01	
   6.2480000e+01	   1.1895140e+00	   3.2945183e-01	
   6.2535000e+01	   9.8349147e-01	   8.8449173e-02	
   6.2590000e+01	   7.4343313e-01	   2.8130671e-01	
   6.2645000e+01	   1.3034372e+00	   4.2020208e-01	
   6.2700000e+01	   1.1101749e+00	   2.5576298e-01	
   6.2755000e+01	   6.8052866e-01	   7.3179773e-02	
   6.2810000e+01	   5.0916748e-01	   1.1590666e-01	
   6.2865000e+01	   5.0845049e-01	   2.3954906e-01	
   6.2920000e+01	   3.0046047e-01	  -1.2550251e-01	
   6.2975000e+01	   8.2093334e-01	   1.7062222e-02	
   6.3030000e+01	   9.7926179e-01	   3.1750553e-01	
   6.3085000e+01	   1.1146765e+00	   6.3675595e-01	
   6.3140000e+01	   1.2927111e+00	   5.5719704e-01	
   6.3195000e+01	   1.1530254e+00	   3.6504781e-01	
   6.3250000e+01	   1.2327670e+00	   4.4299301e-01	
   6.3305000e+01	   9.2104191e-01	   3.7337172e-01	
   6.3360000e+01	   1.1230013e+00	   3.1205448e-01	
   6.3415000e+01	   9.1808853e-01	   1.3483549e-01	
   6.3470000e+01	   7.3626125e-01	   1.1270430e-01	
   6.3525000e+01	   8.3176899e-01	   1.7689466e-01	
   6.3580000e+01	   1.0360244e+00	   1.5888626e-01	
   6.3635000e+01	   9.6300560e-01	   2.8159035e-01	
   6.3690000e+01	   1.1082673e+00	   3.5451427e-01	
   6.3745000e+01	   1.6140232e+00	   5.4346660e-01	
   6.3800000e+01	   1.7116165e+00	   6.5521272e-01	
   6.3855000e+01	   1.2899055e+00	   3.2483923e-01	
   6.3910000e+01	   1.3198346e+00	   2.1340738e-01	
   6.3965000e+01	   1.5030138e+00	   3.5379998e-01	
   6.4020000e+01	   1.5118725e+00	   5.4578715e-01	
   6.4075000e+01	   1.1601630e+00	   2.6628145e-01	
   6.4130000e+01	   9.3538135e-01	   2.1496740e-01	
   6.4185000e+01	   9.9580240e-01	   1.9838454e-01	
   6.4240000e+01	   1.0199228e+00	   1.9265336e-01	
   6.4295000e+01	   9.9002219e-01	   5.5645386e-02	
   6.4350000e+01	   5.0004179e-01	  -2.6189218e-01	
   6.4405000e+01	   1.3642893e+00	   3.8564778e-01	
   6.4460000e+01	   1.5003723e+00	   4.4364889e-01	
   6.4515000e+01	   1.3342478e+00	   3.9597188e-01	
   6.4570000e+01	   1.3092587e+00	   2.8796289e-01	
   6.4625000e+01	   1.4097045e+00	   4.6316392e-01	
   6.4680000e+01	   1.3264051e+00	   3.6877979e-01	
   6.4735000e+01	   1.1760874e+00	   7.0479161e-02	
   6.4790000e+01	   1.0034150e+00	   6.1793726e-02	
   6.4845000e+01	   1.0202952e+00	   1.1874839e-01	
   6.4900000e+01	   8.9296824e-01	   7.7042606e-02	
   6.4955000e+01	   7.0443608e-01	  -1.2503193e-01	
   6.5010000e+01	   4.0916492e-01	  -1.0924049e-01	
   6.5065000e+01	   8.1367830e-01	  -1.4684620e-02	
   6.5120000e+01	   1.2841817e+00	   1.2779746e-01	
   6.5175000e+01	   1.1553874e+00	   1.8855714e-01	
   6.5230000e+01	   1.2622892e+00	   9.3100817e-02	
   6.5285000e+01	   1.1503674e+00	   1.9703643e-01	
   6.5340000e+01	   1.4809520e+00	   2.7657445e-01	
   6.5395000e+01	   9.8360820e-01	   8.7127823e-02	
   6.5450000e+01	   1.1594033e+00	   1.0132484e-01	
   6.5505000e+01	   8.2793392e-01	  -1.0538718e-01	
   6.5560000e+01	   8.3654114e-01	  -4.2398204e-02	
   6.5615000e+01	   6.0797184e-01	  -1.7712306e-01	
   6.5670000e+01	   3.9972713e-01	  -2.6603186e-01	
   6.5725000e+01	   5.8633349e-01	  -8.1704138e-02	
   6.5780000e+01	   1.0428308e+00	   2.4816358e-01	
   6.5835000e+01	   1.0697233e+00	  -3.5363867e-02	
   6.5890000e+01	   8.0073363e-01	   1.5822098e-02	
   6.5945000e+01	   9.4629104e-01	  -3.5398668e-02	
   6.6000000e+01	   1.0345108e+00	   1.1703912e-01	
   6.6055000e+01	   9.2626765e-01	   6.1298297e-02	
   6.6110000e+01	   7.4894158e-01	  -1.0751492e-01	
   6.6165000e+01	   6.7036850e-01	  -1.2844822e-01	
   6.6220000e+01	   5.9492689e-01	   5.3382065e-02	
   6.6275000e+01	   3.2191364e-01	  -2.0789361e-01	
   6.6330000e+01	   1.3461037e-01	  -4.6629240e-01	
   6.6385000e+01	   7.5899147e-02	  -4.3228186e-01	
   6.6440000e+01	   7.9212241e-01	  -6.3637437e-02	
   6.6495000e+01	   8.3074246e-01	   1.4058189e-01	
   6.6550000e+01	   9.4127971e-01	   1.5109672e-02	
   6.6605000e+01	   9.3793909e-01	   2.9108495e-01	
   6.6660000e+01	   1.0415047e+00	   1.6524937e-01	
   6.6715000e+01	   7.6416770e-01	   4.4305370e-02	
   6.6770000e+01	   9.0494023e-01	   6.5977214e-02	
   6.6825000e+01	   7.7775406e-01	   2.5409051e-03	
   6.6880000e+01	   4.8891577e-01	  -1.6824622e-01	
   6.6935000e+01	   4.0915363e-01	  -2.0214063e-01	
   6.6990000e+01	   1.7158144e-02	  -3.6593826e-01	
   6.7045000e+01	  -1.1890732e-01	  -3.7830466e-01	
   6.7100000e+01	   1.5700567e-01	  -3.3223728e-01	
   6.7155000e+01	   7.8960362e-01	  -8.7360106e-02	
   6.7210000e+01	   9.1697899e-01	  -8.6213756e-02	
   6.7265000e+01	   7.1083599e-01	   2.7442896e-02	
   6.7320000e+01	   7.9633415e-01	   2.2791559e-01	
   6.7375000e+01	   7.4602176e-01	   6.5977214e-02	
   6.7430000e+01	   1.0853159e+00	   1.0711594e-01	
   6.7485000e+01	   6.6090809e-01	   5.3554683e-02	
   6.7540000e+01	   3.6601363e-01	  -1.0943062e-01	
   6.7595000e+01	   3.7684249e-01	  -2.0915356e-01	
   6.7650000e+01	   3.7188903e-01	  -2.0564433e-01	
   6.7705000e+01	   1.9854923e-01	  -1.9458486e-01	
   6.7760000e+01	  -5.0879821e-02	  -4.1448025e-01	
   6.7815000e+01	   4.5486145e-01	  -1.6584108e-01	
   6.7870000e+01	   5.8412314e-01	  -8.5965289e-02	
   6.7925000e+01	   8.2288452e-01	   1.2692238e-01	
   6.7980000e+01	   9.0488869e-01	   9.8835421e-02	
   6.8035000e+01	   8.0695866e-01	   3.5998267e-02	
   6.8090000e+01	   6.1399523e-01	   2.9799654e-04	
   6.8145000e+01	   6.2390343e-01	  -4.0215567e-02	
   6.8200000e+01	   5.5506038e-01	   3.0360815e-02	
   6.8255000e+01	   2.7972907e-01	  -2.0564667e-01	
   6.8310000e+01	   2.2780922e-01	  -1.8218148e-01	
   6.8365000e+01	   1.7343572e-01	  -3.6181064e-01	
   6.8420000e+01	   1.0591732e-01	  -3.2602903e-01	
   6.8475000e+01	   1.9465294e-01	  -3.0840916e-01	
   6.8530000e+01	   3.3575729e-01	  -2.0892971e-01	
   6.8585000e+01	   2.7309202e-01	  -7.0115968e-02	
   6.8640000e+01	   5.9097779e-01	   1.4215171e-01	
   6.8695000e+01	   4.7362559e-01	   6.6572704e-02	
   6.8750000e+01	   4.2497448e-01	  -1.6245721e-01	
   6.8805000e+01	   6.3543638e-01	  -5.3194243e-02	
   6.8860000e+01	   5.6372578e-01	   1.2850569e-01	
   6.8915000e+01	   3.3749634e-01	  -1.3135124e-02	
   6.8970000e+01	  -8.3008999e-02	  -3.7896892e-01	
   6.9025000e+01	   1.0348472e-01	  -3.1608236e-01	
   6.9080000e+01	  -2.7440720e-01	  -3.9997866e-01	
   6.9135000e+01	   8.5359812e-02	  -1.2741687e-01	
   6.9190000e+01	   5.7218516e-01	  -1.2023901e-01	
   6.9245000e+01	   2.7006570e-01	  -1.9397406e-01	
   6.9300000e+01	   4.8617575e-01	   7.9984238e-03	
   6.9355000e+01	   4.7952185e-01	   8.8847562e-02	
   6.9410000e+01	   4.2147305e-01	   2.3181943e-03	
   6.9465000e+01	   2.8078721e-01	  -8.9688070e-02	
   6.9520000e+01	   3.9264279e-01	  -1.7797921e-02	
   6.9575000e+01	   4.4840019e-01	   8.2648155e-02	
   6.9630000e+01	   3.4714190e-02	  -1.8075493e-01	
   6.9685000e+01	  -1.3899892e-01	  -1.3822524e-01	
   6.9740000e+01	  -1.0903649e-01	  -3.0088198e-01	
   6.9795000e+01	   6.1046184e-02	  -2.3011627e-01	
   6.9850000e+01	   2.1304494e-01	  -8.1874245e-02	
   6.9905000e+01	   6.4113003e-01	  -8.8922345e-02	
   6.9960000e+01	   6.1243379e-01	   1.9174383e-01	
   7.0015000e+01	   7.6992395e-01	   1.6731595e-01	
   7.0070000e+01	   5.5460834e-01	   1.1161192e-01	
   7.0125000e+01	   5.2854977e-01	   6.0260927e-02	
   7.0180000e+01	   4.9174934e-01	   3.4784996e-02	
   7.0235000e+01	   3.8034631e-01	   3.5410337e-02	
   7.0290000e+01	   1.6614104e-01	  -1.2119615e-01	
   7.0345000e+01	  -5.2174352e-02	  -1.1222296e-01	
   7.0400000e+01	   2.9741711e-02	  -7.1328147e-02	
   7.0455000e+01	  -3.3738318e-01	  -3.2905054e-01	
   7.0510000e+01	  -1.0800361e-01	  -3.4385611e-01	
   7.0565000e+01	   5.4370841e-01	   2.2728194e-01	
   7.0620000e+01	   7.7267381e-01	   1.7395478e-01	
   7.0675000e+01	   1.0627506e+00	   3.6754338e-01	
   7.0730000e+01	   6.7417716e-01	   1.9088553e-01	
   7.0785000e+01	   6.3464764e-01	   1.4104491e-01	
   7.0840000e+01	   9.1566527e-01	   3.5423530e-01	
   7.0895000e+01	   4.7878037e-01	   2.6742084e-02	
   7.0950000e+01	   2.6569124e-01	  -2.7855506e-02	
   7.1005000e+01	   4.3392502e-01	   1.0044492e-01	
   7.1060000e+01	   3.0876061e-01	   9.1320293e-02	
   7.1115000e+01	   3.1579748e-01	  -6.1832403e-02	
   7.1170000e+01	  -1.3499040e-01	  -1.8618702e-01	
   7.1225000e+01	   4.1136882e-01	   6.3939641e-02	
   7.1280000e+01	   8.4715098e-01	   3.0863680e-01	
   7.1335000e+01	   7.7443122e-01	   2.1805645e-01	
   7.1390000e+01	   7.9716178e-01	   1.9686956e-01	
   7.1445000e+01	   7.6759344e-01	   3.7279202e-01	
   7.1500000e+01	   1.0111540e+00	   3.6489262e-01	
   7.1555000e+01	   9.1040202e-01	   1.7549170e-01	
   7.1610000e+01	   4.7126909e-01	   1.3309308e-01	
   7.1665000e+01	   8.1399449e-01	   3.9321463e-01	
   7.1720000e+01	   4.4225058e-01	   2.0017141e-01	
   7.1775000e+01	   3.1970309e-01	   6.7662414e-02	
   7.1830000e+01	   2.5849680e-01	  -9.9334849e-02	
   7.1885000e+01	   4.5557115e-01	   1.1698294e-01	
   7.1940000e+01	   3.4756435e-01	  -1.2022606e-01	
   7.1995000e+01	   1.0205597e-01	  -2.6188499e-01	
   7.2050000e+01	   5.4092378e-01	   1.0992622e-01	
   7.2105000e+01	   6.1758319e-01	   2.4582681e-01	
   7.2160000e+01	   6.8790774e-01	   1.3449305e-01	
   7.2215000e+01	   7.2107372e-01	   1.0412451e-01	
   7.2270000e+01	   9.9255195e-01	   1.9044949e-01	
   7.2325000e+01	   7.9350145e-01	   1.7804674e-01	
   7.2380000e+01	   6.9743180e-01	   9.3661267e-02	
   7.2435000e+01	   4.5652432e-01	  -9.0868029e-02	
   7.2490000e+01	   6.4127846e-01	   1.5345336e-01	
   7.2545000e+01	   2.3347710e-01	  -1.7018521e-01	
   7.2600000e+01	   1.3667984e-01	  -2.1978356e-01	
   7.2655000e+01	   1.4278727e-01	  -1.8206858e-01	
   7.2710000e+01	   5.4290023e-01	  -8.4130698e-02	
   7.2765000e+01	   6.3698975e-01	   1.6696338e-02	
   7.2820000e+01	   5.0524954e-01	   8.0334780e-02	
   7.2875000e+01	   7.4674795e-01	   5.2578632e-02	
   7.2930000e+01	   5.8846845e-01	   2.7417256e-01	
   7.2985000e+01	   6.5395784e-01	   1.0405168e-01	
   7.3040000e+01	   4.9581309e-01	   1.2236137e-01	
   7.3095000e+01	   5.4680275e-01	   3.1887813e-02	
   7.3150000e+01	   2.1791908e-01	  -2.8962515e-02	
   7.3205000e+01	   1.7389055e-01	  -2.1986674e-01	
   7.3260000e+01	   3.7094840e-02	  -1.6228243e-01	
   7.3315000e+01	   2.6629627e-02	  -1.2472085e-01	
   7.3370000e+01	   4.7339198e-01	   5.2409170e-02	
   7.3425000e+01	   5.9504257e-01	   6.0618853e-02	
   7.3480000e+01	   8.0848060e-01	   1.7800953e-01	
   7.3535000e+01	   7.1388206e-01	   2.6315668e-01	
   7.3590000e+01	   9.0126506e-01	   2.2544563e-01	
   7.3645000e+01	   7.7280662e-01	   1.8851292e-01	
   7.3700000e+01	   7.9990229e-01	   4.6289983e-02	
   7.3755000e+01	   4.1842367e-01	   1.3442301e-01	
   7.3810000e+01	   3.0683217e-01	   7.3834885e-02	
   7.3865000e+01	   2.5721774e-01	  -5.1969482e-02	
   7.3920000e+01	   1.3577373e-01	  -2.8868356e-01	
   7.3975000e+01	   1.6787863e-01	  -6.5291495e-02	
   7.4030000e+01	  -2.3182862e-02	  -2.5801204e-01	
   7.4085000e+01	   1.3540370e-01	  -5.7058128e-02	
   7.4140000e+01	   9.5274677e-01	   3.7276997e-01	
   7.4195000e+01	   7.1993236e-01	   2.1092034e-01	
   7.4250000e+01	   8.4688960e-01	   3.5481962e-01	
   7.4305000e+01	   7.3376692e-01	   1.2409067e-01	
   7.4360000e+01	   8.3116246e-01	   4.8574833e-01	
   7.4415000e+01	   8.0552890e-01	   3.5982787e-01	
   7.4470000e+01	   5.1745332e-01	   1.2820120e-02	
   7.4525000e+01	   5.5441334e-01	   1.7290017e-01	
   7.4580000e+01	   3.4955094e-01	   3.1254558e-03	
   7.4635000e+01	   3.3117591e-01	   6.5134265e-02	
   7.4690000e+01	   4.7516138e-02	  -2.2296708e-01	
   7.4745000e+01	   4.8715124e-01	   1.4843845e-01	
   7.4800000e+01	   8.9118176e-01	   3.6311541e-01	
   7.4855000e+01	   8.1299426e-01	   3.1689588e-01	
   7.4910000e+01	   1.2651540e+00	   4.6703215e-01	
   7.4965000e+01	   6.3119003e-01	   2.7980349e-01	
   7.5020000e+01	   1.2736160e+00	   4.3153032e-01	
   7.5075000e+01	   7.4051723e-01	   3.2873636e-01	
   7.5130000e+01	   9.0916358e-01	   2.5925835e-01	
   7.5185000e+01	   9.9144651e-01	   4.0391386e-01	
   7.5240000e+01	   7.5379235e-01	   2.1157876e-01	
   7.5295000e+01	   5.6141349e-01	  -1.7302871e-03	
   7.5350000e+01	   2.9581612e-01	   6.6549370e-02	
   7.5405000e+01	   6.3478201e-01	   1.7268292e-02	
   7.5460000e+01	   5.9355658e-01	   2.0671968e-01	
   7.5515000e+01	   8.9045208e-01	   3.9082035e-01	
   7.5570000e+01	   1.2575189e+00	   4.5843801e-01	
   7.5625000e+01	   1.1640118e+00	   5.4817461e-01	
   7.5680000e+01	   9.0024368e-01	   2.3793470e-01	
   7.5735000e+01	   8.6786593e-01	   2.4236888e-01	
   7.5790000e+01	   1.1446806e+00	   4.0896166e-01	
   7.5845000e+01	   9.0478048e-01	   4.2713727e-01	
   7.5900000e+01	   7.7143070e-01	   2.2942043e-01	
   7.5955000e+01	   5.5962514e-01	   1.8232344e-01	
   7.6010000e+01	   7.3465612e-01	   1.1361494e-01	
   7.6065000e+01	   3.7922672e-01	   4.4482977e-02	
   7.6120000e+01	   7.4714541e-01	   3.3018391e-01	
   7.6175000e+01	   9.3958933e-01	   2.5896281e-01	
   7.6230000e+01	   1.1858776e+00	   6.2461742e-01	
   7.6285000e+01	   7.9282625e-01	   2.7058856e-01	
   7.6340000e+01	   1.1827524e+00	   3.9078481e-01	
   7.6395000e+01	   1.0432496e+00	   5.5203535e-01	
   7.6450000e+01	   1.0283285e+00	   3.9089054e-01	
   7.6505000e+01	   5.1377689e-01	   1.3004200e-01	
   7.6560000e+01	   2.9932985e-01	   7.9978176e-02	
   7.6615000e+01	   5.9296486e-01	   1.9969485e-01	
   7.6670000e+01	   5.4128067e-01	   1.6679946e-01	
   7.6725000e+01	   4.4942125e-01	  -1.8756499e-02	
   7.6780000e+01	   8.6250038e-01	   5.3992162e-01	
   7.6835000e+01	   9.8081823e-01	   5.0984846e-01	
   7.6890000e+01	   1.1740199e+00	   4.9060219e-01	
   7.6945000e+01	   7.4046699e-01	   3.1773940e-01	
   7.7000000e+01	   1.2251080e+00	   6.0491745e-01	
   7.7055000e+01	   1.0915817e+00	   5.1721273e-01	
   7.7110000e+01	   6.9358681e-01	   3.6425537e-01	
   7.7165000e+01	   8.5130502e-01	   4.8274778e-01	
   7.7220000e+01	   9.8111521e-01	   4.8872843e-01	
   7.7275000e+01	   6.9949329e-01	   2.3518448e-01	
   7.7330000e+01	   3.8273816e-01	   1.7518522e-01	
   7.7385000e+01	   3.6926136e-01	   1.4702712e-01	
   7.7440000e+01	   9.0823338e-01	   5.1198711e-01	
   7.7495000e+01	   1.3994590e+00	   5.5141912e-01	
   7.7550000e+01	   1.4819700e+00	   6.8068652e-01	
   7.7605000e+01	   1.6436449e+00	   7.3828820e-01	
   7.7660000e+01	   1.4573984e+00	   6.9693407e-01	
   7.7715000e+01	   1.1986670e+00	   5.5451717e-01	
   7.7770000e+01	   1.4882751e+00	   7.2342675e-01	
   7.7825000e+01	   1.2297681e+00	   4.7233081e-01	
   7.7880000e+01	   9.6033264e-01	   5.1554824e-01	
   7.7935000e+01	   1.0011971e+00	   3.7398428e-01	
   7.7990000e+01	   8.7658392e-01	   3.2422867e-01	
   7.8045000e+01	   7.0131858e-01	   1.9874985e-01	
   7.8100000e+01	   6.9012049e-01	   3.9552804e-01	
   7.8155000e+01	   1.1523913e+00	   5.5311164e-01	
   7.8210000e+01	   1.6949700e+00	   6.8101353e-01	
   7.8265000e+01	   1.5922156e+00	   7.1970490e-01	
   7.8320000e+01	   1.6230944e+00	   6.3627084e-01	
   7.8375000e+01	   1.3658010e+00	   7.2279529e-01	
   7.8430000e+01	   1.5037741e+00	   6.9874308e-01	
   7.8485000e+01	   1.2659164e+00	   6.1947758e-01	
   7.8540000e+01	   1.1365570e+00	   5.4840990e-01	
   7.8595000e+01	   1.2576407e+00	   5.4320910e-01	
   7.8650000e+01	   1.2493939e+00	   4.8000811e-01	
   7.8705000e+01	   9.4244209e-01	   5.2228964e-01	
   7.8760000e+01	   8.2418380e-01	   2.5064740e-01	
   7.8815000e+01	   1.0442101e+00	   4.1839177e-01	
   7.8870000e+01	   1.2339328e+00	   3.9379007e-01	
   7.8925000e+01	   1.4903039e+00	   5.3235622e-01	
   7.8980000e+01	   1.4296669e+00	   7.9006253e-01	
   7.9035000e+01	   1.5503004e+00	   7.0369286e-01	
   7.9090000e+01	   1.4708354e+00	   6.0250480e-01	
   7.9145000e+01	   1.6287070e+00	   8.0438063e-01	
   7.9200000e+01	   1.4218345e+00	   5.7485857e-01	
   7.9255000e+01	   1.1391983e+00	   5.6498705e-01	
   7.9310000e+01	   9.6706645e-01	   3.0888994e-01	
   7.9365000e+01	   1.2435710e+00	   5.1677545e-01	
   7.9420000e+01	   9.1392553e-01	   4.6611036e-01	
   7.9475000e+01	   7.3158678e-01	   1.1222375e-01	
   7.9530000e+01	   1.2209650e+00	   5.8536357e-01	
   7.9585000e+01	   1.3211407e+00	   6.4092396e-01	
   7.9640000e+01	   1.4653605e+00	   6.1332221e-01	
   7.9695000e+01	   1.2254559e+00	   5.1060375e-01	
   7.9750000e+01	   1.4686857e+00	   7.9790847e-01	
   7.9805000e+01	   1.4867947e+00	   6.6608758e-01	
   7.9860000e+01	   1.3218156e+00	   6.1571273e-01	
   7.9915000e+01	   9.7665570e-01	   5.1771878e-01	
   7.9970000e+01	   1.1746595e+00	   5.6564790e-01	
   8.0025000e+01	   1.0171070e+00	   2.8805221e-01	
   8.0080000e+01	   6.7071496e-01	   2.7371838e-01	
   8.0135000e+01	   1.1219948e+00	   4.1368589e-01	
   8.0190000e+01	   1.5294969e+00	   7.2592929e-01	
   8.0245000e+01	   1.5614990e+00	   6.1039936e-01	
   8.0300000e+01	   1.4800408e+00	   7.4070338e-01	
   8.0355000e+01	   1.4454689e+00	   5.2913605e-01	
   8.0410000e+01	   1.5470336e+00	   7.2349466e-01	
   8.0465000e+01	   1.4665525e+00	   5.8566594e-01	
   8.0520000e+01	   1.4621735e+00	   5.5869981e-01	
   8.0575000e+01	   1.3323826e+00	   5.1653443e-01	
   8.0630000e+01	   1.1216633e+00	   3.0899617e-01	
   8.0685000e+01	   8.6916130e-01	   4.5346002e-01	
   8.0740000e+01	   8.8760411e-01	   3.7891360e-01	
   8.0795000e+01	   9.2667442e-01	   2.0193775e-01	
   8.0850000e+01	   1.1774686e+00	   4.4954154e-01	
   8.0905000e+01	   1.5144821e+00	   7.8426343e-01	
   8.0960000e+01	   1.7769545e+00	   9.3704490e-01	
   8.1015000e+01	   1.5260105e+00	   6.6904782e-01	
   8.1070000e+01	   1.7100449e+00	   8.3702802e-01	
   8.1125000e+01	   1.8099294e+00	   7.0474723e-01	
   8.1180000e+01	   1.5172678e+00	   6.4320836e-01	
   8.1235000e+01	   1.2244317e+00	   4.4422490e-01	
   8.1290000e+01	   1.2717715e+00	   4.5524781e-01	
   8.1345000e+01	   1.1728767e+00	   3.9524592e-01	
   8.1400000e+01	   9.7098790e-01	   4.3335357e-01	
   8.1455000e+01	   6.9186931e-01	   2.4962408e-01	
   8.1510000e+01	   1.2464720e+00	   5.5779257e-01	
   8.1565000e+01	   1.4939861e+00	   6.3585532e-01	
   8.1620000e+01	   1.4264551e+00	   6.0297692e-01	
   8.1675000e+01	   1.8212900e+00	   9.0155214e-01	
   8.1730000e+01	   1.7699112e+00	   8.6560268e-01	
   8.1785000e+01	   1.3848755e+00	   6.5137360e-01	
   8.1840000e+01	   1.7196154e+00	   8.9823477e-01	
   8.1895000e+01	   1.5578154e+00	   6.7239122e-01	
   8.1950000e+01	   1.3709836e+00	   6.2947529e-01	
   8.2005000e+01	   1.1362042e+00	   4.3737495e-01	
   8.2060000e+01	   1.1999249e+00	   6.6965873e-01	
   8.2115000e+01	   1.2528013e+00	   3.5977234e-01	
   8.2170000e+01	   8.6646192e-01	   8.2687254e-02	
   8.2225000e+01	   1.1322138e+00	   4.5874097e-01	
   8.2280000e+01	   1.5435919e+00	   6.8373863e-01	
   8.2335000e+01	   1.7230415e+00	   5.7658736e-01	
   8.2390000e+01	   1.4897746e+00	   6.2797534e-01	
   8.2445000e+01	   1.4511150e+00	   7.3519127e-01	
   8.2500000e+01	   1.6310970e+00	   6.5990991e-01	
   8.2555000e+01	   1.3482412e+00	   6.2467590e-01	
   8.2610000e+01	   1.1361127e+00	   5.6204769e-01	
   8.2665000e+01	   1.4325261e+00	   5.4371941e-01	
   8.2720000e+01	   9.2044642e-01	   3.3236788e-01	
   8.2775000e+01	   8.5829200e-01	   2.8376955e-01	
   8.2830000e+01	   9.5467031e-01	   4.2497545e-01	
   8.2885000e+01	   1.2239812e+00	   3.7889687e-01	
   8.2940000e+01	   1.2619756e+00	   6.0258219e-01	
   8.2995000e+01	   1.3617936e+00	   5.3831233e-01	
   8.3050000e+01	   1.5291857e+00	   7.1190616e-01	
   8.3105000e+01	   1.4505998e+00	   4.7215233e-01	
   8.3160000e+01	   1.4593850e+00	   6.3883851e-01	
   8.3215000e+01	   1.4146675e+00	   5.3755954e-01	
   8.3270000e+01	   1.2798263e+00	   4.0663218e-01	
   8.3325000e+01	   1.0460393e+00	   3.0694794e-01	
   8.3380000e+01	   9.4931714e-01	   4.6531672e-01	
   8.3435000e+01	   1.0317213e+00	   4.7264214e-01	
   8.3490000e+01	   6.3139242e-01	   4.2913626e-02	
   8.3545000e+01	   1.3624109e+00	   5.0211967e-01	
   8.3600000e+01	   1.4548709e+00	   6.3406590e-01	
   8.3655000e+01	   1.2647098e+00	   4.5136553e-01	
   8.3710000e+01	   1.4509488e+00	   5.0623416e-01	
   8.3765000e+01	   1.0926825e+00	   5.6840139e-01	
   8.3820000e+01	   1.3605714e+00	   7.0613120e-01	
   8.3875000e+01	   9.3803634e-01	   3.8442994e-01	
   8.3930000e+01	   1.1262270e+00	   3.7087822e-01	
   8.3985000e+01	   9.1516283e-01	   4.2131278e-01	
   8.4040000e+01	   7.1206996e-01	   2.2325044e-01	
   8.4095000e+01	   5.3567156e-01	   8.6479567e-02	
   8.4150000e+01	   2.8446289e-01	   1.1474425e-01	
   8.4205000e+01	   1.0033886e+00	   4.5761666e-01	
   8.4260000e+01	   1.1643967e+00	   4.3544226e-01	
   8.4315000e+01	   1.2123488e+00	   4.6959076e-01	
   8.4370000e+01	   1.3347787e+00	   8.1786485e-01	
   8.4425000e+01	   1.0466123e+00	   4.2771852e-01	
   8.4480000e+01	   9.2192106e-01	   5.1211279e-01	
   8.4535000e+01	   9.3166288e-01	   5.2506571e-01	
   8.4590000e+01	   1.2102743e+00	   5.4252017e-01	
   8.4645000e+01	   7.9933175e-01	   2.4962512e-01	
   8.4700000e+01	   4.9111100e-01	   2.9333225e-01	
   8.4755000e+01	   6.5810673e-01	   2.5994685e-01	
   8.4810000e+01	   4.6089158e-01	   1.6379186e-02	
   8.4865000e+01	   8.0688250e-01	   5.0228881e-02	
   8.4920000e+01	   1.1557328e+00	   5.8168917e-01	
   8.4975000e+01	   1.2572929e+00	   6.6268773e-01	
   8.5030000e+01	   1.0591910e+00	   3.9760838e-01	
   8.5085000e+01	   9.7869675e-01	   5.2279609e-01	
   8.5140000e+01	   1.3231472e+00	   5.6900193e-01	
   8.5195000e+01	   1.2294954e+00	   3.9118834e-01	
   8.5250000e+01	   8.7022346e-01	   4.0373657e-01	
   8.5305000e+01	   1.1010674e+00	   4.4025675e-01	
   8.5360000e+01	   8.8775020e-01	   4.2216924e-01	
   8.5415000e+01	   5.9226823e-01	   1.1358496e-01	
   8.5470000e+01	   6.1604732e-01	   1.2239167e-01	
   8.5525000e+01	   1.1216997e+00	   5.6064535e-01	
   8.5580000e+01	   1.2939638e+00	   5.0488978e-01	
   8.5635000e+01	   1.2966175e+00	   4.5619593e-01	
   8.5690000e+01	   1.3928604e+00	   6.5556293e-01	
   8.5745000e+01	   1.4979560e+00	   7.5604300e-01	
   8.5800000e+01	   1.2041987e+00	   4.9225879e-01	
   8.5855000e+01	   1.0152502e+00	   4.1573700e-01	
   8.5910000e+01	   9.0927437e-01	   4.7096608e-01	
   8.5965000e+01	   1.0048565e+00	   3.2020590e-01	
   8.6020000e+01	   5.8378674e-01	   6.8790694e-02	
   8.6075000e+01	   8.7319686e-01	   3.7254179e-01	
   8.6130000e+01	   5.1106702e-01	   1.5090623e-01	
   8.6185000e+01	   6.4567075e-01	   9.6458327e-02	
   8.6240000e+01	   1.1850726e+00	   6.5948924e-01	
   8.6295000e+01	   1.6073942e+00	   6.5257858e-01	
   8.6350000e+01	   1.3005425e+00	   5.5429224e-01	
   8.6405000e+01	   1.0423708e+00	   2.3870526e-01	
   8.6460000e+01	   1.4436260e+00	   6.4592979e-01	
   8.6515000e+01	   1.1464151e+00	   2.6189703e-01	
   8.6570000e+01	   8.7654767e-01	   6.3334576e-02	
   8.6625000e+01	   9.4407123e-01	   2.9046600e-01	
   8.6680000e+01	   1.0249453e+00	   1.7032718e-01	
   8.6735000e+01	   8.8106371e-01	   1.4387787e-01	
   8.6790000e+01	   5.9221418e-01	   9.9188965e-02	
   8.6845000e+01	   7.1415131e-01	   1.4731293e-01	
   8.6900000e+01	   1.1652367e+00	   2.3748910e-01	
   8.6955000e+01	   8.8684142e-01	   2.4987576e-01	
   8.7010000e+01	   1.1461500e+00	   4.7843246e-01	
   8.7065000e+01	   9.9294189e-01	   2.8658020e-01	
   8.7120000e+01	   1.2422634e+00	   4.4283508e-01	
   8.7175000e+01	   9.3649720e-01	   3.8663680e-01	
   8.7230000e+01	   1.0588684e+00	   2.4329779e-01	
   8.7285000e+01	   7.2904558e-01	   1.0112793e-01	
   8.7340000e+01	   3.9847749e-01	   1.3165231e-01	
   8.7395000e+01	   7.7988158e-01	   2.2237291e-01	
   8.7450000e+01	   5.7111971e-01	  -9.1028822e-02	
   8.7505000e+01	   7.4881113e-01	   1.3848132e-01	
   8.7560000e+01	   9.5394778e-01	   3.1366565e-01	
   8.7615000e+01	   1.2108157e+00	   5.3347004e-01	
   8.7670000e+01	   7.4473206e-01	   2.9327276e-02	
   8.7725000e+01	   8.7501659e-01	   1.3369065e-01	
   8.7780000e+01	   7.7422943e-01	   5.8967564e-02	
   8.7835000e+01	   6.0607834e-01	  -7.2811101e-03	
   8.7890000e+01	   4.6392262e-01	   7.0461240e-02	
   8.7945000e+01	   3.8905441e-01	  -6.7344191e-02	
   8.8000000e+01	   4.4559982e-01	  -6.5980102e-02	
   8.8055000e+01	   1.6120806e-01	  -1.5961137e-01	
   8.8110000e+01	   5.5934391e-01	  -4.4968409e-02	
   8.8165000e+01	   1.0928797e+00	   3.2760466e-01	
   8.8220000e+01	   6.8030029e-01	   7.6846287e-02	
   8.8275000e+01	   1.0419081e+00	   2.3288397e-01	
   8.8330000e+01	   1.0860906e+00	   2.4536091e-01	
   8.8385000e+01	   8.5594300e-01	   3.3056518e-01	
   8.8440000e+01	   6.9112938e-01	   1.3695425e-01	
   8.8495000e+01	   6.6847263e-01	   6.2229651e-03	
   8.8550000e+01	   8.8470993e-01	   2.4291612e-01	
   8.8605000e+01	   3.1377328e-01	  -9.8110509e-02	
   8.8660000e+01	   1.4350402e-01	  -2.0270134e-01	
   8.8715000e+01	   1.4244753e-01	  -2.8054780e-01	
   8.8770000e+01	   7.9725682e-01	   1.2226411e-01	
   8.8825000e+01	   1.2498049e+00	   3.0074091e-01	
   8.8880000e+01	   1.0934703e+00	   3.1981918e-01	
   8.8935000e+01	   1.1720460e+00	   3.4765797e-01	
   8.8990000e+01	   1.0027335e+00	   1.9172513e-01	
   8.9045000e+01	   7.7106794e-01	   1.2349487e-01	
   8.9100000e+01	   8.0228735e-01	   2.7906137e-01	
   8.9155000e+01	   7.5678193e-01	   1.9590881e-01	
   8.9210000e+01	   3.7357952e-01	  -1.5007024e-01	
   8.9265000e+01	   3.6292707e-01	  -4.6771709e-02	
   8.9320000e+01	   3.6227619e-01	   9.6998854e-02	
   8.9375000e+01	   1.6314037e-01	  -2.2394449e-01	
   8.9430000e+01	   5.1094992e-01	  -3.9989676e-02	
   8.9485000e+01	   1.0575182e+00	   2.1104683e-01	
   8.9540000e+01	   1.1092445e+00	   5.4019035e-01	
   8.9595000e+01	   7.0575373e-01	   2.2087879e-01	
   8.9650000e+01	   9.2705859e-01	   2.9389226e-01	
   8.9705000e+01	   9.2453046e-01	   2.5181413e-01	
   8.9760000e+01	   8.5668593e-01	   1.2713039e-01	
   8.9815000e+01	   4.2920887e-01	  -5.5962746e-02	
   8.9870000e+01	   3.3646435e-01	  -5.4278514e-02	
   8.9925000e+01	   5.5634165e-01	   2.7348197e-03	
   8.9980000e+01	   4.3611590e-01	  -2.7972786e-01	
   9.0035000e+01	   2.9745491e-01	  -2.0525976e-01	
   9.0090000e+01	   1.5610492e-01	  -2.1767920e-01	
   9.0145000e+01	   2.3672392e-01	  -2.6261149e-01	
   9.0200000e+01	   5.5280015e-01	   7.5369953e-02	
   9.0255000e+01	   6.7506443e-01	   7.1078098e-02	
   9.0310000e+01	   5.1479587e-01	   3.8869979e-02	
   9.0365000e+01	   6.9392582e-01	   2.0931472e-02	
   9.0420000e+01	   6.1207003e-01	   8.8636235e-02	
   9.0475000e+01	   4.3672257e-01	   3.7064953e-02	
   9.0530000e+01	   4.2116233e-01	  -1.2860641e-01	
   9.0585000e+01	   1.6828530e-01	  -2.5433552e-01	
   9.0640000e+01	   1.5067844e-01	   3.2761086e-02	
   9.0695000e+01	   5.3407232e-02	  -3.0634599e-01	
   9.0750000e+01	  -2.8012073e-01	  -3.7874227e-01	
   9.0805000e+01	   1.8300600e-01	  -2.8352845e-01	
   9.0860000e+01	   2.7073796e-01	  -1.3237733e-01	
   9.0915000e+01	   3.5778278e-01	  -1.3782228e-01	
   9.0970000e+01	   5.2618149e-02	  -8.2398990e-02	
   9.1025000e+01	   5.0526687e-01	   1.1704484e-01	
   9.1080000e+01	   1.2103043e-01	  -8.1717260e-02	
   9.1135000e+01	   9.0052941e-02	  -2.2776675e-01	
   9.1190000e+01	  -2.1279247e-01	  -1.0660633e-01	
   9.1245000e+01	   3.4785749e-02	  -2.9234218e-01	
   9.1300000e+01	  -1.9343550e-01	  -3.4400203e-01	
   9.1355000e+01	  -2.7335807e-01	  -5.5981588e-01	
   9.1410000e+01	  -4.5307660e-01	  -5.7664533e-01	
   9.1465000e+01	   1.3747350e-01	  -2.1750466e-01	
   9.1520000e+01	   6.3861876e-02	  -2.1088805e-01	
   9.1575000e+01	   2.7600925e-01	  -8.1588815e-02	
   9.1630000e+01	   1.3701849e-01	  -1.2967846e-01	
   9.1685000e+01	  -2.2575472e-02	  -2.6952989e-01	
   9.1740000e+01	   1.3871685e-01	  -6.2014339e-02	
   9.1795000e+01	  -6.1680471e-02	  -2.4169653e-01	
   9.1850000e+01	  -8.5802832e-02	  -2.8642635e-01	
   9.1905000e+01	  -3.7292551e-01	  -4.1712874e-01	
   9.1960000e+01	  -2.6465921e-01	  -2.4503313e-01	
   9.2015000e+01	  -6.0351187e-01	  -5.6084993e-01	
   9.2070000e+01	  -7.0799502e-01	  -6.3836816e-01	
   9.2125000e+01	  -3.4219329e-01	  -4.7366810e-01	
   9.2180000e+01	   9.0553922e-02	  -1.2374092e-01	
   9.2235000e+01	  -2.0363298e-01	  -1.8919041e-01	
   9.2290000e+01	   1.1128695e-01	  -1.0674255e-01	
   9.2345000e+01	   1.7126982e-01	  -5.3263674e-02	
   9.2400000e+01	   8.9824147e-02	  -2.8252495e-02	
   9.2455000e+01	   5.9896131e-02	  -1.9640701e-01	
   9.2510000e+01	  -1.2661262e-01	  -2.3172612e-01	
   9.2565000e+01	  -2.1420443e-01	  -1.3220138e-01	
   9.2620000e+01	  -3.7054949e-01	  -3.3811402e-01	
   9.2675000e+01	  -4.6742001e-01	  -3.5073389e-01	
   9.2730000e+01	  -4.2418565e-01	  -3.7765006e-01	
   9.2785000e+01	  -5.8620250e-01	  -4.7525615e-01	
   9.2840000e+01	  -3.4700091e-01	  -3.9838503e-01	
   9.2895000e+01	  -1.2426967e-01	  -1.2603223e-01	
   9.2950000e+01	  -9.3667486e-02	  -1.4653462e-01	
   9.3005000e+01	   1.4971417e-01	   6.9021307e-02	
   9.3060000e+01	   1.4646758e-02	  -2.2050798e-01	
   9.3115000e+01	  -1.3940504e-01	  -4.3341679e-02	
   9.3170000e+01	  -6.2727269e-02	  -3.0263623e-02	
   9.3225000e+01	  -3.0724568e-01	  -2.3108052e-01	
   9.3280000e+01	  -3.7388415e-01	  -3.0519912e-01	
   9.3335000e+01	  -6.5155238e-01	  -3.0950226e-01	
   9.3390000e+01	  -5.7076388e-01	  -4.1632787e-01	
   9.3445000e+01	  -8.1092429e-01	  -6.0892585e-01	
   9.3500000e+01	  -4.0983141e-01	  -5.4127715e-01	
   9.3555000e+01	  -7.2562741e-02	  -2.3692192e-01	
   9.3610000e+01	  -2.0773899e-01	  -2.1927290e-01	
   9.3665000e+01	  -2.2458258e-01	  -2.1946829e-01	
   9.3720000e+01	  -2.6927719e-01	  -1.0164249e-01	
   9.3775000e+01	  -5.2893748e-02	  -1.9455146e-02	
   9.3830000e+01	  -1.4766981e-01	  -2.7406739e-01	
   9.3885000e+01	  -4.4720977e-01	  -3.2460890e-01	
   9.3940000e+01	  -3.0120093e-01	  -2.0514999e-01	
   9.3995000e+01	  -4.3990475e-01	  -1.0110319e-01	
   9.4050000e+01	  -6.5906552e-01	  -4.4243500e-01	
   9.4105000e+01	  -8.2896093e-01	  -4.1582915e-01	
   9.4160000e+01	  -4.4908644e-01	  -2.9019461e-01	
   9.4215000e+01	  -1.3358083e-01	  -3.0005003e-01	
   9.4270000e+01	  -2.2154958e-01	  -5.4716745e-02	
   9.4325000e+01	  -7.1461264e-02	  -2.7775302e-02	
   9.4380000e+01	  -1.7637166e-01	  -3.1647816e-01	
   9.4435000e+01	  -3.5210435e-01	  -1.8009403e-01	
   9.4490000e+01	  -3.2065957e-01	  -2.3612009e-01	
   9.4545000e+01	  -4.0912409e-01	  -1.4973216e-01	
   9.4600000e+01	  -4.0393369e-01	  -3.2004763e-01	
   9.4655000e+01	  -1.0836788e+00	  -5.4322454e-01	
   9.4710000e+01	  -6.6217399e-01	  -5.2683439e-01	
   9.4765000e+01	  -6.9381804e-01	  -4.0328829e-01	
   9.4820000e+01	  -2.5613999e-01	  -2.2840038e-01	
   9.4875000e+01	  -2.4766772e-01	  -1.4821633e-01	
   9.4930000e+01	  -1.1991404e-01	   6.3827902e-02	
   9.4985000e+01	  -2.2721525e-01	   3.1033619e-02	
   9.5040000e+01	  -5.6787290e-01	  -1.8412022e-01	
   9.5095000e+01	  -3.6011180e-01	  -2.2716639e-01	
   9.5150000e+01	  -2.0888234e-01	  -9.7637118e-02	
   9.5205000e+01	  -4.3386659e-01	  -2.2311048e-01	
   9.5260000e+01	  -7.5472446e-01	  -3.5251287e-01	
   9.5315000e+01	  -8.6712409e-01	  -3.4125824e-01	
   9.5370000e+01	  -8.7334643e-01	  -4.6513873e-01	
   9.5425000e+01	  -8.3600972e-01	  -5.1588471e-01	
   9.5480000e+01	  -6.3313917e-01	  -1.2330582e-01	
   9.5535000e+01	  -3.5529229e-03	   7.0749069e-02	
   9.5590000e+01	  -1.4410290e-01	   9.1106400e-03	
   9.5645000e+01	  -5.0653693e-01	  -4.9193276e-02	
   9.5700000e+01	  -3.4959648e-01	   5.6141268e-02	
   9.5755000e+01	  -3.8816970e-02	   2.4822061e-01	
   9.5810000e+01	  -3.8448125e-01	  -2.1776600e-01	
   9.5865000e+01	  -7.7108548e-01	  -1.4570883e-01	
   9.5920000e+01	  -2.6876933e-01	  -4.9047998e-02	
   9.5975000e+01	  -7.7092571e-01	  -3.7450163e-01	
   9.6030000e+01	  -9.1211985e-01	  -2.9314585e-01	
   9.6085000e+01	  -5.1027913e-01	  -1.9648044e-01	
   9.6140000e+01	   8.6470350e-02	   2.8687181e-01	
   9.6195000e+01	   9.6099184e-02	   3.9620905e-02	
   9.6250000e+01	  -3.5628928e-01	  -4.3211483e-02	
   9.6305000e+01	  -4.0152052e-02	   2.3652754e-01	
   9.6360000e+01	   1.0649493e-01	   3.0081757e-01	
   9.6415000e+01	  -1.5190073e-01	   1.0894315e-01	
   9.6470000e+01	  -4.8155339e-01	   2.5950445e-02	
   9.6525000e+01	  -1.9161264e-01	   2.3719928e-01	
   9.6580000e+01	  -4.1734184e-01	  -2.1861968e-01	
   9.6635000e+01	  -9.5571621e-01	  -3.7769973e-01	
   9.6690000e+01	  -5.9417100e-01	  -9.4461130e-02	
   9.6745000e+01	  -5.1815393e-01	  -1.6628993e-01	
   9.6800000e+01	  -1.6618615e-01	  -2.6549939e-02	
   9.6855000e+01	  -2.4000057e-02	   1.0815613e-01	
   9.6910000e+01	   6.3732375e-02	   2.6516149e-01	
   9.6965000e+01	  -7.2616163e-02	   5.9340030e-02	
   9.7020000e+01	   9.0776930e-02	   2.4257121e-01	
   9.7075000e+01	  -4.8778158e-01	   1.6243695e-01	
   9.7130000e+01	  -2.1878222e-01	   2.0450388e-01	
   9.7185000e+01	  -4.1631963e-01	   1.9007699e-01	
   9.7240000e+01	  -6.3348153e-01	  -1.4732490e-01	
   9.7295000e+01	  -9.6513721e-01	  -1.0987630e-01	
   9.7350000e+01	  -6.3334751e-01	   2.2604643e-02	
   9.7405000e+01	  -6.1029940e-01	  -2.4705247e-01	
   9.7460000e+01	  -4.8967032e-01	   1.2455073e-02	
   9.7515000e+01	  -1.4753147e-01	   2.8616706e-01	
   9.7570000e+01	  -2.2012253e-01	   3.6379771e-01	
   9.7625000e+01	  -1.5131371e-01	   1.1510816e-01	
   9.7680000e+01	  -3.3243165e-01	   1.7491410e-01	
   9.7735000e+01	  -2.8659249e-01	   2.1748439e-01	
   9.7790000e+01	  -6.7259962e-01	   1.1675615e-01	
   9.7845000e+01	  -3.7737659e-01	   1.0141039e-01	
   9.7900000e+01	  -4.9159327e-01	  -2.3906014e-02	
   9.7955000e+01	  -7.6410247e-01	  -1.3053720e-01	
   9.8010000e+01	  -7.1506461e-01	  -2.4291723e-01	
   9.8065000e+01	  -3.8240510e-01	  -8.5850569e-02	
   9.8120000e+01	  -1.1599289e-01	   2.7834091e-01	
   9.8175000e+01	  -1.2542132e-01	   4.0407313e-01	
   9.8230000e+01	  -2.6545276e-01	   1.6369750e-01	
   9.8285000e+01	  -1.9418901e-01	   2.4083326e-01	
   9.8340000e+01	  -3.2810431e-02	   3.6296958e-01	
   9.8395000e+01	  -5.1501948e-01	   1.9209477e-01	
   9.8450000e+01	  -5.9290785e-01	  -2.0747323e-01	
   9.8505000e+01	  -7.5718806e-01	  -2.2346969e-01	
   9.8560000e+01	  -4.8506064e-01	  -1.7877513e-01	
   9.8615000e+01	  -8.8210567e-01	  -2.3892781e-01	
   9.8670000e+01	  -7.5916382e-01	  -8.9341674e-02	
   9.8725000e+01	  -2.9479650e-01	   1.8650239e-01	
   9.8780000e+01	  -4.7176594e-01	   3.2463185e-01	
   9.8835000e+01	  -6.2585656e-01	   5.6821837e-02	
   9.8890000e+01	  -7.9945926e-01	  -9.9469607e-02	
   9.8945000e+01	  -5.1709357e-01	   1.8731720e-01	
   9.9000000e+01	  -6.4323379e-01	  -1.4299217e-01	
   9.9055000e+01	  -7.9431312e-01	   1.6713489e-04	
   9.9110000e+01	  -9.7422463e-01	  -1.3175410e-01	
   9.9165000e+01	  -1.0047262e+00	   1.3508336e-01	
   9.9220000e+01	  -9.3367103e-01	  -1.3952877e-01	
   9.9275000e+01	  -7.7264812e-01	  -7.8078913e-02	
   9.9330000e+01	  -5.2554418e-01	   2.1667225e-01	
   9.9385000e+01	  -5.1210507e-01	   1.9466470e-01	
   9.9440000e+01	  -7.0667008e-01	   1.1478488e-01	
   9.9495000e+01	  -6.4037712e-01	   6.3512565e-02	
   9.9550000e+01	  -5.8851405e-01	   2.0770352e-01	
   9.9605000e+01	  -8.3038044e-01	  -1.5831137e-01	
   9.9660000e+01	  -8.6050992e-01	  -1.3196076e-01	
   9.9715000e+01	  -9.0262243e-01	  -5.0821901e-02	
   9.9770000e+01	  -8.9174000e-01	  -2.1489934e-01	
   9.9825000e+01	  -1.0033892e+00	  -1.5361072e-01	
   9.9880000e+01	  -7.7553115e-01	   8.9151389e-02	
   9.9935000e+01	  -2.8498730e-01	   4.2273486e-01	
   9.9990000e+01	  -4.3713379e-01	   2.7375379e-01	
   1.0004500e+02	  -6.6129848e-01	  -4.5787175e-02	
   1.0010000e+02	  -5.9047980e-01	   1.3035596e-01	
   1.0015500e+02	  -5.1226454e-01	   1.4274974e-01	
   1.0021000e+02	  -4.8350446e-01	   1.1913611e-01	
   1.0026500e+02	  -8.9409917e-01	  -1.1003620e-01	
   1.0032000e+02	  -5.2877415e-01	   1.8972242e-01	
   1.0037500e+02	  -7.8155705e-01	  -8.3450406e-02	
   1.0043000e+02	  -7.8813420e-01	  -2.1782331e-01	
   1.0048500e+02	  -4.2927948e-01	   2.4784415e-01	
   1.0054000e+02	  -1.3720350e-01	   2.9891138e-01	
   1.0059500e+02	  -2.7667956e-01	   4.4418155e-01	
   1.0065000e+02	  -4.9436843e-01	   4.0259694e-01	
   1.0070500e+02	  -4.9867705e-02	   2.9825270e-01	
   1.0076000e+02	  -7.7921410e-02	   3.2755936e-01	
   1.0081500e+02	  -3.0915520e-01	   3.1422153e-01	
   1.0087000e+02	  -7.0717522e-01	   2.8004534e-01	
   1.0092500e+02	  -7.1706348e-01	   5.5189501e-02	
   1.0098000e+02	  -6.8996253e-01	   1.7400960e-01	
   1.0103500e+02	  -6.1135080e-01	   1.2678730e-01	
   1.0109000e+02	  -3.2424889e-01	   2.0216633e-01	
   1.0114500e+02	  -8.4390854e-02	   5.1411706e-01	
   1.0120000e+02	  -9.3070976e-02	   6.6999150e-01	
   1.0125500e+02	   8.3692008e-02	   5.2058131e-01	
   1.0131000e+02	  -1.6515934e-01	   4.2458755e-01	
   1.0136500e+02	   2.8983693e-02	   4.1843666e-01	
   1.0142000e+02	  -1.6427808e-01	   4.0189095e-01	
   1.0147500e+02	  -3.5255332e-01	   8.0329341e-02	
   1.0153000e+02	  -4.5953766e-01	   2.4530455e-01	
   1.0158500e+02	  -3.7378246e-01	   1.3820165e-01	
   1.0164000e+02	  -5.2746365e-01	   4.1969097e-02	
   1.0169500e+02	  -1.6383095e-01	   2.4968703e-01	
   1.0175000e+02	   9.0917772e-02	   5.3015346e-01	
   1.0180500e+02	   3.2151507e-01	   6.8793664e-01	
   1.0186000e+02	   1.9299809e-01	   3.7567270e-01	
   1.0191500e+02	  -2.5108981e-01	   3.8644875e-01	
   1.0197000e+02	   3.5894950e-01	   4.3504252e-01	
   1.0202500e+02	   3.8406864e-01	   4.4339233e-01	
   1.0208000e+02	   1.2188263e-01	   4.6857207e-01	
   1.0213500e+02	  -2.8592109e-01	   2.4160185e-01	
   1.0219000e+02	   5.9753998e-02	   4.6502248e-01	
   1.0224500e+02	  -2.9797298e-01	   1.6740258e-01	
   1.0230000e+02	  -6.1026259e-01	  -5.3615373e-02	
   1.0235500e+02	  -2.9755660e-02	   2.8148050e-01	
   1.0241000e+02	   3.3220299e-01	   5.2463990e-01	
   1.0246500e+02	   3.4208334e-01	   5.6995525e-01	
   1.0252000e+02	   3.4525224e-01	   4.8273278e-01	
   1.0257500e+02	   2.6125000e-01	   6.0759749e-01	
   1.0263000e+02	   2.7440972e-01	   4.7318464e-01	
   1.0268500e+02	  -4.2588515e-02	   3.7717652e-01	
   1.0274000e+02	  -1.7287386e-01	   3.6249276e-01	
   1.0279500e+02	  -6.8019808e-02	   3.5156300e-01	
   1.0285000e+02	  -7.6355724e-02	   2.8922545e-01	
   1.0290500e+02	  -1.9223187e-01	   4.9392346e-02	
   1.0296000e+02	  -2.4771868e-01	   6.2671320e-02	
   1.0301500e+02	   1.1520683e-01	   3.1116383e-01	
   1.0307000e+02	   3.4812514e-01	   3.1283537e-01	
   1.0312500e+02	   9.7068319e-02	   3.4284661e-01	
   1.0318000e+02	   2.8761793e-01	   4.8103796e-01	
   1.0323500e+02	   6.6362295e-01	   4.7194143e-01	
   1.0329000e+02	   2.4242624e-01	   3.4919587e-01	
   1.0334500e+02	  -3.1376406e-02	   2.1101929e-01	
   1.0340000e+02	   1.0237933e-01	   1.2831087e-01	
   1.0345500e+02	  -1.9211598e-01	   2.9451487e-01	
   1.0351000e+02	  -5.0768875e-01	  -1.3563593e-01	
   1.0356500e+02	  -5.6139425e-01	  -2.1761492e-01	
   1.0362000e+02	   1.6937771e-01	   2.4115656e-01	
   1.0367500e+02	   5.5842646e-01	   6.4920193e-01	
   1.0373000e+02	   3.4057771e-01	   3.9789608e-01	
   1.0378500e+02	   7.1580996e-01	   4.9266589e-01	
   1.0384000e+02	   4.1286103e-01	   4.7266093e-01	
   1.0389500e+02	   4.3797386e-01	   4.5187328e-01	
   1.0395000e+02	   4.4283903e-01	   2.3179670e-01	
   1.0400500e+02	   5.1103661e-02	   2.3907817e-01	
   1.0406000e+02	   2.9298581e-01	   2.7523604e-01	
   1.0411500e+02	   6.5209430e-03	   3.4187820e-01	
   1.0417000e+02	  -2.0102087e-01	  -1.1506907e-01	
   1.0422500e+02	  -9.6886621e-02	   2.2287144e-01	
   1.0428000e+02	   5.0106159e-01	   4.1508034e-01	
   1.0433500e+02	   4.1093691e-01	   3.8686178e-01	
   1.0439000e+02	   3.8541038e-01	   5.0807532e-01	
   1.0444500e+02	   5.1420264e-01	   7.1970661e-01	
   1.0450000e+02	   4.4288666e-01	   4.5340175e-01	
   1.0455500e+02	   2.6297624e-01	   2.9882178e-01	
   1.0461000e+02	   4.7965644e-01	   4.2760199e-01	
   1.0466500e+02	   3.3584540e-01	   4.9397561e-01	
   1.0472000e+02	   1.9428944e-01	   3.0614233e-01	
   1.0477500e+02	  -1.2044406e-03	   1.3892972e-01	
   1.0483000e+02	   1.6782895e-01	   1.4398309e-01	
   1.0488500e+02	  -1.4589793e-01	  -6.0941387e-02	
   1.0494000e+02	   4.5364540e-01	   1.9412204e-01	
   1.0499500e+02	   4.3633942e-01	   4.3907559e-01	
   1.0505000e+02	   5.5458178e-01	   4.8210933e-01	
   1.0510500e+02	   8.0792544e-01	   5.1167681e-01	
   1.0516000e+02	   7.0163125e-01	   2.9711976e-01	
   1.0521500e+02	   6.1850007e-01	   3.1418577e-01	
   1.0527000e+02	   6.4414641e-01	   5.2423524e-01	
   1.0532500e+02	   5.6415602e-01	   3.7412537e-01	
   1.0538000e+02	   1.7518187e-01	   2.0861157e-01	
   1.0543500e+02	   1.3025037e-01	   1.4028780e-02	
   1.0549000e+02	   1.3730218e-01	   1.6372153e-01	
   1.0554500e+02	  -5.7038159e-02	   4.1239800e-02	
   1.0560000e+02	   2.8766105e-01	  -4.6923407e-02	
   1.0565500e+02	   6.1896310e-01	   4.0049202e-01	
   1.0571000e+02	   5.5297144e-01	   4.8737197e-01	
   1.0576500e+02	   6.8328861e-01	   4.8428126e-01	
   1.0582000e+02	   7.0429801e-01	   3.3777932e-01	
   1.0587500e+02	   6.2942420e-01	   4.6329233e-01	
   1.0593000e+02	   5.7439158e-01	   4.5501418e-01	
   1.0598500e+02	   2.8586175e-01	   2.5193345e-01	
   1.0604000e+02	   1.7684568e-01	  -1.2589777e-02	
   1.0609500e+02	   2.0788235e-01	  -1.0664871e-02	
   1.0615000e+02	   5.7693336e-01	   3.6855842e-01	
   1.0620500e+02	   1.4201145e-01	   1.3475332e-01	
   1.0626000e+02	   1.7192411e-02	   1.3005049e-01	
   1.0631500e+02	   6.1790463e-01	   3.4698155e-01	
   1.0637000e+02	   8.2800158e-01	   3.6565522e-01	
   1.0642500e+02	   3.3203095e-01	   2.1227147e-01	
   1.0648000e+02	   7.3283902e-01	   3.9101563e-01	
   1.0653500e+02	   5.7410576e-01	   3.8837783e-01	
   1.0659000e+02	   5.6309497e-01	   3.2045258e-01	
   1.0664500e+02	   3.2370273e-01	   1.6494594e-01	
   1.0670000e+02	   1.7331394e-01	   5.0456443e-02	
   1.0675500e+02	   7.8838937e-02	   1.0497346e-01	
   1.0681000e+02	   6.9026094e-02	  -8.3683612e-02	
   1.0686500e+02	  -3.3361111e-01	  -1.3702158e-01	
   1.0692000e+02	   9.1890962e-02	  -2.0931141e-02	
   1.0697500e+02	   5.1895651e-01	   3.8859913e-01	
   1.0703000e+02	   5.0292150e-01	   2.1542652e-01	
   1.0708500e+02	   4.5489608e-01	   4.3856134e-01	
   1.0714000e+02	   1.8568772e-01	   1.4409168e-01	
   1.0719500e+02	   2.6985554e-01	   3.8125286e-01	
   1.0725000e+02	   9.9843705e-02	   1.6341252e-01	
   1.0730500e+02	   2.2655758e-02	   5.5954496e-02	
   1.0736000e+02	   1.2755062e-01	   2.3930767e-01	
   1.0741500e+02	  -3.7868420e-01	   2.8819775e-03	
   1.0747000e+02	  -2.4315905e-01	  -1.5129575e-01	
   1.0752500e+02	  -4.3924310e-01	  -3.8703083e-01	
   1.0758000e+02	  -1.6690888e-01	  -1.2992464e-01	
   1.0763500e+02	   1.8196381e-01	   2.5860297e-01	
   1.0769000e+02	   4.9650427e-01	   1.7597062e-01	
   1.0774500e+02	   4.7807624e-01	   3.2865631e-01	
   1.0780000e+02	   3.7226638e-01	   3.0179903e-01	
   1.0785500e+02	   5.2207896e-01	   3.6829767e-01	
   1.0791000e+02	   5.2244730e-02	   2.9448370e-01	
   1.0796500e+02	   2.8273471e-02	   1.6541593e-01	
   1.0802000e+02	   2.7328705e-02	   1.4908491e-01	
   1.0807500e+02	   1.7217799e-01	   4.7467524e-02	
   1.0813000e+02	  -3.7432104e-01	  -1.5988343e-01	
   1.0818500e+02	  -5.0279508e-01	  -1.9950358e-01	
   1.0824000e+02	  -1.7307976e-01	   2.4228266e-02	
   1.0829500e+02	  -3.7299680e-01	  -2.6611335e-01	
   1.0835000e+02	   1.9440047e-01	  -3.0122863e-02	
   1.0840500e+02	   3.7278289e-01	   2.3560933e-01	
   1.0846000e+02	   4.6580658e-01	   5.5942193e-01	
   1.0851500e+02	   6.5603554e-01	   5.3984351e-01	
   1.0857000e+02	   3.5742131e-01	   2.2787192e-01	
   1.0862500e+02	   6.1456626e-01	   5.4548789e-01	
   1.0868000e+02	   3.4881055e-01	   2.5984337e-01	
   1.0873500e+02	   2.3034625e-01	   1.4118263e-01	
   1.0879000e+02	   1.1208580e-01	   9.0001650e-02	
   1.0884500e+02	   1.8541697e-01	   2.0282976e-01	
   1.0890000e+02	   3.3050764e-01	   3.4514580e-02	
   1.0895500e+02	  -3.1505729e-01	  -1.5598445e-01	
   1.0901000e+02	  -4.4328484e-01	  -1.1541545e-01	
   1.0906500e+02	   2.2971948e-01	   1.3000050e-01	
   1.0912000e+02	   5.3123462e-01	   3.4098213e-01	
   1.0917500e+02	   3.0078136e-01	   1.9625914e-01	
   1.0923000e+02	   3.4212744e-01	   2.5852215e-01	
   1.0928500e+02	   6.5014512e-01	   3.7591524e-01	
   1.0934000e+02	   5.2516939e-01	   3.4048749e-01	
   1.0939500e+02	   4.6596015e-01	   2.3385847e-01	
   1.0945000e+02	   4.2938460e-01	   1.5348519e-01	
   1.0950500e+02	   2.0775871e-01	   7.9717718e-02	
   1.0956000e+02	   1.1635461e-01	   1.0327596e-01	
   1.0961500e+02	  -2.2757830e-01	  -1.3764036e-01	
   1.0967000e+02	  -1.1260209e-01	  -5.7851156e-02	
   1.0972500e+02	  -2.1016904e-01	  -6.4244078e-02	
   1.0978000e+02	   3.9415879e-01	   1.3773603e-01	
   1.0983500e+02	   5.0963727e-01	   1.9669434e-01	
   1.0989000e+02	   3.2848485e-01	   2.7762219e-01	
   1.0994500e+02	   6.5015602e-01	   3.8295306e-01	
   1.1000000e+02	   5.1460421e-01	   2.7263299e-01	
   1.1005500e+02	   4.2158602e-01	   1.0814383e-01	
   1.1011000e+02	   5.7944196e-01	   3.5026479e-01	
   1.1016500e+02	   1.5399957e-01	   3.3490994e-02	
   1.1022000e+02	   1.9199689e-01	  -4.5306302e-02	
   1.1027500e+02	  -8.9827523e-02	  -7.0641143e-02	
   1.1033000e+02	  -5.2694710e-02	   1.1165999e-01	
   1.1038500e+02	  -1.6910747e-01	  -1.3326329e-01	
   1.1044000e+02	  -2.0334008e-02	  -8.8127705e-02	
   1.1049500e+02	   2.5164820e-01	   2.1304450e-01	
   1.1055000e+02	   5.0591775e-01	   3.0621776e-01	
   1.1060500e+02	   5.1806440e-01	   2.6369462e-01	
   1.1066000e+02	   2.0683895e-01	   1.0206965e-01	
   1.1071500e+02	   4.3190389e-01	   1.3741230e-01	
   1.1077000e+02	   5.2911801e-01	   9.1393290e-02	
   1.1082500e+02	   1.1312362e-01	   1.0619265e-01	
   1.1088000e+02	   1.2496571e-01	   1.3317221e-01	
   1.1093500e+02	   3.3786827e-01	   1.9495004e-01	
   1.1099000e+02	  -2.9609255e-01	  -1.8102458e-01	
   1.1104500e+02	  -2.7199536e-01	  -3.9406645e-01	
   1.1110000e+02	  -6.0942089e-01	  -3.7179918e-01	
   1.1115500e+02	  -1.0121483e-01	   1.0830441e-01	
   1.1121000e+02	   4.7275330e-01	   2.8889622e-01	
   1.1126500e+02	   6.0822627e-01	   3.7254265e-01	
   1.1132000e+02	   3.9316473e-01	   2.1430601e-01	
   1.1137500e+02	   3.6814986e-01	   2.2094252e-01	
   1.1143000e+02	   6.2061184e-01	   3.4459603e-01	
   1.1148500e+02	   4.6881275e-01	   2.4782903e-01	
   1.1154000e+02	   2.0799185e-01	   1.5274856e-01	
   1.1159500e+02	   1.2223261e-01	   2.4380188e-01	
   1.1165000e+02	   2.2853531e-01	   1.7171640e-01	
   1.1170500e+02	  -9.7901582e-02	  -8.2129630e-02	
   1.1176000e+02	  -4.9879621e-01	  -1.4772309e-01	
   1.1181500e+02	  -1.0113832e-01	  -8.7544421e-02	
   1.1187000e+02	   1.3765492e-01	   1.4530314e-01	
   1.1192500e+02	   3.9539418e-01	   2.7535023e-01	
   1.1198000e+02	   5.4904756e-01	   3.8568000e-01	
   1.1203500e+02	   6.6339143e-01	   5.6429456e-01	
   1.1209000e+02	   5.0194435e-01	   4.2990582e-01	
   1.1214500e+02	   3.6893524e-01	   1.0448537e-01	
   1.1220000e+02	   3.3306905e-01	   2.7938527e-01	
   1.1225500e+02	   2.9818352e-01	   1.9219690e-01	
   1.1231000e+02	   1.9580451e-01	   2.1859096e-01	
   1.1236500e+02	  -1.9469781e-01	   9.3362543e-02	
   1.1242000e+02	   2.0229736e-02	   1.8765657e-01	
   1.1247500e+02	   1.1961718e-01	  -1.5300343e-02	
   1.1253000e+02	  -4.6372209e-01	  -9.7505725e-02	
   1.1258500e+02	   1.2167875e-01	   8.2146191e-04	
   1.1264000e+02	   4.6658269e-01	   4.2561290e-01	
   1.1269500e+02	   5.3422543e-01	   4.5392546e-01	
   1.1275000e+02	   6.4084403e-01	   4.4361222e-01	
   1.1280500e+02	   6.6853174e-01	   4.9764999e-01	
   1.1286000e+02	   2.9128731e-01	   3.4697321e-01	
   1.1291500e+02	   7.6502670e-01	   4.4661009e-01	
   1.1297000e+02	   3.3651250e-01	   3.7012208e-01	
   1.1302500e+02	   2.2541523e-02	   1.6574787e-01	
   1.1308000e+02	   2.9261700e-01	   3.0356307e-01	
   1.1313500e+02	   1.2450786e-01	   1.7765561e-01	
   1.1319000e+02	  -1.3960596e-01	  -1.2841144e-01	
   1.1324500e+02	   9.1302372e-02	   5.9426096e-02	
   1.1330000e+02	  -1.5309255e-01	   2.7681556e-02	
   1.1335500e+02	   4.0901494e-01	   3.6481076e-01	
   1.1341000e+02	   4.3219555e-01	   2.7205418e-01	
   1.1346500e+02	   5.1502742e-01	   3.3518749e-01	
   1.1352000e+02	   4.8961022e-01	   4.7087560e-01	
   1.1357500e+02	   4.7634618e-01	   3.6214089e-01	
   1.1363000e+02	   3.7730430e-01	   4.1783739e-01	
   1.1368500e+02	   1.5042162e-01	   4.0122573e-01	
   1.1374000e+02	   2.6830348e-01	   3.6094425e-01	
   1.1379500e+02	  -1.5312163e-02	   1.5849903e-01	
   1.1385000e+02	  -1.6120687e-02	   2.2070690e-02	
   1.1390500e+02	   5.5976467e-02	   1.4281786e-01	
   1.1396000e+02	   9.8693064e-02	   7.3987689e-02	
   1.1401500e+02	   5.8689239e-01	   4.3704129e-01	
   1.1407000e+02	   4.9049273e-01	   2.9862554e-01	
   1.1412500e+02	   3.1359892e-01	   5.3239651e-01	
   1.1418000e+02	   4.1002997e-01	   3.5030650e-01	
   1.1423500e+02	   3.2186972e-01	   3.9595282e-01	
   1.1429000e+02	   5.6673511e-01	   4.7285947e-01	
   1.1434500e+02	   1.1123432e-01	   2.5180723e-01	
   1.1440000e+02	   3.4301285e-01	   3.8110348e-01	
   1.1445500e+02	   4.3057538e-02	   1.7285464e-01	
   1.1451000e+02	   4.9126303e-02	   9.8100101e-02	
   1.1456500e+02	  -4.2097041e-02	   7.3087837e-02	
   1.1462000e+02	   3.5932342e-01	   2.3614799e-01	
   1.1467500e+02	   3.8185475e-01	   5.0085092e-01	
   1.1473000e+02	   5.3132916e-01	   4.8096565e-01	
   1.1478500e+02	   7.3528538e-01	   6.0297320e-01	
   1.1484000e+02	   7.9135624e-01	   5.1913409e-01	
   1.1489500e+02	   6.2374068e-01	   5.1833932e-01	
   1.1495000e+02	   7.9432085e-01	   3.8293861e-01	
   1.1500500e+02	   5.7471108e-01	   4.3802413e-01	
   1.1506000e+02	   5.1408213e-01	   3.7406182e-01	
   1.1511500e+02	   1.8139307e-01	   2.1045401e-01	
   1.1517000e+02	  -1.5985538e-02	   2.0872396e-02	
   1.1522500e+02	  -8.3988728e-02	  -6.6362782e-02	
   1.1528000e+02	   2.4125090e-01	   9.9426928e-02	
   1.1533500e+02	   4.8494942e-01	   4.2898994e-01	
   1.1539000e+02	   7.3698061e-01	   6.3075114e-01	
   1.1544500e+02	   7.9027130e-01	   6.5904822e-01	
   1.1550000e+02	   1.1660153e+00	   7.9066491e-01	
   1.1555500e+02	   7.1009625e-01	   4.6809631e-01	
   1.1561000e+02	   8.4659803e-01	   4.9424080e-01	
   1.1566500e+02	   9.7738887e-01	   6.3424723e-01	
   1.1572000e+02	   7.8078035e-01	   5.0364630e-01	
   1.1577500e+02	   5.1749507e-01	   3.7587210e-01	
   1.1583000e+02	   5.9378646e-01	   3.8689256e-01	
   1.1588500e+02	   4.0197398e-01	   4.5329036e-01	
   1.1594000e+02	   9.2951115e-02	  -1.0758870e-01	
   1.1599500e+02	   6.6506915e-01	   4.1592276e-01	
   1.1605000e+02	   9.5283256e-01	   6.0128848e-01	
   1.1610500e+02	   1.3652495e+00	   6.8903479e-01	
   1.1616000e+02	   1.1313483e+00	   6.5121361e-01	
   1.1621500e+02	   1.0545627e+00	   5.6325538e-01	
   1.1627000e+02	   1.1380733e+00	   7.9543348e-01	
   1.1632500e+02	   1.2932119e+00	   7.1016520e-01	
   1.1638000e+02	   1.1067082e+00	   7.1945990e-01	
   1.1643500e+02	   9.6142938e-01	   4.3808005e-01	
   1.1649000e+02	   7.0596817e-01	   4.3592691e-01	
   1.1654500e+02	   6.8136911e-01	   4.8436234e-01	
   1.1660000e+02	   4.3942286e-01	   1.7516930e-01	
   1.1665500e+02	   3.1334483e-01	   1.4920916e-01	
   1.1671000e+02	   6.9699663e-01	   4.2197450e-01	
   1.1676500e+02	   1.2799595e+00	   7.3815186e-01	
   1.1682000e+02	   1.0970840e+00	   6.6167242e-01	
   1.1687500e+02	   1.0238841e+00	   6.1348935e-01	
   1.1693000e+02	   1.4512890e+00	   6.6193400e-01	
   1.1698500e+02	   1.1499423e+00	   7.6161364e-01	
   1.1704000e+02	   9.4250723e-01	   5.8438928e-01	
   1.1709500e+02	   7.0241920e-01	   4.2836141e-01	
   1.1715000e+02	   7.2946685e-01	   4.1613436e-01	
   1.1720500e+02	   5.6575612e-01	   3.5016515e-01	
   1.1726000e+02	   7.4018822e-01	   2.4110018e-01	
   1.1731500e+02	   5.2214514e-01	   5.2227316e-01	
   1.1737000e+02	   5.2645051e-01	   2.0244027e-01	
   1.1742500e+02	   1.4327632e+00	   7.0062804e-01	
   1.1748000e+02	   1.0079278e+00	   5.3121100e-01	
   1.1753500e+02	   9.5248884e-01	   6.4587922e-01	
   1.1759000e+02	   9.8038016e-01	   5.3141547e-01	
   1.1764500e+02	   1.1262664e+00	   5.0468473e-01	
   1.1770000e+02	   1.0808773e+00	   5.3658427e-01	
   1.1775500e+02	   4.8331404e-01	   4.4278266e-01	
   1.1781000e+02	   6.9532192e-01	   3.6816531e-01	
   1.1786500e+02	   5.9392001e-01	   4.3200034e-01	
   1.1792000e+02	   5.4730129e-01	   3.2945896e-01	
   1.1797500e+02	   5.2726668e-01	   4.1979314e-01	
   1.1803000e+02	   1.1071286e+00	   5.3216483e-01	
   1.1808500e+02	   1.2039967e+00	   7.1344846e-01	
   1.1814000e+02	   1.0085207e+00	   5.8541409e-01	
   1.1819500e+02	   1.0704739e+00	   6.0452451e-01	
   1.1825000e+02	   1.0960114e+00	   5.7928044e-01	
   1.1830500e+02	   9.2328993e-01	   5.6030889e-01	
   1.1836000e+02	   9.1428507e-01	   4.9231035e-01	
   1.1841500e+02	   9.4975168e-01	   4.4952519e-01	
   1.1847000e+02	   8.4957406e-01	   4.8705809e-01	
   1.1852500e+02	   6.2244105e-01	   3.3571191e-01	
   1.1858000e+02	   3.1097585e-01	  -1.3968661e-02	
   1.1863500e+02	   3.9989762e-01	   1.8705344e-01	
   1.1869000e+02	   8.9923459e-01	   3.7766821e-01	
   1.1874500e+02	   1.3423787e+00	   7.0027278e-01	
   1.1880000e+02	   1.0976968e+00	   5.0376551e-01	
   1.1885500e+02	   1.5683250e+00	   7.2231193e-01	
   1.1891000e+02	   1.4254626e+00	   8.6219867e-01	
   1.1896500e+02	   1.1442348e+00	   4.4735838e-01	
   1.1902000e+02	   1.3587024e+00	   4.8785381e-01	
   1.1907500e+02	   1.2128153e+00	   5.1817757e-01	
   1.1913000e+02	   1.1861837e+00	   5.9183082e-01	
   1.1918500e+02	   9.7020593e-01	   3.0347351e-01	
   1.1924000e+02	   8.7695033e-01	   2.9351870e-01	
   1.1929500e+02	   1.0074393e+00	   4.2739280e-01	
   1.1935000e+02	   8.4345061e-01	   2.0836948e-01	
   1.1940500e+02	   7.2364643e-01	   1.9145876e-01	
   1.1946000e+02	   1.0804032e+00	   4.4317320e-01	
   1.1951500e+02	   1.2141279e+00	   6.5506969e-01	
   1.1957000e+02	   1.5012594e+00	   7.1578892e-01	
   1.1962500e+02	   1.3898586e+00	   6.8652611e-01	
   1.1968000e+02	   1.4243435e+00	   7.5452765e-01	
   1.1973500e+02	   1.5906471e+00	   6.9952260e-01	
   1.1979000e+02	   1.2354662e+00	   7.1499413e-01	
   1.1984500e+02	   1.0784769e+00	   4.0321049e-01	
   1.1990000e+02	   1.1246224e+00	   4.3492410e-01	
   1.1995500e+02	   1.3340379e+00	   5.6755036e-01	
   1.2001000e+02	   9.1192979e-01	   3.1939480e-01	
   1.2006500e+02	   8.5385277e-01	   2.4631481e-01	
   1.2012000e+02	   6.8877545e-01	   1.3954300e-01	
   1.2017500e+02	   1.6281780e+00	   6.6988171e-01	
   1.2023000e+02	   1.5051542e+00	   7.4968032e-01	
   1.2028500e+02	   1.4605098e+00	   6.2164672e-01	
   1.2034000e+02	   1.6694953e+00	   6.6586660e-01	
   1.2039500e+02	   1.5115859e+00	   6.7549764e-01	
   1.2045000e+02	   1.3166902e+00	   4.9638336e-01	
   1.2050500e+02	   1.3418794e+00	   6.9829306e-01	
   1.2056000e+02	   1.3379550e+00	   4.6696468e-01	
   1.2061500e+02	   1.3580585e+00	   4.2382918e-01	
   1.2067000e+02	   1.0638847e+00	   3.1671413e-01	
   1.2072500e+02	   9.4945481e-01	   1.5481675e-01	
   1.2078000e+02	   8.0033056e-01	   1.6577465e-01	
   1.2083500e+02	   1.0596771e+00	   4.0191825e-01	
   1.2089000e+02	   1.5049297e+00	   5.4851990e-01	
   1.2094500e+02	   1.3286418e+00	   4.2696764e-01	
   1.2100000e+02	   1.6191698e+00	   7.9355548e-01	
   1.2105500e+02	   1.4485961e+00	   6.2656928e-01	
   1.2111000e+02	   1.5009772e+00	   6.6695715e-01	
   1.2116500e+02	   8.9896161e-01	   3.5758826e-01	
   1.2122000e+02	   1.1118591e+00	   4.6090864e-01	
   1.2127500e+02	   1.1250081e+00	   4.5633775e-01	
   1.2133000e+02	   7.3931791e-01	   2.3851846e-01	
   1.2138500e+02	   7.7906458e-01	   1.0067308e-01	
   1.2144000e+02	   7.4818163e-01	   2.4813322e-01	
   1.2149500e+02	   9.4767379e-01	   3.6202475e-01	
   1.2155000e+02	   1.0339780e+00	   2.8183060e-01	
   1.2160500e+02	   1.1634700e+00	   3.3859547e-01	
   1.2166000e+02	   1.3503880e+00	   4.8381506e-01	
   1.2171500e+02	   1.2896898e+00	   5.5058809e-01	
   1.2177000e+02	   1.0768538e+00	   3.2920702e-01	
   1.2182500e+02	   1.1214792e+00	   3.2283273e-01	
   1.2188000e+02	   1.0663041e+00	   4.8219752e-01	
   1.2193500e+02	   9.5685123e-01	   2.5646254e-01	
   1.2199000e+02	   5.5846161e-01	  -3.0610748e-02	
   1.2204500e+02	   7.2298419e-01	   6.2568415e-02	
   1.2210000e+02	   5.7339841e-01	   1.1287796e-01	
   1.2215500e+02	   1.2703229e+00	   4.4489999e-01	
   1.2221000e+02	   1.3830208e+00	   4.9329924e-01	
   1.2226500e+02	   1.2640382e+00	   5.3995599e-01	
   1.2232000e+02	   1.2080642e+00	   6.1560071e-01	
   1.2237500e+02	   1.2198491e+00	   3.9514953e-01	
   1.2243000e+02	   1.2498291e+00	   4.3888279e-01	
   1.2248500e+02	   9.9270196e-01	   3.9393530e-01	
   1.2254000e+02	   1.1197839e+00	   4.9654160e-01	
   1.2259500e+02	   8.2251940e-01	   2.5413943e-01	
   1.2265000e+02	   1.0088087e+00	   1.7177152e-01	
   1.2270500e+02	   8.6824721e-01	   1.5945618e-01	
   1.2276000e+02	   7.9779255e-01	   1.7771244e-01	
   1.2281500e+02	   1.1965401e+00	   3.3495262e-01	
   1.2287000e+02	   1.2835403e+00	   4.7232313e-01	
   1.2292500e+02	   1.2647768e+00	   5.6862194e-01	
   1.2298000e+02	   1.7316876e+00	   6.9068126e-01	
   1.2303500e+02	   1.3122849e+00	   4.8573185e-01	
   1.2309000e+02	   1.2088933e+00	   4.0946700e-01	
   1.2314500e+02	   1.4235669e+00	   5.6277904e-01	
   1.2320000e+02	   1.4470782e+00	   4.7336876e-01	
   1.2325500e+02	   1.1151639e+00	   3.7959092e-01	
   1.2331000e+02	   7.4120033e-01	   2.9430651e-01	
   1.2336500e+02	   8.1946088e-01	   9.6928645e-02	
   1.2342000e+02	   8.2302339e-01	  -1.0229806e-02	
   1.2347500e+02	   7.0055830e-01	   1.2524481e-01	
   1.2353000e+02	   9.4229370e-01	   1.6251618e-01	
   1.2358500e+02	   1.2292810e+00	   4.4669149e-01	
   1.2364000e+02	   1.4774237e+00	   4.5029768e-01	
   1.2369500e+02	   1.4246204e+00	   6.4172081e-01	
   1.2375000e+02	   1.2855010e+00	   5.0600939e-01	
   1.2380500e+02	   1.4148055e+00	   3.8944888e-01	
   1.2386000e+02	   1.2607124e+00	   5.6782036e-01	
   1.2391500e+02	   1.1090989e+00	   4.4621818e-01	
   1.2397000e+02	   9.4625301e-01	   3.1645410e-01	
   1.2402500e+02	   1.1196046e+00	   2.3825273e-01	
   1.2408000e+02	   9.1186972e-01	   1.7178614e-01	
   1.2413500e+02	   6.3307056e-01	   6.5945256e-02	
   1.2419000e+02	   6.1267075e-01	  -6.0326240e-02	
   1.2424500e+02	   1.5234451e+00	   5.8019411e-01	
   1.2430000e+02	   1.6452738e+00	   5.1338623e-01	
   1.2435500e+02	   1.5352828e+00	   4.6489542e-01	
   1.2441000e+02	   1.1043568e+00	   5.0964238e-01	
   1.2446500e+02	   1.2214732e+00	   4.9339107e-01	
   1.2452000e+02	   1.4572795e+00	   6.3620021e-01	
   1.2457500e+02	   8.3686260e-01	   1.7676907e-01	
   1.2463000e+02	   7.7063028e-01	   1.1131729e-01	
   1.2468500e+02	   7.2763685e-01	   2.5546939e-01	
   1.2474000e+02	   8.8515301e-01	   3.5761333e-01	
   1.2479500e+02	   5.3532428e-01	  -3.3907620e-02	
   1.2485000e+02	   8.3541579e-01	   2.0199141e-01	
   1.2490500e+02	   1.4695753e+00	   5.8403473e-01	
   1.2496000e+02	   1.0691376e+00	   5.4588925e-01	
   1.2501500e+02	   9.0352571e-01	   1.6800591e-01	
   1.2507000e+02	   1.0025788e+00	   3.0367909e-01	
   1.2512500e+02	   1.1863209e+00	   5.4528888e-01	
   1.2518000e+02	   1.1299487e+00	   3.9116072e-01	
   1.2523500e+02	   6.5728034e-01	   1.6997903e-01	
   1.2529000e+02	   5.9501599e-01	   7.0601218e-02	
   1.2534500e+02	   3.9428542e-01	   1.3523627e-01	
   1.2540000e+02	   6.5125757e-01	  -4.5113811e-03	
   1.2545500e+02	   6.4195283e-01	  -3.8070390e-02	
   1.2551000e+02	   1.0271080e+00	   3.5280034e-01	
   1.2556500e+02	   1.2387120e+00	   3.2817413e-01	
   1.2562000e+02	   1.2239554e+00	   4.5367435e-01	
   1.2567500e+02	   1.3339502e+00	   3.4903491e-01	
   1.2573000e+02	   8.9753345e-01	   3.5441067e-01	
   1.2578500e+02	   1.1143657e+00	   4.7935719e-01	
   1.2584000e+02	   1.3012927e+00	   4.1530946e-01	
   1.2589500e+02	   7.3281005e-01	   7.4897920e-02	
   1.2595000e+02	   4.6773333e-01	   1.5258850e-01	
   1.2600500e+02	   7.3997013e-01	   1.7925924e-01	
   1.2606000e+02	   7.7514643e-01	   1.0448402e-01	
   1.2611500e+02	   7.1735586e-01	   2.3198590e-01	
   1.2617000e+02	   9.6596600e-01	   2.5726319e-01	
   1.2622500e+02	   1.2757321e+00	   5.2321381e-01	
   1.2628000e+02	   1.1512473e+00	   5.7931682e-01	
   1.2633500e+02	   1.3132345e+00	   4.5925867e-01	
   1.2639000e+02	   1.2752812e+00	   4.0842003e-01	
   1.2644500e+02	   1.2092211e+00	   4.2712451e-01	
   1.2650000e+02	   1.0253424e+00	   5.2311788e-01	
   1.2655500e+02	   8.3418966e-01	   1.3519493e-01	
   1.2661000e+02	   8.1924902e-01	   1.6123548e-01	
   1.2666500e+02	   6.8004809e-01	   1.7859843e-01	
   1.2672000e+02	   5.9083560e-01	   4.2558962e-02	
   1.2677500e+02	   2.9267105e-01	  -2.0167095e-01	
   1.2683000e+02	   6.3715358e-01	   1.7602921e-01	
