
0   3   6
   0.0000000e+00	   3.0347934e+00	   3.1296132e-01	
   5.5000000e-02	   3.1948796e+00	   1.0503712e-01	
   1.1000000e-01	   3.2086243e+00	   1.7099486e-01	
   1.6500000e-01	   2.8920681e+00	  -7.4677997e-02	
   2.2000000e-01	   2.9051999e+00	  -8.2058594e-02	
   2.7500000e-01	   2.7127572e+00	  -5.3874526e-02	
   3.3000000e-01	   2.4419940e+00	  -2.8236771e-01	
   3.8500000e-01	   2.7895381e+00	  -1.6654328e-01	
   4.4000000e-01	   3.0117115e+00	   5.6065926e-02	
   4.9500000e-01	   3.5666070e+00	   1.8206778e-01	
   5.5000000e-01	   3.3207585e+00	   5.3946385e-01	
   6.0500000e-01	   2.8590048e+00	   2.1372127e-01	
   6.6000000e-01	   2.9858544e+00	   1.9207909e-01	
   7.1500000e-01	   3.5304875e+00	   3.8939924e-01	
   7.7000000e-01	   3.6227407e+00	   4.2079492e-01	
   8.2500000e-01	   3.3483381e+00	   4.2389679e-01	
   8.8000000e-01	   3.1495659e+00	   6.6280951e-02	
   9.3500000e-01	   2.9889520e+00	  -4.2318723e-02	
   9.9000000e-01	   2.8034310e+00	  -1.8090345e-01	
   1.0450000e+00	   3.0050989e+00	  -6.4407970e-02	
   1.1000000e+00	   3.3755321e+00	  -5.2265509e-02	
   1.1550000e+00	   3.8963390e+00	   3.5284341e-01	
   1.2100000e+00	   3.7264785e+00	   2.4355013e-01	
   1.2650000e+00	   3.5420036e+00	   2.7979032e-01	
   1.3200000e+00	   3.5336439e+00	   3.5015551e-01	
   1.3750000e+00	   4.2110343e+00	   1.8764595e-01	
   1.4300000e+00	   3.7663804e+00	   3.8085298e-01	
   1.4850000e+00	   3.5385846e+00	   3.0465999e-01	
   1.5400000e+00	   3.3730695e+00	  -1.4857183e-01	
   1.5950000e+00	   3.6663874e+00	   1.3969588e-01	
   1.6500000e+00	   3.3888772e+00	  -8.4616006e-02	
   1.7050000e+00	   2.6289961e+00	   7.8785435e-02	
   1.7600000e+00	   3.3308607e+00	   1.8505805e-01	
   1.8150000e+00	   3.9301358e+00	   3.9128273e-01	
   1.8700000e+00	   4.0544461e+00	   5.4569538e-01	
   1.9250000e+00	   4.3828855e+00	   4.3297061e-01	
   1.9800000e+00	   3.7543984e+00	   4.5643854e-01	
   2.0350000e+00	   3.8350788e+00	   4.3139576e-01	
   2.0900000e+00	   4.0723410e+00	   3.8469502e-01	
   2.1450000e+00	   3.6098641e+00	   1.7304383e-01	
   2.2000000e+00	   3.3036581e+00	   3.0504857e-01	
   2.2550000e+00	   3.2301762e+00	   2.4343120e-01	
   2.3100000e+00	  -1.6122860e-01	   6.8284942e-02	
   2.3650000e+00	  -3.6498595e-01	   1.5062860e-01	
   2.4200000e+00	  -3.1875346e-01	   1.6114566e-02	
   2.4750000e+00	   8.9477601e-01	   4.6510155e-01	
   2.5300000e+00	   6.8782393e-01	   4.6473048e-01	
   2.5850000e+00	   3.9146123e+00	   2.7206062e-01	
   2.6400000e+00	   4.5054224e+00	   8.1331038e-01	
   2.6950000e+00	   4.1486965e+00	   6.7617881e-01	
   2.7500000e+00	   3.5573988e+00	   2.2996091e-01	
   2.8050000e+00	   3.8894374e+00	   6.3678300e-01	
   2.8600000e+00	   4.1450968e+00	   6.6254948e-01	
   2.9150000e+00	   3.9818950e+00	   4.3178340e-01	
   2.9700000e+00	   3.0755345e+00	   2.5384074e-01	
   3.0250000e+00	   3.7269052e+00	   1.2070004e-01	
   3.0800000e+00	   3.9520917e+00	   1.5711936e-01	
   3.1350000e+00	   3.5715280e+00	   1.2867522e-01	
   3.1900000e+00	   3.5360072e+00	   1.0265179e-01	
   3.2450000e+00	   4.1313615e+00	   3.4299746e-01	
   3.3000000e+00	   4.4225797e+00	   7.0952086e-01	
   3.3550000e+00	   4.3149012e+00	   7.9906294e-01	
   3.4100000e+00	   4.4621255e+00	   4.9685867e-01	
   3.4650000e+00	   4.4702968e+00	   6.5595282e-01	
   3.5200000e+00	   4.6350284e+00	   6.6777889e-01	
   3.5750000e+00	   1.6965432e+00	   5.1276100e-01	
   3.6300000e+00	   6.3638404e-01	   3.0552794e-01	
   3.6850000e+00	   6.6949737e-01	   2.3411981e-01	
   3.7400000e+00	   4.9901834e-01	   2.6431222e-01	
   3.7950000e+00	   8.7648635e-01	   2.2034530e-01	
   3.8500000e+00	   3.8998668e+00	   1.7590204e-01	
   3.9050000e+00	   3.3471682e+00	   1.0172021e-01	
   3.9600000e+00	   3.3826474e+00	   2.6054775e-01	
   4.0150000e+00	   3.2779145e+00	  -2.2744664e-01	
   4.0700000e+00	   3.3135459e+00	   4.4829848e-02	
   4.1250000e+00	   4.1309054e+00	   2.4638340e-01	
   4.1800000e+00	   4.4713364e+00	   4.1734176e-01	
   4.2350000e+00	   3.9673803e+00	   5.3777574e-01	
   4.2900000e+00	   4.4869709e+00	   4.2325023e-01	
   4.3450000e+00	   4.9096293e+00	   8.1209855e-01	
   4.4000000e+00	   3.9131743e+00	   3.6966819e-01	
   4.4550000e+00	   4.5127509e+00	   2.9145708e-01	
   4.5100000e+00	   4.3588042e+00	   3.8790289e-01	
   4.5650000e+00	   4.2711305e+00	   5.6582170e-01	
   4.6200000e+00	   4.2867990e+00	   1.2903153e-01	
   4.6750000e+00	   3.3288292e+00	   7.3889351e-02	
   4.7300000e+00	   3.4594134e+00	   1.2329747e-01	
   4.7850000e+00	   3.3927963e+00	   2.3893487e-01	
   4.8400000e+00	   3.5044365e+00	   1.1842313e-02	
   4.8950000e+00	   3.5281816e+00	   2.5577739e-01	
   4.9500000e+00	   4.2167958e+00	   4.7995305e-01	
   5.0050000e+00	   4.6428550e+00	   4.2829544e-01	
   5.0600000e+00	   4.0433050e+00	   6.1102880e-01	
   5.1150000e+00	   3.7019523e+00	   5.3629823e-01	
   5.1700000e+00	   4.4550933e+00	   4.7930325e-01	
   5.2250000e+00	   3.8434470e+00	   1.7390749e-01	
   5.2800000e+00	   3.5485925e+00	   4.1670589e-03	
   5.3350000e+00	   3.7646382e+00	   9.7892133e-02	
   5.3900000e+00	   3.4478772e+00	  -2.1722294e-01	
   5.4450000e+00	   3.1731098e+00	   3.1600267e-02	
   5.5000000e+00	   3.2162038e+00	  -1.6973071e-01	
   5.5550000e+00	   3.5028554e+00	   3.1326629e-01	
   5.6100000e+00	   3.9878676e+00	   1.5969169e-01	
   5.6650000e+00	   4.2825856e+00	   3.1848937e-01	
   5.7200000e+00	   3.5255408e+00	   2.4766149e-01	
   5.7750000e+00	   3.7828852e+00	   1.9444988e-01	
   5.8300000e+00	   3.7347235e+00	   2.9607059e-01	
   5.8850000e+00	   4.1042938e+00	   1.2103912e-01	
   5.9400000e+00	   3.3133134e+00	  -7.4646492e-02	
   5.9950000e+00	   3.3533976e+00	  -5.5388987e-02	
   6.0500000e+00	   3.2592091e+00	   3.5219192e-02	
   6.1050000e+00	   2.9841329e+00	  -6.9662786e-02	
   6.1600000e+00	   2.6274048e+00	  -2.6498743e-01	
   6.2150000e+00	   2.4735899e-01	  -2.2496666e-01	
   6.2700000e+00	   9.5078943e-01	   1.7222620e-01	
   6.3250000e+00	   7.3090195e-01	   1.6532530e-01	
   6.3800000e+00	   1.1588190e+00	  -3.5677903e-02	
   6.4350000e+00	   3.7102305e+00	   2.2594829e-01	
   6.4900000e+00	   3.5464065e+00	   3.5487917e-01	
   6.5450000e+00	   3.1635368e+00	   2.6733711e-01	
   6.6000000e+00	   3.3226443e+00	   1.7953842e-01	
   6.6550000e+00	   3.6613189e+00	   1.4687793e-01	
   6.7100000e+00	   3.0709879e+00	   2.4761036e-02	
   6.7650000e+00	   3.2613646e+00	   1.8629580e-02	
   6.8200000e+00	   3.2685328e+00	  -5.5700800e-02	
   6.8750000e+00	   2.7887946e+00	  -1.9199605e-01	
   6.9300000e+00	   2.8180406e+00	  -2.0439191e-01	
   6.9850000e+00	   2.6380705e+00	  -3.8678432e-01	
   7.0400000e+00	   3.7792575e+00	   1.9400743e-01	
   7.0950000e+00	   3.9480737e+00	   3.7098268e-01	
   7.1500000e+00	   3.6538630e+00	   2.3042765e-01	
   7.2050000e+00	   3.8341043e+00	   6.3380446e-01	
   7.2600000e+00	   3.6055266e+00	   2.2473851e-01	
   7.3150000e+00	   1.3833504e+00	   4.4245897e-01	
   7.3700000e+00	   9.0231992e-01	   3.4116595e-01	
   7.4250000e+00	  -1.1091030e-02	   8.7915705e-02	
   7.4800000e+00	   5.0858806e-01	   2.4058419e-01	
   7.5350000e+00	   2.3874482e+00	   7.4861150e-02	
   7.5900000e+00	   2.7858038e+00	  -1.7009147e-02	
   7.6450000e+00	   2.6245558e+00	  -3.5081977e-02	
   7.7000000e+00	   2.7625777e+00	  -6.7474905e-02	
   7.7550000e+00	   2.9884044e+00	  -2.7909193e-01	
   7.8100000e+00	   2.7411821e+00	  -3.6052490e-01	
   7.8650000e+00	   2.8361579e+00	   1.7052053e-01	
   7.9200000e+00	   3.6224856e+00	   3.1555434e-01	
   7.9750000e+00	   3.4824077e+00	   6.5730123e-01	
   8.0300000e+00	   3.3926723e+00	   7.8702922e-02	
   8.0850000e+00	   6.0732133e-01	  -1.5048361e-01	
   8.1400000e+00	   6.8588004e-01	   2.3369625e-01	
   8.1950000e+00	   5.6345319e-01	   1.1252305e-01	
   8.2500000e+00	  -1.7946753e-01	   1.5957852e-01	
   8.3050000e+00	   2.0116671e-02	   2.9465542e-02	
   8.3600000e+00	   3.5673465e-01	   7.6848608e-02	
   8.4150000e+00	   3.6520757e+00	  -3.1187008e-02	
   8.4700000e+00	   2.5343046e+00	  -2.6539583e-01	
   8.5250000e+00	   2.2809931e+00	  -2.7441874e-01	
   8.5800000e+00	   2.5809777e+00	  -1.1152009e-01	
   8.6350000e+00	   3.0510420e+00	  -1.1210018e-01	
   8.6900000e+00	   2.4498373e+00	   7.0378351e-02	
   8.7450000e+00	   3.0281622e+00	   1.1749796e-01	
   8.8000000e+00	   3.1110043e+00	   3.0596809e-01	
   8.8550000e+00	   3.1824717e+00	   4.8539054e-02	
   8.9100000e+00	   2.8160031e+00	   2.1721393e-01	
   8.9650000e+00	   2.5514366e+00	   8.5736334e-03	
   9.0200000e+00	   2.9460239e+00	   4.6858287e-01	
   9.0750000e+00	  -8.0869280e-02	  -3.1909147e-01	
   9.1300000e+00	  -5.5748274e-02	  -7.8281239e-02	
   9.1850000e+00	   3.0949261e-01	  -1.1803355e-02	
   9.2400000e+00	  -5.5824679e-01	  -1.2181068e-01	
   9.2950000e+00	  -2.4380379e-01	  -1.3850724e-01	
   9.3500000e+00	  -5.6035288e-02	  -1.8340032e-01	
   9.4050000e+00	   4.1449657e-01	  -7.1889798e-02	
   9.4600000e+00	  -8.4022051e-02	  -7.8289170e-03	
   9.5150000e+00	  -7.4267784e-01	   1.7016370e-01	
   9.5700000e+00	   3.1025837e-02	   1.4744084e-01	
   9.6250000e+00	   4.5014426e-01	   1.9308201e-01	
   9.6800000e+00	  -2.4748412e-01	  -1.3026407e-01	
   9.7350000e+00	  -1.0870532e-01	  -9.2764754e-02	
   9.7900000e+00	  -4.7770221e-01	  -1.1014555e-01	
   9.8450000e+00	   1.0277262e-01	  -1.2066372e-01	
   9.9000000e+00	  -4.4442808e-01	  -1.7082538e-01	
   9.9550000e+00	  -4.7231702e-01	  -4.9431580e-01	
   1.0010000e+01	  -4.4196397e-01	  -2.1608777e-01	
   1.0065000e+01	   2.8620006e-02	   3.0826029e-01	
   1.0120000e+01	   9.0282959e-02	   2.0701592e-01	
   1.0175000e+01	  -2.5653138e-01	   3.9742899e-02	
   1.0230000e+01	  -1.4214063e-02	   3.1271599e-01	
   1.0285000e+01	   2.9460191e-01	   3.2262865e-01	
   1.0340000e+01	   5.3751969e-01	   2.1459677e-01	
   1.0395000e+01	  -4.5048400e-01	   1.4893710e-01	
   1.0450000e+01	   4.3350077e-01	   2.3717427e-01	
   1.0505000e+01	   1.8484181e-01	   4.9640730e-02	
   1.0560000e+01	  -2.4737591e-01	  -1.7269986e-01	
   1.0615000e+01	  -7.2492908e-01	  -3.9804831e-01	
   1.0670000e+01	  -3.9971046e-01	  -3.1691002e-02	
   1.0725000e+01	  -5.1333366e-01	  -2.5043505e-01	
   1.0780000e+01	  -2.6692021e-01	  -5.1797316e-02	
   1.0835000e+01	  -6.8105803e-02	   4.6587229e-01	
   1.0890000e+01	   3.1137949e-01	   5.0417451e-01	
   1.0945000e+01	   1.9773132e-02	   2.7086182e-01	
   1.1000000e+01	   1.9922069e-01	   2.5302333e-01	
   1.1055000e+01	   1.9961008e-01	   2.8350172e-01	
   1.1110000e+01	   3.0384747e-02	   2.1306171e-01	
   1.1165000e+01	   6.0821193e-02	   4.1367692e-01	
   1.1220000e+01	  -2.5425417e-01	   1.0094062e-01	
   1.1275000e+01	  -3.1823031e-01	   1.7032530e-01	
   1.1330000e+01	  -1.9833909e-01	   1.6444536e-01	
   1.1385000e+01	  -5.6443877e-01	  -4.9549179e-02	
   1.1440000e+01	  -7.6767952e-01	  -5.8479944e-02	
   1.1495000e+01	  -8.9259826e-01	  -2.4303322e-01	
   1.1550000e+01	  -3.7142216e-01	   5.6085029e-02	
   1.1605000e+01	  -2.9337068e-01	   2.3709387e-01	
   1.1660000e+01	  -1.4587715e-02	   2.3642345e-01	
   1.1715000e+01	  -2.9612753e-01	   6.5357796e-01	
   1.1770000e+01	  -3.6164755e-01	   4.6121084e-01	
   1.1825000e+01	  -5.3516647e-01	   3.3318242e-01	
   1.1880000e+01	  -5.0678467e-01	   1.8765955e-01	
   1.1935000e+01	  -2.9879383e-01	   1.7101560e-01	
   1.1990000e+01	  -6.6461801e-01	  -2.1229498e-02	
   1.2045000e+01	  -1.0792230e+00	   2.2278211e-02	
   1.2100000e+01	  -1.1737499e+00	   1.7204423e-01	
   1.2155000e+01	  -1.2543060e+00	  -2.7345269e-02	
   1.2210000e+01	  -1.4405208e+00	   3.4559178e-03	
   1.2265000e+01	  -9.1781023e-01	  -9.1975459e-02	
   1.2320000e+01	  -5.3307256e-01	   3.4046776e-01	
   1.2375000e+01	  -6.4935105e-01	   2.8534364e-01	
   1.2430000e+01	  -8.5519837e-01	   1.9894932e-01	
   1.2485000e+01	  -3.7963090e-01	   9.9936243e-02	
   1.2540000e+01	  -2.1848414e-01	   3.4118356e-01	
   1.2595000e+01	  -3.1624605e-01	   3.3065056e-01	
   1.2650000e+01	  -1.1145929e-01	   7.3881020e-03	
   1.2705000e+01	  -4.9611816e-01	  -2.3095031e-02	
   1.2760000e+01	  -6.0111581e-01	   9.6772873e-03	
   1.2815000e+01	  -1.1270183e+00	  -8.5992993e-02	
   1.2870000e+01	  -1.4141290e+00	  -2.2798218e-01	
   1.2925000e+01	  -3.3072999e-01	   2.0710583e-01	
   1.2980000e+01	  -3.6936619e-01	   2.9461265e-01	
   1.3035000e+01	  -5.3758417e-01	   4.0899581e-01	
   1.3090000e+01	   1.6166910e-01	   3.0337350e-01	
   1.3145000e+01	   3.3356254e-01	   5.0734468e-01	
   1.3200000e+01	   1.4855556e-01	   3.5358076e-01	
   1.3255000e+01	   3.3976133e-01	   3.3482164e-01	
   1.3310000e+01	  -1.3871067e-01	   1.8331911e-01	
   1.3365000e+01	  -6.6376544e-01	   3.8786885e-01	
   1.3420000e+01	  -3.3373483e-01	   1.6652436e-01	
   1.3475000e+01	  -2.8979881e-01	   1.9986580e-01	
   1.3530000e+01	  -6.3337368e-01	  -2.0307083e-01	
   1.3585000e+01	  -5.2736942e-01	  -2.0865586e-01	
   1.3640000e+01	  -2.4430381e-01	   1.9216500e-01	
   1.3695000e+01	   2.0237064e-02	   2.1957175e-01	
   1.3750000e+01	   1.7286643e-01	   2.0977163e-01	
   1.3805000e+01	   1.8248248e-01	   5.4391434e-01	
   1.3860000e+01	   9.4501494e-02	   5.2837244e-01	
   1.3915000e+01	  -5.1763632e-02	   1.5772092e-01	
   1.3970000e+01	   3.9751026e-01	   2.8082626e-01	
   1.4025000e+01	   1.7148278e-01	   3.6328452e-01	
   1.4080000e+01	   4.9913087e-01	   2.1213530e-01	
   1.4135000e+01	  -1.4650823e-01	  -5.0372544e-02	
   1.4190000e+01	  -1.6760532e-01	   1.4878156e-01	
   1.4245000e+01	  -3.7190202e-02	  -2.4756797e-01	
   1.4300000e+01	  -4.0978253e-01	  -1.3901460e-01	
   1.4355000e+01	  -9.6573217e-01	  -3.4560894e-01	
   1.4410000e+01	  -4.4469391e-02	   1.8062345e-02	
   1.4465000e+01	   1.3282566e-01	   1.3075623e-01	
   1.4520000e+01	   4.5130599e-01	   5.6682118e-02	
   1.4575000e+01	   2.9813801e-01	   2.4084881e-01	
   1.4630000e+01	   4.1919257e-01	   4.4252345e-02	
   1.4685000e+01	   3.0404823e-01	   1.9316024e-02	
   1.4740000e+01	   1.4157422e-01	   1.6984832e-01	
   1.4795000e+01	  -8.5801278e-02	  -1.6224484e-01	
   1.4850000e+01	  -2.6074457e-01	  -7.2347239e-02	
   1.4905000e+01	  -1.4600661e-01	   1.4033546e-02	
   1.4960000e+01	  -2.6736298e-01	  -1.1278540e-01	
   1.5015000e+01	  -7.2100290e-01	  -3.7269951e-01	
   1.5070000e+01	  -7.2357295e-01	  -2.6372346e-01	
   1.5125000e+01	  -3.7247085e-01	  -2.5303409e-01	
   1.5180000e+01	  -9.3470642e-01	  -5.7399291e-01	
   1.5235000e+01	  -2.9212837e-01	  -1.7455314e-01	
   1.5290000e+01	  -8.5970637e-03	   1.8841949e-03	
   1.5345000e+01	   1.7427313e-01	   1.5272957e-01	
   1.5400000e+01	  -1.0765519e-01	  -1.1710991e-01	
   1.5455000e+01	  -2.6678032e-01	  -3.2896443e-01	
   1.5510000e+01	   1.2396198e-01	  -1.1533803e-01	
   1.5565000e+01	  -4.4017284e-01	  -7.0278686e-02	
   1.5620000e+01	  -6.5525364e-01	  -3.4726051e-01	
   1.5675000e+01	  -5.5207066e-01	  -2.7691401e-01	
   1.5730000e+01	  -4.9641077e-01	  -3.6446970e-01	
   1.5785000e+01	  -1.2267473e+00	  -6.7882864e-01	
   1.5840000e+01	  -1.0333496e+00	  -7.6698050e-01	
   1.5895000e+01	  -9.9819512e-01	  -8.1817776e-01	
   1.5950000e+01	  -5.3936197e-01	  -4.0802549e-01	
   1.6005000e+01	  -2.3537110e-01	  -4.8831642e-01	
   1.6060000e+01	  -5.1830549e-01	  -4.4362606e-01	
   1.6115000e+01	  -1.9924041e-01	  -3.1696166e-01	
   1.6170000e+01	  -3.5451856e-01	  -7.7646240e-02	
   1.6225000e+01	  -2.0561874e-01	  -5.0989197e-01	
   1.6280000e+01	  -6.1739640e-01	  -6.3155490e-01	
   1.6335000e+01	  -5.3543081e-01	  -3.7445110e-01	
   1.6390000e+01	  -1.0201970e+00	  -4.5163616e-01	
   1.6445000e+01	  -7.3957559e-01	  -6.6777489e-01	
   1.6500000e+01	  -9.6327331e-01	  -7.4711394e-01	
   1.6555000e+01	  -9.7285044e-01	  -8.4224726e-01	
   1.6610000e+01	  -1.3987561e+00	  -9.8705513e-01	
   1.6665000e+01	  -9.4951298e-01	  -9.9614267e-01	
   1.6720000e+01	  -5.8664583e-01	  -4.4340863e-01	
   1.6775000e+01	  -3.0590587e-01	  -3.9344616e-01	
   1.6830000e+01	  -6.2669183e-01	  -4.2536067e-01	
   1.6885000e+01	  -9.7559185e-01	  -5.7401779e-01	
   1.6940000e+01	  -7.5832853e-01	  -5.9151575e-01	
   1.6995000e+01	  -8.4692466e-01	  -7.3297136e-01	
   1.7050000e+01	  -5.5885674e-01	  -9.4533174e-01	
   1.7105000e+01	  -8.9236828e-01	  -9.1583562e-01	
   1.7160000e+01	  -1.1100470e+00	  -9.1754260e-01	
   1.7215000e+01	  -1.0652727e+00	  -9.4868568e-01	
   1.7270000e+01	  -1.7655421e+00	  -1.2308511e+00	
   1.7325000e+01	  -2.0840349e+00	  -1.4925189e+00	
   1.7380000e+01	  -1.0443425e+00	  -8.5237604e-01	
   1.7435000e+01	  -1.1139052e+00	  -9.7388184e-01	
   1.7490000e+01	  -7.4752572e-01	  -9.3737864e-01	
   1.7545000e+01	  -1.2778506e+00	  -8.7024587e-01	
   1.7600000e+01	  -1.1231300e+00	  -8.0537223e-01	
   1.7655000e+01	  -7.9422528e-01	  -8.8498815e-01	
   1.7710000e+01	  -1.4466657e+00	  -1.2833593e+00	
   1.7765000e+01	  -1.4800141e+00	  -1.0415147e+00	
   1.7820000e+01	  -1.6933210e+00	  -9.6292462e-01	
   1.7875000e+01	  -1.8436227e+00	  -1.0305514e+00	
   1.7930000e+01	  -1.8530386e+00	  -1.4837337e+00	
   1.7985000e+01	  -2.0185918e+00	  -1.4465619e+00	
   1.8040000e+01	  -1.8746881e+00	  -1.1780694e+00	
   1.8095000e+01	  -1.8177186e+00	  -1.2069086e+00	
   1.8150000e+01	  -1.4124530e+00	  -9.4578531e-01	
   1.8205000e+01	  -1.1224463e+00	  -1.0157323e+00	
   1.8260000e+01	  -1.3599933e+00	  -9.7696661e-01	
   1.8315000e+01	  -1.0273024e+00	  -8.4694995e-01	
   1.8370000e+01	  -1.1533174e+00	  -1.1891327e+00	
   1.8425000e+01	  -1.4115128e+00	  -1.0030052e+00	
   1.8480000e+01	  -1.0001676e+00	  -9.9039387e-01	
   1.8535000e+01	  -1.6147102e+00	  -1.2326411e+00	
   1.8590000e+01	  -1.7933101e+00	  -1.5106551e+00	
   1.8645000e+01	  -1.7760509e+00	  -1.2131838e+00	
   1.8700000e+01	  -1.1680118e+00	  -1.1395204e+00	
   1.8755000e+01	  -7.9802143e-01	  -1.0500946e+00	
   1.8810000e+01	  -1.1459519e+00	  -9.0620600e-01	
   1.8865000e+01	  -7.8655561e-01	  -7.3220259e-01	
   1.8920000e+01	  -8.5602377e-01	  -5.8397878e-01	
   1.8975000e+01	  -1.1179131e+00	  -8.9594298e-01	
   1.9030000e+01	  -1.3282004e+00	  -8.9571651e-01	
   1.9085000e+01	  -7.6532622e-01	  -7.6530815e-01	
   1.9140000e+01	  -1.1836444e+00	  -8.3304889e-01	
   1.9195000e+01	  -1.1674697e+00	  -9.8591407e-01	
   1.9250000e+01	  -1.5156612e+00	  -1.1187839e+00	
   1.9305000e+01	  -9.8463324e-01	  -9.7416649e-01	
   1.9360000e+01	  -2.0213575e+00	  -1.2228416e+00	
   1.9415000e+01	  -1.3082889e+00	  -1.0136759e+00	
   1.9470000e+01	  -6.8974775e-01	  -5.0684978e-01	
   1.9525000e+01	  -4.8008256e-01	  -4.2713278e-01	
   1.9580000e+01	  -1.1162380e+00	  -4.0323376e-01	
   1.9635000e+01	  -1.1247775e+00	  -6.9640092e-01	
   1.9690000e+01	  -7.4966345e-01	  -4.5260990e-01	
   1.9745000e+01	  -4.5132588e-01	  -3.7192896e-01	
   1.9800000e+01	  -5.4905872e-01	  -4.2900808e-01	
   1.9855000e+01	  -8.6548245e-01	  -5.2745424e-01	
   1.9910000e+01	  -6.7055750e-01	  -6.3961133e-01	
   1.9965000e+01	  -2.4031740e-02	  -5.0615502e-01	
   2.0020000e+01	  -1.1117507e+00	  -7.5423795e-01	
   2.0075000e+01	  -1.0162176e+00	  -6.2541397e-01	
   2.0130000e+01	  -2.5064545e-01	  -5.4294322e-01	
   2.0185000e+01	   3.5284652e-01	  -1.7827832e-01	
   2.0240000e+01	  -1.9533051e-02	  -3.4607501e-02	
   2.0295000e+01	  -3.2110253e-02	  -2.0121650e-01	
   2.0350000e+01	   2.2325460e-01	   7.2794549e-03	
   2.0405000e+01	  -5.2160480e-01	  -1.5103603e-01	
   2.0460000e+01	  -5.1788415e-01	  -4.3249084e-01	
   2.0515000e+01	  -1.4289552e-01	  -9.6113237e-03	
   2.0570000e+01	  -1.5331723e-01	  -1.7370730e-01	
   2.0625000e+01	  -6.4936684e-01	  -1.4309400e-01	
   2.0680000e+01	  -6.7379382e-01	  -4.6379895e-01	
   2.0735000e+01	  -2.7244370e-01	  -2.4943466e-01	
   2.0790000e+01	  -4.6907246e-01	  -2.9590227e-01	
   2.0845000e+01	  -5.9191653e-01	  -4.7619837e-01	
   2.0900000e+01	  -3.4676286e-01	  -3.8498399e-01	
   2.0955000e+01	   3.3636924e-01	  -3.7083160e-01	
   2.1010000e+01	   4.9017715e-01	   7.1352844e-02	
   2.1065000e+01	   3.2812034e-01	   1.2418448e-01	
   2.1120000e+01	  -2.3991834e-02	  -1.0881489e-01	
   2.1175000e+01	   1.8292413e-01	   2.6389534e-01	
   2.1230000e+01	   3.5426693e-01	   1.1375182e-02	
   2.1285000e+01	  -2.2094672e-01	  -2.5817116e-01	
   2.1340000e+01	  -2.5022817e-01	  -1.0364658e-01	
   2.1395000e+01	   5.1310839e-02	  -1.7463751e-02	
   2.1450000e+01	  -5.4747524e-01	  -2.7734802e-01	
   2.1505000e+01	  -3.2695652e-01	  -3.1658125e-01	
   2.1560000e+01	  -5.4438586e-01	  -3.0748373e-01	
   2.1615000e+01	  -6.9089048e-01	  -3.7311309e-01	
   2.1670000e+01	   2.4681051e-01	  -6.0137024e-02	
   2.1725000e+01	  -2.3653049e-02	   8.2057168e-02	
   2.1780000e+01	   2.2805206e-01	  -5.0049670e-02	
   2.1835000e+01	   1.5866753e-01	   1.5878727e-01	
   2.1890000e+01	   2.8434126e-01	   7.3078823e-02	
   2.1945000e+01	   2.3865113e-01	   3.4897626e-02	
   2.2000000e+01	  -5.7966993e-02	   6.5066657e-02	
   2.2055000e+01	  -1.1841728e-01	   9.8781960e-02	
   2.2110000e+01	   1.6648966e-01	  -1.3413837e-01	
   2.2165000e+01	  -3.5087752e-01	  -1.5089485e-01	
   2.2220000e+01	  -6.1283765e-01	  -1.7023629e-01	
   2.2275000e+01	  -8.5011931e-01	  -2.3168640e-01	
   2.2330000e+01	  -7.4230137e-01	  -3.4856912e-01	
   2.2385000e+01	  -6.2254845e-01	  -1.1243730e-01	
   2.2440000e+01	  -8.7632138e-02	   1.5748668e-01	
   2.2495000e+01	  -2.1972239e-02	   2.0761108e-01	
   2.2550000e+01	  -1.3202688e-01	   3.6090911e-01	
   2.2605000e+01	  -5.4025040e-01	   3.3528344e-01	
   2.2660000e+01	   1.8223391e-01	   2.8315716e-02	
   2.2715000e+01	   1.0190786e-01	   2.4790166e-01	
   2.2770000e+01	  -4.0092665e-01	   4.9974025e-02	
   2.2825000e+01	  -3.6694167e-01	  -5.7178123e-02	
   2.2880000e+01	  -4.2838083e-01	  -1.4537026e-01	
   2.2935000e+01	  -2.6945925e-01	  -1.7918669e-01	
   2.2990000e+01	  -5.6750593e-01	  -2.2688879e-01	
   2.3045000e+01	  -9.8295351e-01	  -5.5043262e-01	
   2.3100000e+01	  -3.5845207e-01	  -1.3813434e-01	
   2.3155000e+01	  -6.5149773e-02	   5.9709454e-02	
   2.3210000e+01	  -2.2744432e-01	   1.9624510e-01	
   2.3265000e+01	  -7.3985154e-02	   1.3178261e-01	
   2.3320000e+01	   3.2187351e-02	   4.8986496e-02	
   2.3375000e+01	  -4.1832683e-01	   7.9623927e-02	
   2.3430000e+01	  -1.8900058e-01	  -1.3242740e-01	
   2.3485000e+01	  -6.6213469e-01	  -3.9437230e-01	
   2.3540000e+01	  -5.7405281e-01	  -5.5098302e-02	
   2.3595000e+01	  -9.8952320e-01	  -2.1801662e-01	
   2.3650000e+01	  -8.6208479e-01	  -2.2600824e-01	
   2.3705000e+01	  -1.0714451e+00	  -2.6270412e-01	
   2.3760000e+01	  -4.1789065e-01	  -3.5312699e-01	
   2.3815000e+01	  -2.3530879e-01	  -1.3984361e-01	
   2.3870000e+01	  -2.7644401e-01	   1.1962893e-01	
   2.3925000e+01	  -4.3309983e-01	   1.0178891e-01	
   2.3980000e+01	  -2.8709988e-01	   7.8998868e-02	
   2.4035000e+01	  -8.4899081e-02	   2.3617318e-01	
   2.4090000e+01	  -6.5764136e-01	   2.9664478e-02	
   2.4145000e+01	  -4.5586935e-01	  -8.7890454e-02	
   2.4200000e+01	  -7.1850276e-01	  -1.1049988e-01	
   2.4255000e+01	  -8.7078716e-01	  -4.5399083e-01	
   2.4310000e+01	  -8.2545147e-01	  -4.4011799e-01	
   2.4365000e+01	  -7.4071973e-01	  -2.9861974e-01	
   2.4420000e+01	  -4.2016028e-01	  -2.1209626e-01	
   2.4475000e+01	  -4.5603412e-01	  -6.4263023e-02	
   2.4530000e+01	  -2.2218929e-01	   1.2880197e-01	
   2.4585000e+01	   3.0602066e-02	   2.9146761e-01	
   2.4640000e+01	   4.4293001e-01	   4.4496724e-01	
   2.4695000e+01	   1.1099095e-01	   7.6200754e-02	
   2.4750000e+01	   4.2698699e-01	   2.5658830e-01	
   2.4805000e+01	   1.5622593e-02	   4.2069301e-01	
   2.4860000e+01	   3.1954612e-02	   1.5425694e-01	
   2.4915000e+01	   4.4873514e-02	   7.1847694e-03	
   2.4970000e+01	  -2.4295123e-01	  -7.9239908e-02	
   2.5025000e+01	  -6.4785812e-01	   6.0270112e-02	
   2.5080000e+01	  -2.9398401e-01	  -1.1700694e-01	
   2.5135000e+01	  -1.0149063e+00	  -2.3320152e-01	
   2.5190000e+01	  -2.0234398e-01	   1.1947878e-01	
   2.5245000e+01	   6.5582444e-01	   4.0199951e-01	
   2.5300000e+01	  -1.7753861e-01	   3.1357204e-01	
   2.5355000e+01	   1.3809605e-02	   3.5254343e-01	
   2.5410000e+01	   6.1161186e-01	   5.9964262e-01	
   2.5465000e+01	   7.0427320e-01	   6.7297043e-01	
   2.5520000e+01	   2.4684351e-01	   3.8236095e-01	
   2.5575000e+01	   3.3252158e-01	   2.3386173e-01	
   2.5630000e+01	   3.4120148e-01	   1.9087201e-01	
   2.5685000e+01	   2.7102223e-01	   3.0504679e-02	
   2.5740000e+01	  -4.0118137e-01	  -7.6200991e-02	
   2.5795000e+01	  -4.2366913e-01	  -4.7789208e-02	
   2.5850000e+01	  -2.0814944e-01	  -7.4914903e-02	
   2.5905000e+01	  -9.0886096e-02	  -1.7783706e-01	
   2.5960000e+01	   2.3900952e-01	   3.6175525e-01	
   2.6015000e+01	  -3.0491601e-02	   3.9016301e-01	
   2.6070000e+01	  -2.8960675e-02	   4.8473714e-01	
   2.6125000e+01	   2.9800928e-01	   5.7719046e-01	
   2.6180000e+01	  -6.7783538e-02	   2.8532632e-01	
   2.6235000e+01	   6.2406220e-01	   4.6673344e-01	
   2.6290000e+01	  -1.2679084e-01	   4.1217135e-01	
   2.6345000e+01	   3.5647008e-01	   1.6839292e-01	
   2.6400000e+01	  -5.6132929e-01	   1.7448953e-01	
   2.6455000e+01	  -4.7668896e-01	  -1.0385211e-01	
   2.6510000e+01	  -8.0189810e-02	   1.2322438e-01	
   2.6565000e+01	  -5.3017245e-01	  -4.2989741e-02	
   2.6620000e+01	  -3.0609870e-01	   2.0027485e-03	
   2.6675000e+01	  -2.4808922e-01	   2.2073057e-01	
   2.6730000e+01	   1.6713400e-01	   4.5025453e-01	
   2.6785000e+01	   2.0054925e-01	   4.5178595e-01	
   2.6840000e+01	   1.7208175e-01	   4.2806671e-01	
   2.6895000e+01	   2.5913852e-01	   5.1765421e-01	
   2.6950000e+01	   5.4054472e-01	   4.8937897e-01	
   2.7005000e+01	   5.5595859e-01	   2.6535679e-01	
   2.7060000e+01	  -3.7189469e-01	   2.4878867e-01	
   2.7115000e+01	  -2.2609124e-01	   1.6605980e-01	
   2.7170000e+01	   2.9437091e-01	   3.1210740e-01	
   2.7225000e+01	  -2.3970706e-01	   3.3296321e-01	
   2.7280000e+01	  -6.7827666e-01	  -3.8238794e-02	
   2.7335000e+01	  -1.0922183e-01	  -1.1278540e-01	
   2.7390000e+01	  -2.4376734e-01	  -4.9022340e-02	
   2.7445000e+01	   1.3878826e-01	   2.8606244e-01	
   2.7500000e+01	  -1.8625347e-01	   4.2517099e-01	
   2.7555000e+01	  -1.3101477e-01	   6.1535891e-01	
   2.7610000e+01	   4.5214360e-01	   4.3294554e-01	
   2.7665000e+01	   1.2151190e-03	   5.8177795e-01	
   2.7720000e+01	   3.1913786e-01	   3.4615822e-01	
   2.7775000e+01	  -9.3622768e-02	   3.8324453e-01	
   2.7830000e+01	  -7.4167804e-02	   4.0449545e-01	
   2.7885000e+01	  -3.0892840e-01	   1.5650378e-01	
   2.7940000e+01	   3.9789290e-02	  -4.2293268e-02	
   2.7995000e+01	  -1.8583928e-01	   4.4427283e-02	
   2.8050000e+01	  -4.7905972e-01	  -6.6026763e-02	
   2.8105000e+01	  -1.0394809e+00	  -2.7027069e-02	
   2.8160000e+01	  -6.0154877e-01	   5.3207076e-02	
   2.8215000e+01	   6.8422086e-01	   7.2930466e-01	
   2.8270000e+01	   3.3116593e-01	   1.5470498e-01	
   2.8325000e+01	  -2.7149667e-01	   1.6617233e-01	
   2.8380000e+01	  -6.5254707e-02	   3.2252420e-01	
   2.8435000e+01	   3.4195545e-01	   4.4950554e-01	
   2.8490000e+01	  -3.6913116e-01	   1.6061821e-01	
   2.8545000e+01	  -4.3767658e-01	  -2.5167125e-03	
   2.8600000e+01	  -5.7171402e-01	   2.3566304e-02	
   2.8655000e+01	  -3.9076354e-01	   1.4650188e-01	
   2.8710000e+01	  -9.0137970e-01	  -1.2866802e-01	
   2.8765000e+01	  -1.0810037e+00	  -3.4988121e-01	
   2.8820000e+01	  -5.8507579e-01	   9.8556053e-02	
   2.8875000e+01	  -4.3444888e-01	   3.5005020e-01	
   2.8930000e+01	  -4.2791759e-01	   2.0966639e-01	
   2.8985000e+01	  -4.1626647e-01	   2.3073355e-01	
   2.9040000e+01	  -2.3941403e-01	   2.4366983e-01	
   2.9095000e+01	   3.0903855e-01	   2.5770198e-01	
   2.9150000e+01	  -2.5989448e-01	   8.7246219e-02	
   2.9205000e+01	  -5.7156840e-01	   1.4504972e-01	
   2.9260000e+01	  -5.1998200e-01	  -1.9407852e-02	
   2.9315000e+01	  -1.9124219e-01	   3.5837714e-02	
   2.9370000e+01	  -5.2157932e-01	  -1.8792125e-01	
   2.9425000e+01	  -5.8796601e-01	  -3.7867996e-01	
   2.9480000e+01	  -7.9118878e-01	  -3.3851146e-01	
   2.9535000e+01	  -2.4030158e-01	   8.1979012e-02	
   2.9590000e+01	  -1.2787001e-01	   3.0234859e-02	
   2.9645000e+01	  -1.8108083e-01	  -6.7627689e-02	
   2.9700000e+01	  -2.9965555e-01	   1.5360534e-01	
   2.9755000e+01	   7.0998938e-02	   1.9874951e-01	
   2.9810000e+01	  -5.5218877e-01	   2.1910074e-01	
   2.9865000e+01	  -2.9238524e-01	   1.8122642e-02	
   2.9920000e+01	   1.0361303e-03	   2.1351569e-01	
   2.9975000e+01	  -5.6496642e-01	   9.6237289e-02	
   3.0030000e+01	  -8.3944656e-01	  -3.0324401e-01	
   3.0085000e+01	  -1.0152777e+00	  -3.1865921e-01	
   3.0140000e+01	  -1.0863717e+00	  -1.6330724e-01	
   3.0195000e+01	  -7.0551305e-01	  -3.0430023e-01	
   3.0250000e+01	  -4.6946261e-01	   8.2367013e-03	
   3.0305000e+01	  -1.9039053e-02	   9.6145214e-02	
   3.0360000e+01	  -2.0414252e-01	   1.7713321e-01	
   3.0415000e+01	   4.0052718e-02	   1.9849423e-01	
   3.0470000e+01	  -2.6044081e-02	   1.0991113e-01	
   3.0525000e+01	  -3.4570875e-01	  -4.0624492e-02	
   3.0580000e+01	   3.9733339e-01	   3.2453367e-01	
   3.0635000e+01	  -4.8758236e-02	   9.7682761e-02	
   3.0690000e+01	  -4.1475643e-01	  -2.2876918e-01	
   3.0745000e+01	  -9.7517437e-01	  -3.0487583e-01	
   3.0800000e+01	  -5.7328882e-01	  -2.4807148e-01	
   3.0855000e+01	  -6.1620159e-01	  -2.2972946e-01	
   3.0910000e+01	  -5.6921372e-01	  -9.1975420e-02	
   3.0965000e+01	   2.4687878e-01	   2.4323944e-01	
   3.1020000e+01	   2.0141497e-01	   4.1978293e-01	
   3.1075000e+01	   1.5113547e-01	   2.5359232e-01	
   3.1130000e+01	  -7.7437818e-02	   3.2742760e-01	
   3.1185000e+01	   1.3995324e-01	   2.9385840e-01	
   3.1240000e+01	   1.4002997e-01	   3.0457912e-01	
   3.1295000e+01	   7.9364436e-02	   1.0179829e-01	
   3.1350000e+01	   1.3349007e-01	  -1.2584042e-01	
   3.1405000e+01	  -1.7254092e-01	  -6.0830513e-02	
   3.1460000e+01	  -6.5433574e-01	  -2.8616004e-01	
   3.1515000e+01	  -3.2358896e-01	  -3.4172125e-01	
   3.1570000e+01	  -6.4197278e-01	  -5.0788978e-01	
   3.1625000e+01	  -8.2412750e-01	  -3.8578387e-01	
   3.1680000e+01	  -7.8469505e-02	  -2.0313068e-01	
   3.1735000e+01	   8.8898339e-02	   1.3902564e-01	
   3.1790000e+01	   3.8647037e-01	   3.4539942e-01	
   3.1845000e+01	  -6.7742827e-02	   2.6495694e-01	
   3.1900000e+01	   1.6080552e-02	   3.1870457e-01	
   3.1955000e+01	  -2.2688083e-01	   2.8753243e-01	
   3.2010000e+01	   3.9231093e-01	   2.6382945e-01	
   3.2065000e+01	   4.1445277e-02	   2.5150013e-01	
   3.2120000e+01	   4.9447394e-02	   2.0679160e-01	
   3.2175000e+01	  -9.1104050e-01	  -5.1253018e-02	
   3.2230000e+01	  -7.6912403e-01	  -5.9925852e-02	
   3.2285000e+01	  -1.5596689e-01	  -2.1819817e-01	
   3.2340000e+01	  -7.4321232e-01	  -1.4223891e-01	
   3.2395000e+01	  -1.7071616e-01	  -3.5581154e-01	
   3.2450000e+01	  -8.2837209e-02	  -8.0199052e-02	
   3.2505000e+01	   3.5520502e-01	   1.7924696e-01	
   3.2560000e+01	   3.8441389e-01	   3.4501583e-01	
   3.2615000e+01	   2.9233375e-01	  -3.3002378e-02	
   3.2670000e+01	   3.4227552e-01	   3.7056284e-01	
   3.2725000e+01	   4.7276672e-01	   1.4107532e-01	
   3.2780000e+01	   4.2543300e-01	   1.5791410e-02	
   3.2835000e+01	  -4.1415519e-02	   1.0009212e-01	
   3.2890000e+01	  -1.7278929e-01	  -1.2702635e-01	
   3.2945000e+01	   5.3174380e-02	  -1.5718294e-02	
   3.3000000e+01	   1.2548967e-01	  -2.5325748e-02	
   3.3055000e+01	  -1.6621221e-01	  -1.4190224e-01	
   3.3110000e+01	  -5.9300886e-01	  -3.2752116e-01	
   3.3165000e+01	  -2.7008756e-01	  -1.7038710e-01	
   3.3220000e+01	   6.6880393e-01	   1.0126845e-01	
   3.3275000e+01	   4.0582632e-01	  -8.7574834e-03	
   3.3330000e+01	  -9.3582460e-02	   1.0310190e-01	
   3.3385000e+01	  -1.7400772e-01	   1.4565609e-02	
   3.3440000e+01	   1.7614195e-01	  -1.5236506e-01	
   3.3495000e+01	  -3.5521161e-01	  -1.2653624e-01	
   3.3550000e+01	  -4.3591182e-01	  -3.2441346e-01	
   3.3605000e+01	  -1.2569451e-01	  -1.5240460e-01	
   3.3660000e+01	  -1.4603137e-02	  -3.0672667e-01	
   3.3715000e+01	  -3.0578748e-01	  -2.5530413e-01	
   3.3770000e+01	  -2.2153190e-01	  -2.8646007e-01	
   3.3825000e+01	  -4.2416345e-01	  -4.5683912e-01	
   3.3880000e+01	  -1.6312665e-01	  -2.9062633e-01	
   3.3935000e+01	   2.4007367e-01	  -3.5234680e-01	
   3.3990000e+01	  -5.0575682e-01	  -3.4250655e-01	
   3.4045000e+01	   1.8250374e-01	  -1.6224484e-01	
   3.4100000e+01	   1.8657077e-01	  -2.8032921e-01	
   3.4155000e+01	  -1.2142298e-01	  -2.5190128e-01	
   3.4210000e+01	  -1.8390119e-01	  -3.8432275e-01	
   3.4265000e+01	  -3.0312719e-01	  -2.8143468e-01	
   3.4320000e+01	  -6.2449514e-01	  -4.7217500e-01	
   3.4375000e+01	  -1.2588670e+00	  -5.2295156e-01	
   3.4430000e+01	  -7.9121503e-01	  -5.1024430e-01	
   3.4485000e+01	  -3.9621825e-01	  -6.5978865e-01	
   3.4540000e+01	  -4.1349056e-01	  -2.6773066e-01	
   3.4595000e+01	  -2.9634151e-01	  -2.2519565e-01	
   3.4650000e+01	   5.0984057e-03	  -3.1948152e-01	
   3.4705000e+01	  -2.6057796e-01	  -2.7679890e-01	
   3.4760000e+01	  -4.3204562e-01	  -4.3051944e-01	
   3.4815000e+01	   2.3059847e-01	  -4.8768606e-01	
   3.4870000e+01	  -7.0038367e-03	  -2.8876385e-01	
   3.4925000e+01	  -3.4741844e-01	  -4.1087614e-01	
   3.4980000e+01	  -4.5211987e-01	  -6.4284013e-01	
   3.5035000e+01	  -6.0400536e-01	  -4.6163932e-01	
   3.5090000e+01	  -6.1148787e-01	  -7.6152537e-01	
   3.5145000e+01	  -7.2014925e-01	  -7.9207439e-01	
   3.5200000e+01	  -8.3931358e-01	  -5.0196391e-01	
   3.5255000e+01	  -7.9874342e-02	  -6.6292147e-01	
   3.5310000e+01	  -1.8783638e-01	  -5.2438995e-01	
   3.5365000e+01	  -5.8345731e-01	  -4.3221683e-01	
   3.5420000e+01	  -5.6578270e-01	  -4.9057821e-01	
   3.5475000e+01	  -3.0088159e-01	  -4.2420972e-01	
   3.5530000e+01	  -1.0070612e+00	  -6.0259347e-01	
   3.5585000e+01	  -4.8030173e-01	  -4.2649430e-01	
   3.5640000e+01	  -9.0339694e-01	  -7.9780789e-01	
   3.5695000e+01	  -1.3017226e+00	  -8.2736398e-01	
   3.5750000e+01	  -5.5556195e-01	  -7.5911643e-01	
   3.5805000e+01	  -3.8433839e-01	  -1.4823268e-01	
   3.5860000e+01	  -7.1261463e-01	  -6.3634748e-01	
   3.5915000e+01	  -7.4563020e-01	  -5.9992313e-01	
   3.5970000e+01	  -7.9981042e-01	  -5.1543311e-01	
   3.6025000e+01	  -5.3053562e-01	  -4.7709149e-01	
   3.6080000e+01	  -6.7965232e-01	  -4.6144524e-01	
   3.6135000e+01	  -8.8855104e-01	  -7.8903928e-01	
   3.6190000e+01	  -9.0726534e-01	  -4.3932790e-01	
   3.6245000e+01	  -9.2543229e-01	  -6.5022282e-01	
   3.6300000e+01	  -8.7772769e-01	  -7.2368128e-01	
   3.6355000e+01	  -9.9556468e-01	  -6.3884602e-01	
   3.6410000e+01	  -3.0009764e-01	  -2.2273378e-01	
   3.6465000e+01	   1.0081466e-01	  -1.2867934e-01	
   3.6520000e+01	  -1.2325154e-01	  -1.5940863e-01	
   3.6575000e+01	  -2.9869429e-01	  -3.8847951e-01	
   3.6630000e+01	   7.6737470e-02	   1.4520201e-01	
   3.6685000e+01	  -2.5457414e-01	  -1.2188982e-01	
   3.6740000e+01	  -6.8805129e-01	  -2.5650140e-01	
   3.6795000e+01	  -5.5217758e-01	  -3.2866816e-01	
   3.6850000e+01	  -4.7367427e-03	  -1.6036380e-01	
   3.6905000e+01	  -9.8682576e-02	  -1.2934825e-02	
   3.6960000e+01	   3.6259160e-01	  -8.6545890e-02	
   3.7015000e+01	  -6.4187326e-02	  -1.3176910e-01	
   3.7070000e+01	   8.4320739e-01	   3.4948202e-01	
   3.7125000e+01	   8.6512418e-01	   2.1282327e-01	
   3.7180000e+01	   5.1938778e-01	   1.5633440e-01	
   3.7235000e+01	   2.2089659e-01	   2.0822218e-01	
   3.7290000e+01	   8.2238033e-01	   3.0184104e-01	
   3.7345000e+01	   3.6006992e-01	   4.2924462e-01	
   3.7400000e+01	  -1.2106084e-01	  -1.6010025e-01	
   3.7455000e+01	   4.4837996e-01	   3.9894885e-02	
   3.7510000e+01	  -1.9912796e-01	   1.0503654e-01	
   3.7565000e+01	   3.8417378e-01	  -3.7758927e-02	
   3.7620000e+01	   5.1528305e-01	   3.3129171e-01	
   3.7675000e+01	   9.2739116e-01	   3.5520040e-01	
   3.7730000e+01	   8.9947402e-01	   5.4491646e-01	
   3.7785000e+01	   1.4575937e+00	   6.8510543e-01	
   3.7840000e+01	   9.7488347e-01	   2.6704599e-01	
   3.7895000e+01	   1.0072531e+00	   5.1342924e-01	
   3.7950000e+01	   1.3465112e+00	   6.1015222e-01	
   3.8005000e+01	   1.5819243e+00	   4.0618824e-01	
   3.8060000e+01	   1.3872091e+00	   4.4188486e-01	
   3.8115000e+01	   6.6158129e-01	   1.4170573e-01	
   3.8170000e+01	   3.9796223e-01	   2.3042289e-01	
   3.8225000e+01	   5.5038507e-01	   1.9429919e-01	
   3.8280000e+01	   2.9461550e-01	   1.6640463e-01	
   3.8335000e+01	   8.9297468e-01	   5.5284754e-01	
   3.8390000e+01	   1.2515134e+00	   5.5656892e-01	
   3.8445000e+01	   1.3531918e+00	   7.6844800e-01	
   3.8500000e+01	   1.1137200e+00	   5.9898356e-01	
   3.8555000e+01	   8.5822404e-01	   3.5117292e-01	
   3.8610000e+01	   1.3065860e+00	   8.0768464e-01	
   3.8665000e+01	   6.6380363e-01	   5.6077017e-01	
   3.8720000e+01	   9.2323031e-01	   5.9824838e-01	
   3.8775000e+01	   9.7094909e-01	   4.2285093e-01	
   3.8830000e+01	   1.0789928e+00	   6.2069627e-01	
   3.8885000e+01	   5.7659033e-01	   2.3610016e-01	
   3.8940000e+01	   1.5150650e-01	   1.7287272e-01	
   3.8995000e+01	  -1.4724612e-01	   2.4887792e-01	
   3.9050000e+01	   7.3279151e-01	   1.3075623e-01	
   3.9105000e+01	   1.4393961e+00	   5.8015891e-01	
   3.9160000e+01	   1.0639227e+00	   5.2760359e-01	
   3.9215000e+01	   1.6173294e+00	   6.1488213e-01	
   3.9270000e+01	   1.7834260e+00	   9.2569468e-01	
   3.9325000e+01	   1.0494904e+00	   4.3725487e-01	
   3.9380000e+01	   1.0255709e+00	   6.9122292e-01	
   3.9435000e+01	   1.2410162e+00	   6.2917298e-01	
   3.9490000e+01	   1.4150133e+00	   5.8783627e-01	
   3.9545000e+01	   9.1081638e-01	   4.8227279e-01	
   3.9600000e+01	   8.7693871e-01	   2.8767405e-01	
   3.9655000e+01	   4.5420917e-01	   3.3673270e-01	
   3.9710000e+01	   1.9902885e-01	   2.5095080e-01	
   3.9765000e+01	   7.2365294e-01	   5.7718385e-01	
   3.9820000e+01	   6.5700388e-01	   3.1132960e-01	
   3.9875000e+01	   8.5137557e-01	   6.6638016e-01	
   3.9930000e+01	   1.3331641e+00	   5.9444132e-01	
   3.9985000e+01	   1.3210459e+00	   6.0469344e-01	
   4.0040000e+01	   1.1073101e+00	   4.5635104e-01	
   4.0095000e+01	   8.5971974e-01	   5.6762331e-01	
   4.0150000e+01	   1.5312448e+00	   5.0027414e-01	
   4.0205000e+01	   9.8632282e-01	   5.1356677e-01	
   4.0260000e+01	   1.0779148e+00	   4.3093969e-01	
   4.0315000e+01	   1.1982557e+00	   4.0899020e-01	
   4.0370000e+01	   5.6270764e-01	   1.2060951e-01	
   4.0425000e+01	   7.7969524e-01	   2.3187679e-01	
   4.0480000e+01	   3.5445046e-01	   2.4737841e-01	
   4.0535000e+01	   2.8454178e-01	   1.1442475e-01	
   4.0590000e+01	   8.0565385e-01	   4.3783412e-01	
   4.0645000e+01	   1.2586442e+00	   3.8628000e-01	
   4.0700000e+01	   6.2313849e-01	   2.7483707e-01	
   4.0755000e+01	   9.3793952e-01	   2.8842845e-01	
   4.0810000e+01	   6.4874557e-01	   4.6052174e-01	
   4.0865000e+01	   6.0129157e-01	   4.0500626e-01	
   4.0920000e+01	   6.1143880e-01	   3.1097329e-01	
   4.0975000e+01	   5.8715652e-01	   3.9195304e-01	
   4.1030000e+01	   1.4048506e-01	   9.1452587e-02	
   4.1085000e+01	   3.7799248e-01	   2.6049923e-01	
   4.1140000e+01	  -7.9822709e-01	  -3.6491140e-01	
   4.1195000e+01	   7.2938663e-01	   1.9834025e-01	
   4.1250000e+01	   1.1720048e+00	   4.5423209e-01	
   4.1305000e+01	   8.6880260e-01	   4.0962490e-01	
   4.1360000e+01	   6.5155419e-01	   1.3921382e-01	
   4.1415000e+01	   6.7119111e-01	   1.0401862e-01	
   4.1470000e+01	   8.7795519e-01	   6.0696453e-01	
   4.1525000e+01	   1.0934929e+00	   2.1674402e-01	
   4.1580000e+01	   2.5738946e-01	   1.0559633e-01	
   4.1635000e+01	   2.5196018e-01	  -1.9441547e-02	
   4.1690000e+01	   2.7553256e-01	   2.0578473e-01	
   4.1745000e+01	  -1.8648412e-01	  -8.9815204e-02	
   4.1800000e+01	  -1.7655967e-01	  -2.6585642e-01	
   4.1855000e+01	   4.0384715e-01	   2.0460529e-01	
   4.1910000e+01	   4.2965420e-01	   4.9644387e-01	
   4.1965000e+01	   7.6817404e-01	   3.7151064e-01	
   4.2020000e+01	   7.8046066e-01	   4.8774343e-01	
   4.2075000e+01	   9.3238403e-01	   2.6697866e-01	
   4.2130000e+01	   7.6855224e-01	   4.3067536e-01	
   4.2185000e+01	   8.4153462e-01	   5.8541314e-01	
   4.2240000e+01	   4.5826847e-01	   3.4964436e-01	
   4.2295000e+01	   8.3536771e-01	   3.5628514e-01	
   4.2350000e+01	   4.3337499e-01	   3.4000288e-01	
   4.2405000e+01	   3.3116794e-01	   3.5701437e-01	
   4.2460000e+01	   6.6059217e-02	  -1.7539445e-01	
   4.2515000e+01	   7.7752015e-01	   4.0198367e-01	
   4.2570000e+01	   9.8385623e-01	   6.9664602e-01	
   4.2625000e+01	   1.1744545e+00	   7.0455549e-01	
   4.2680000e+01	   1.1815110e+00	   6.3549141e-01	
   4.2735000e+01	   7.8491352e-01	   6.1956549e-01	
   4.2790000e+01	   9.2324183e-01	   6.3416029e-01	
   4.2845000e+01	   8.1290276e-01	   4.7820199e-01	
   4.2900000e+01	   6.3608381e-01	   4.5994535e-01	
   4.2955000e+01	   5.1361942e-01	   4.2922958e-01	
   4.3010000e+01	   1.0805853e+00	   6.2525423e-01	
   4.3065000e+01	   7.5494931e-01	   2.4362487e-01	
   4.3120000e+01	   2.0923898e-01	  -4.8175517e-03	
   4.3175000e+01	   2.9933815e-01	   1.4632035e-01	
   4.3230000e+01	   1.2417029e+00	   7.2136629e-01	
   4.3285000e+01	   1.2236199e+00	   6.5514592e-01	
   4.3340000e+01	   1.2934718e+00	   8.9712904e-01	
   4.3395000e+01	   6.2556354e-01	   4.4600800e-01	
   4.3450000e+01	   1.5886247e+00	   7.8232091e-01	
   4.3505000e+01	   1.4775176e+00	   5.7162456e-01	
   4.3560000e+01	   7.9002708e-01	   8.2647427e-01	
   4.3615000e+01	   3.0097988e-01	   2.8695871e-01	
   4.3670000e+01	   7.2582298e-01	   6.8404157e-01	
   4.3725000e+01	   7.1070860e-01	   2.9919203e-01	
   4.3780000e+01	   4.3571356e-01	   1.5176263e-01	
   4.3835000e+01	   1.6991441e-01	  -1.2049849e-01	
   4.3890000e+01	   1.2833970e+00	   7.3416848e-01	
   4.3945000e+01	   1.0434684e+00	   8.2194340e-01	
   4.4000000e+01	   9.8831143e-01	   6.6068326e-01	
   4.4055000e+01	   1.1083347e+00	   8.4552684e-01	
   4.4110000e+01	   9.8340141e-01	   8.8474533e-01	
   4.4165000e+01	   1.0677365e+00	   7.6304312e-01	
   4.4220000e+01	   9.0471737e-01	   5.8975509e-01	
   4.4275000e+01	   8.0195541e-01	   6.5708305e-01	
   4.4330000e+01	   6.3485776e-01	   4.5339791e-01	
   4.4385000e+01	   9.6969285e-01	   5.3925684e-01	
   4.4440000e+01	   7.0193497e-01	   4.1216737e-01	
   4.4495000e+01	   6.8245334e-01	   2.7015686e-01	
   4.4550000e+01	   6.7645732e-01	   5.2726480e-01	
   4.4605000e+01	   1.1040569e+00	   4.7056417e-01	
   4.4660000e+01	   1.1349478e+00	   6.5104511e-01	
   4.4715000e+01	   1.0750895e+00	   5.1742172e-01	
   4.4770000e+01	   1.0850319e+00	   5.9754637e-01	
   4.4825000e+01	   9.1731873e-01	   5.7482374e-01	
   4.4880000e+01	   1.1755518e+00	   6.4397124e-01	
   4.4935000e+01	   4.7721168e-01	   5.8969983e-01	
   4.4990000e+01	   8.8452106e-01	   4.3545446e-01	
   4.5045000e+01	   8.4789329e-01	   6.2665122e-01	
   4.5100000e+01	   3.0343255e-01	   4.2462483e-01	
   4.5155000e+01	   3.5642817e-01	   4.1147702e-01	
   4.5210000e+01	   2.1622821e-01	   2.4955149e-01	
   4.5265000e+01	   8.0331723e-01	   4.4131293e-01	
   4.5320000e+01	   5.7912727e-01	   6.2633264e-01	
   4.5375000e+01	   6.5959847e-01	   6.2501578e-01	
   4.5430000e+01	   1.1599989e+00	   7.5866391e-01	
   4.5485000e+01	   1.2235213e+00	   7.0766437e-01	
   4.5540000e+01	   6.0565492e-01	   6.1958105e-01	
   4.5595000e+01	   7.5966096e-01	   5.4878788e-01	
   4.5650000e+01	   6.8550380e-01	   6.0850539e-01	
   4.5705000e+01	   6.2596663e-01	   3.5748259e-01	
   4.5760000e+01	   3.8818312e-01	   1.2422717e-01	
   4.5815000e+01	   5.0123277e-01	   1.6295654e-01	
   4.5870000e+01	   1.2789867e-01	  -9.2849869e-02	
   4.5925000e+01	   1.1552776e+00	   2.9474786e-01	
   4.5980000e+01	   5.0672035e-01	   4.0545780e-01	
   4.6035000e+01	   1.1368194e+00	   6.9723461e-01	
   4.6090000e+01	   9.4669700e-01	   6.8562709e-01	
   4.6145000e+01	   1.1357684e+00	   5.1911405e-01	
   4.6200000e+01	   8.6795849e-01	   5.6446899e-01	
   4.6255000e+01	   5.2805906e-01	   3.5522938e-01	
   4.6310000e+01	   9.6450341e-01	   3.4333577e-01	
   4.6365000e+01	   1.6200663e-01	   4.7599374e-01	
   4.6420000e+01	  -5.3789313e-02	   1.4544543e-01	
   4.6475000e+01	   2.5359676e-01	   3.4897626e-02	
   4.6530000e+01	   5.0633018e-01	   3.3159538e-02	
   4.6585000e+01	   4.4370883e-01	   3.1750095e-01	
   4.6640000e+01	   8.2901513e-01	   4.9019144e-01	
   4.6695000e+01	   8.2895742e-01	   6.7238511e-01	
   4.6750000e+01	   1.1563678e+00	   7.1903196e-01	
   4.6805000e+01	   1.4516255e+00	   1.1357315e+00	
   4.6860000e+01	   1.1952596e+00	   8.7465990e-01	
   4.6915000e+01	   8.2830166e-01	   5.4798162e-01	
   4.6970000e+01	   1.1662363e+00	   7.1615197e-01	
   4.7025000e+01	   1.3617368e+00	   4.5025453e-01	
   4.7080000e+01	   5.3938279e-03	   4.0818075e-01	
   4.7135000e+01	   6.2873211e-01	   2.3330665e-01	
   4.7190000e+01	   6.0535720e-01	   3.9581065e-01	
   4.7245000e+01	   2.6167602e-01	   2.8268932e-01	
   4.7300000e+01	   9.0930371e-01	   6.4442792e-01	
   4.7355000e+01	   4.8788226e-01	   5.9219641e-01	
   4.7410000e+01	   8.1539048e-01	   8.3141780e-01	
   4.7465000e+01	   1.5893408e+00	   8.6370534e-01	
   4.7520000e+01	   1.1112377e+00	   7.2293247e-01	
   4.7575000e+01	   1.1628793e+00	   5.9607767e-01	
   4.7630000e+01	   1.3060037e+00	   5.2914878e-01	
   4.7685000e+01	   1.4134128e+00	   1.0243206e+00	
   4.7740000e+01	   5.4160959e-01	   4.6824423e-01	
   4.7795000e+01	   5.9500549e-01	   4.7988591e-01	
   4.7850000e+01	   5.0317750e-01	   6.6638893e-01	
   4.7905000e+01	   8.2434061e-01	   5.4882669e-01	
   4.7960000e+01	   3.6226798e-02	  -1.4905216e-01	
   4.8015000e+01	   1.5393601e-01	  -3.7060353e-02	
   4.8070000e+01	   9.7874266e-01	   6.5967316e-01	
   4.8125000e+01	   1.0304276e+00	   8.0217549e-01	
   4.8180000e+01	   9.6659676e-01	   7.5919117e-01	
   4.8235000e+01	   1.5155237e+00	   6.1015558e-01	
   4.8290000e+01	   1.5085818e+00	   8.1731949e-01	
   4.8345000e+01	   1.1203391e+00	   7.5194198e-01	
   4.8400000e+01	   7.0832313e-01	   3.7264587e-01	
   4.8455000e+01	   6.5858974e-01	   2.8973664e-01	
   4.8510000e+01	   6.6628998e-01	   6.1704476e-01	
   4.8565000e+01	   8.5175380e-01	   5.1403724e-01	
   4.8620000e+01	   4.4818491e-01	   2.2574910e-01	
   4.8675000e+01	   4.0645642e-01	   2.7569609e-01	
   4.8730000e+01	  -1.7233384e-01	   1.4842084e-01	
   4.8785000e+01	   5.0833003e-02	   2.0085807e-02	
   4.8840000e+01	   9.3743330e-01	   4.4108613e-01	
   4.8895000e+01	   1.0295818e+00	   5.8717596e-01	
   4.8950000e+01	   6.3092727e-01	   4.8851036e-01	
   4.9005000e+01	   1.0841264e+00	   6.0687028e-01	
   4.9060000e+01	   1.2442404e+00	   4.8702131e-01	
   4.9115000e+01	   3.8506959e-01	   4.8616557e-01	
   4.9170000e+01	   6.4589194e-01	   3.9204916e-01	
   4.9225000e+01	   5.8000830e-01	   4.0591925e-01	
   4.9280000e+01	   3.7862950e-01	   2.3869849e-01	
   4.9335000e+01	  -3.7894115e-01	   8.8699000e-02	
   4.9390000e+01	   1.2280788e-01	   1.7476071e-01	
   4.9445000e+01	  -1.1491466e-01	  -1.1336806e-02	
   4.9500000e+01	  -3.4409873e-01	  -9.6961714e-02	
   4.9555000e+01	  -1.6391364e-01	   1.4669836e-01	
   4.9610000e+01	   3.6089811e-01	   2.9276940e-01	
   4.9665000e+01	   1.0567564e+00	   2.1443984e-01	
   4.9720000e+01	   6.2472221e-01	   5.1346607e-01	
   4.9775000e+01	   2.3226905e-01	   2.1419354e-01	
   4.9830000e+01	   3.8305569e-01	   2.2472195e-01	
   4.9885000e+01	   5.5096024e-01	   3.0029374e-01	
   4.9940000e+01	   8.2264394e-01	   3.5321058e-01	
   4.9995000e+01	  -1.3318679e-01	  -9.7326709e-02	
   5.0050000e+01	  -2.1561008e-02	  -2.3561516e-02	
   5.0105000e+01	  -2.0707995e-01	   4.3947274e-02	
   5.0160000e+01	   3.3089705e-01	  -1.0444002e-01	
   5.0215000e+01	  -1.9488637e-01	  -1.1226578e-01	
   5.0270000e+01	   4.7502348e-01	   5.5651345e-02	
   5.0325000e+01	   5.3056556e-01	   3.0107427e-01	
   5.0380000e+01	  -2.0507336e-02	   3.0498371e-01	
   5.0435000e+01	  -1.0859323e-02	   7.7182499e-02	
   5.0490000e+01	   1.1229192e-01	   2.6708187e-01	
   5.0545000e+01	   3.1430985e-01	   2.4012859e-01	
   5.0600000e+01	  -2.2565950e-01	  -1.3570080e-01	
   5.0655000e+01	   6.4230614e-02	  -2.6053231e-01	
   5.0710000e+01	  -2.0545179e-01	  -1.7539445e-01	
   5.0765000e+01	  -4.3861435e-01	  -7.8195176e-02	
   5.0820000e+01	  -3.6937297e-01	  -1.8354135e-01	
   5.0875000e+01	  -5.3745917e-03	  -3.5595176e-02	
   5.0930000e+01	  -7.3315592e-02	   3.0711932e-01	
   5.0985000e+01	  -6.2741710e-02	   2.0549054e-01	
   5.1040000e+01	   2.2125853e-01	   2.8652295e-01	
   5.1095000e+01	   3.9580367e-02	   9.5384950e-02	
   5.1150000e+01	   1.4454007e-01	   3.1841064e-01	
   5.1205000e+01	   2.7125156e-01	   1.7960256e-01	
   5.1260000e+01	   2.6760698e-01	   3.2727737e-01	
   5.1315000e+01	   2.5701342e-02	   1.9403590e-01	
   5.1370000e+01	   4.2375505e-01	   1.1572944e-01	
   5.1425000e+01	   7.7918674e-02	  -4.2808456e-02	
   5.1480000e+01	   7.1431295e-02	  -6.2223981e-02	
   5.1535000e+01	  -4.7449909e-01	  -1.4961718e-01	
   5.1590000e+01	   7.3097360e-02	   1.6670957e-01	
   5.1645000e+01	   1.1259702e+00	   5.4495449e-01	
   5.1700000e+01	   8.9710974e-01	   5.2758275e-01	
   5.1755000e+01	   7.4018188e-01	   3.0361872e-01	
   5.1810000e+01	   5.5206136e-01	   1.3700526e-01	
   5.1865000e+01	   7.8028739e-01	   3.8993018e-01	
   5.1920000e+01	   9.6358035e-01	   4.2429918e-01	
   5.1975000e+01	   4.9998245e-01	   2.4962478e-01	
   5.2030000e+01	   8.5177022e-02	   1.8066325e-01	
   5.2085000e+01	   4.2215680e-01	   3.5428497e-01	
   5.2140000e+01	   2.5805634e-01	   2.5762579e-01	
   5.2195000e+01	   6.6029994e-02	   1.4276896e-01	
   5.2250000e+01	   2.5900937e-01	  -9.6618785e-04	
   5.2305000e+01	   9.4775791e-01	   6.0854998e-01	
   5.2360000e+01	   1.1450239e+00	   5.7007375e-01	
   5.2415000e+01	   1.3936205e+00	   5.3915342e-01	
   5.2470000e+01	   1.1100925e+00	   7.2234359e-01	
   5.2525000e+01	   1.0247081e+00	   9.4230784e-01	
   5.2580000e+01	   5.6090155e-01	   6.1962277e-01	
   5.2635000e+01	   4.3252772e-01	   4.9942855e-01	
   5.2690000e+01	   4.3450945e-01	   2.9429994e-01	
   5.2745000e+01	   1.1679695e-01	   4.1426573e-01	
   5.2800000e+01	   8.1480027e-01	   5.4084680e-01	
   5.2855000e+01	  -2.0323183e-02	   3.7716668e-01	
   5.2910000e+01	   9.8030977e-02	   2.7384163e-01	
   5.2965000e+01	   4.1567594e-01	   2.0994032e-01	
   5.3020000e+01	   1.3423931e+00	   7.4298322e-01	
   5.3075000e+01	   6.8312684e-01	   6.4085800e-01	
   5.3130000e+01	   9.9021240e-01	   6.6860614e-01	
   5.3185000e+01	   1.3036699e+00	   6.7180901e-01	
   5.3240000e+01	   6.7310306e-01	   6.7877951e-01	
   5.3295000e+01	   1.1790451e+00	   6.3775854e-01	
   5.3350000e+01	   5.7897276e-01	   4.1144788e-01	
   5.3405000e+01	   8.9571302e-01	   5.1704446e-01	
   5.3460000e+01	   5.5256546e-01	   6.5248040e-01	
   5.3515000e+01	   8.4122645e-01	   4.0749601e-01	
   5.3570000e+01	   3.2286424e-01	   2.7009019e-01	
   5.3625000e+01	   4.9703024e-02	   3.4775777e-01	
   5.3680000e+01	   1.0636848e+00	   4.8781002e-01	
   5.3735000e+01	   7.7140052e-01	   6.2105097e-01	
   5.3790000e+01	   8.7446543e-01	   5.2543852e-01	
   5.3845000e+01	   1.0276043e+00	   6.1635638e-01	
   5.3900000e+01	   6.3174210e-01	   6.2954783e-01	
   5.3955000e+01	   7.5419460e-01	   6.1635638e-01	
   5.4010000e+01	   2.7203729e-01	   3.3731169e-01	
   5.4065000e+01	   5.8052828e-01	   3.7324357e-01	
   5.4120000e+01	   5.4288309e-01	   4.3701584e-01	
   5.4175000e+01	   5.3543312e-01	   4.6254557e-01	
   5.4230000e+01	  -4.9006828e-01	   1.5978486e-01	
   5.4285000e+01	   1.5144141e-01	   3.8252104e-01	
   5.4340000e+01	   9.5707749e-01	   8.1777028e-01	
   5.4395000e+01	   7.0985138e-01	   4.3514189e-01	
   5.4450000e+01	   3.8220688e-01	   6.1011027e-01	
   5.4505000e+01	   6.2452432e-01	   4.1637156e-01	
   5.4560000e+01	   8.0191659e-01	   6.1684430e-01	
   5.4615000e+01	   2.1921981e-01	   5.7992696e-01	
   5.4670000e+01	   7.4588239e-02	   4.0117432e-01	
   5.4725000e+01	   2.7245370e-01	   5.1811835e-01	
   5.4780000e+01	   1.5646203e-01	   4.1446685e-01	
   5.4835000e+01	  -2.8689943e-01	   4.0968759e-02	
   5.4890000e+01	  -1.9069832e-01	   1.8670504e-01	
   5.4945000e+01	   1.0925973e-01	   2.1906879e-01	
   5.5000000e+01	   9.1165044e-01	   7.2848730e-01	
   5.5055000e+01	   8.0251580e-01	   5.8030572e-01	
   5.5110000e+01	   4.0360949e-01	   6.1117320e-01	
   5.5165000e+01	   9.8664472e-01	   6.4115136e-01	
   5.5220000e+01	   8.4962497e-01	   4.2154133e-01	
   5.5275000e+01	   7.1708434e-01	   7.0991624e-01	
   5.5330000e+01	   7.0925209e-02	   3.7014083e-01	
   5.5385000e+01	   2.4257500e-01	   6.6355159e-01	
   5.5440000e+01	   3.6363753e-01	   4.6743085e-01	
   5.5495000e+01	   4.7550476e-01	   4.3544256e-01	
   5.5550000e+01	  -9.8386934e-03	   5.8137941e-01	
   5.5605000e+01	   2.4781344e-01	   3.9809707e-01	
   5.5660000e+01	   8.9530375e-01	   7.6547287e-01	
   5.5715000e+01	   1.3229292e+00	   9.9475752e-01	
   5.5770000e+01	   9.3851262e-01	   8.1107244e-01	
   5.5825000e+01	   8.9487425e-01	   1.0115970e+00	
   5.5880000e+01	   1.3591777e+00	   9.6580082e-01	
   5.5935000e+01	   7.6786788e-01	   1.0139839e+00	
   5.5990000e+01	   6.3993033e-01	   8.5538537e-01	
   5.6045000e+01	   9.2082738e-01	   7.3866890e-01	
   5.6100000e+01	   8.9595522e-01	   5.7008144e-01	
   5.6155000e+01	   4.3744574e-01	   5.9480229e-01	
   5.6210000e+01	   1.5776967e-01	   4.9630533e-01	
   5.6265000e+01	   2.3916006e-01	   5.6188638e-01	
   5.6320000e+01	   7.8884117e-01	   8.6064378e-01	
   5.6375000e+01	   5.1008280e-01	   5.8643296e-01	
   5.6430000e+01	   1.2594226e+00	   1.1363160e+00	
   5.6485000e+01	   8.0931307e-01	   9.5038569e-01	
   5.6540000e+01	   1.0232650e+00	   9.5272880e-01	
   5.6595000e+01	   9.8023797e-01	   9.1441120e-01	
   5.6650000e+01	   6.8193824e-01	   6.5832066e-01	
   5.6705000e+01	   6.3158132e-01	   8.5220886e-01	
   5.6760000e+01	   7.3796397e-01	   8.0683476e-01	
   5.6815000e+01	   7.2492868e-01	   5.9735728e-01	
   5.6870000e+01	   3.6857632e-01	   4.8926426e-01	
   5.6925000e+01	   4.0271197e-01	   1.9925857e-01	
   5.6980000e+01	   7.4813292e-01	   7.5274201e-01	
   5.7035000e+01	   4.0964232e-01	   7.2801944e-01	
   5.7090000e+01	   8.1478271e-01	   7.2631797e-01	
   5.7145000e+01	   5.6455508e-01	   9.3822351e-01	
   5.7200000e+01	   1.2055994e+00	   9.9416916e-01	
   5.7255000e+01	   1.1061704e+00	   9.2054210e-01	
   5.7310000e+01	   6.8578496e-01	   7.1382788e-01	
   5.7365000e+01	   1.2640961e+00	   8.3313035e-01	
   5.7420000e+01	   5.2855197e-01	   8.3170567e-01	
   5.7475000e+01	   7.5452110e-01	   5.3551926e-01	
   5.7530000e+01	   4.6247586e-01	   6.5471485e-01	
   5.7585000e+01	   3.2304943e-01	   4.1933170e-01	
   5.7640000e+01	  -6.0904303e-02	   5.2156532e-01	
   5.7695000e+01	   4.7742477e-01	   7.6236812e-01	
   5.7750000e+01	   6.7543310e-01	   8.9927075e-01	
   5.7805000e+01	   6.2521375e-01	   7.1849167e-01	
   5.7860000e+01	   5.1199584e-01	   7.2466139e-01	
   5.7915000e+01	   1.0035141e+00	   7.9945063e-01	
   5.7970000e+01	   6.6970837e-01	   7.7471093e-01	
   5.8025000e+01	  -4.0442361e-02	   5.4197650e-01	
   5.8080000e+01	   5.3609664e-01	   6.6077953e-01	
   5.8135000e+01	   2.8588411e-03	   5.3787561e-01	
   5.8190000e+01	   3.5026092e-02	   3.2170599e-01	
   5.8245000e+01	   2.2986173e-02	   1.1903728e-01	
   5.8300000e+01	   1.6918951e-01	   3.5001767e-01	
   5.8355000e+01	   4.3665367e-01	   5.9189643e-01	
   5.8410000e+01	   8.7927183e-01	   6.1488938e-01	
   5.8465000e+01	   4.6851214e-01	   5.2469711e-01	
   5.8520000e+01	   4.0292059e-01	   5.8581419e-01	
   5.8575000e+01	   3.1482478e-01	   7.4074790e-01	
   5.8630000e+01	   2.6251405e-01	   4.0068547e-01	
   5.8685000e+01	   2.6328672e-01	   6.2544527e-01	
   5.8740000e+01	   3.1994182e-01	   3.2485341e-01	
   5.8795000e+01	   2.4984874e-01	   4.8753621e-01	
   5.8850000e+01	  -5.2562357e-01	   1.0680653e-01	
   5.8905000e+01	  -2.8729955e-01	   1.4752629e-01	
   5.8960000e+01	   3.2029206e-02	   4.6585299e-01	
   5.9015000e+01	   3.3859797e-01	   6.1558797e-01	
   5.9070000e+01	   4.1911566e-01	   7.8980174e-01	
   5.9125000e+01	   7.3662496e-01	   7.4586551e-01	
   5.9180000e+01	  -2.4744940e-02	   5.3405836e-01	
   5.9235000e+01	   6.2314359e-01	   6.2098809e-01	
   5.9290000e+01	   4.1947698e-01	   3.7801296e-01	
   5.9345000e+01	   1.3222883e-01	   4.6062530e-01	
   5.9400000e+01	  -8.9289420e-02	   3.9581764e-01	
   5.9455000e+01	  -5.8635741e-02	   3.2758577e-01	
   5.9510000e+01	  -2.7749867e-01	   1.7116249e-01	
   5.9565000e+01	  -4.8581156e-01	   2.0035476e-01	
   5.9620000e+01	   4.1810960e-01	   6.5943563e-01	
   5.9675000e+01	   8.5049815e-01	   6.1016508e-01	
   5.9730000e+01	   8.4063829e-01	   6.5697366e-01	
   5.9785000e+01	   2.2269394e-01	   5.5330596e-01	
   5.9840000e+01	   5.8215563e-01	   7.3719576e-01	
   5.9895000e+01	   7.1388817e-01	   4.3897725e-01	
   5.9950000e+01	   7.2336035e-01	   3.7693323e-01	
   6.0005000e+01	   3.0190642e-01	   5.1058649e-01	
   6.0060000e+01	   1.4514750e-01	   4.7436968e-02	
   6.0115000e+01	   3.1917735e-01	   2.6587229e-01	
   6.0170000e+01	  -5.4915510e-01	  -3.6822229e-03	
   6.0225000e+01	   2.4402345e-01	   8.0292693e-02	
   6.0280000e+01	   3.7933712e-02	   3.3916043e-01	
   6.0335000e+01	   1.0548808e+00	   7.5006469e-01	
   6.0390000e+01	   7.5049256e-01	   8.2706516e-01	
   6.0445000e+01	   6.8483146e-01	   6.1022708e-01	
   6.0500000e+01	   9.7590365e-01	   5.0887386e-01	
   6.0555000e+01	   8.8648212e-01	   8.5003679e-01	
   6.0610000e+01	   5.0803957e-01	   7.5134635e-01	
   6.0665000e+01	   4.7781177e-01	   3.7982561e-01	
   6.0720000e+01	   6.2783364e-01	   3.6840354e-01	
   6.0775000e+01	   4.0672521e-01	   3.1003652e-01	
   6.0830000e+01	   2.3306051e-01	   5.7885037e-02	
   6.0885000e+01	   2.5769488e-01	   2.0679158e-01	
   6.0940000e+01	  -1.4825259e-01	   1.0673586e-01	
   6.0995000e+01	   3.5395897e-01	   2.9361613e-01	
   6.1050000e+01	   7.4010352e-01	   3.7780527e-01	
   6.1105000e+01	   3.9642041e-01	   4.2656625e-01	
   6.1160000e+01	   9.8826883e-01	   6.5582916e-01	
   6.1215000e+01	   7.8741071e-01	   6.1884726e-01	
   6.1270000e+01	   6.4587101e-01	   4.6492328e-01	
   6.1325000e+01	   3.3543625e-01	   5.1834622e-01	
   6.1380000e+01	   8.2562955e-01	   3.7879023e-01	
   6.1435000e+01	   3.8907090e-01	   4.5977110e-01	
   6.1490000e+01	   4.5690656e-02	   1.8099623e-01	
   6.1545000e+01	  -7.0826786e-02	   4.4855149e-01	
   6.1600000e+01	   2.6314389e-01	   3.4206496e-02	
   6.1655000e+01	   3.9883928e-01	   1.7152067e-01	
   6.1710000e+01	   5.1725651e-01	   4.3148321e-01	
   6.1765000e+01	   3.7145525e-01	   4.2607340e-01	
   6.1820000e+01	   5.9348921e-01	   4.9399074e-01	
   6.1875000e+01	   6.8035311e-01	   6.2625419e-01	
   6.1930000e+01	   2.9883968e-01	   6.9480001e-01	
   6.1985000e+01	   5.6439136e-02	   4.3082365e-01	
   6.2040000e+01	   2.1224586e-01	   2.5106713e-01	
   6.2095000e+01	   3.7781859e-01	   2.5054412e-01	
   6.2150000e+01	   1.8757835e-03	   2.1280183e-01	
   6.2205000e+01	  -2.2548808e-01	   2.5051101e-02	
   6.2260000e+01	   1.7217749e-01	   1.0186954e-01	
   6.2315000e+01	   5.3139085e-01	   6.2051307e-01	
   6.2370000e+01	   4.5364734e-01	   4.4614663e-01	
   6.2425000e+01	   7.7469943e-01	   2.1847986e-01	
   6.2480000e+01	   5.9425370e-01	   3.8136462e-01	
   6.2535000e+01	   4.3068271e-01	   5.3710020e-01	
   6.2590000e+01	   6.4132749e-01	   5.8799119e-01	
   6.2645000e+01	   5.8917146e-01	   2.3736040e-01	
   6.2700000e+01	  -8.1702642e-02	   2.1783834e-01	
   6.2755000e+01	   2.4809969e-01	   4.0422950e-01	
   6.2810000e+01	   5.6639088e-01	   1.6142424e-01	
   6.2865000e+01	  -7.5869815e-02	  -3.9871192e-02	
   6.2920000e+01	   3.1292898e-02	   7.2036824e-02	
   6.2975000e+01	   7.5526049e-01	   5.8507686e-01	
   6.3030000e+01	   1.1605002e+00	   5.1117175e-01	
   6.3085000e+01	   3.3278781e-01	   3.3087262e-01	
   6.3140000e+01	   6.4647200e-01	   5.1801368e-01	
   6.3195000e+01	   8.5003569e-01	   6.7389292e-01	
   6.3250000e+01	   1.0494318e+00	   6.0928552e-01	
   6.3305000e+01	   7.2713389e-01	   4.3833327e-01	
   6.3360000e+01	   3.7948488e-01	   3.3901649e-01	
   6.3415000e+01	   5.3256815e-01	   5.9524404e-01	
   6.3470000e+01	   6.1288028e-01	   2.6197623e-01	
   6.3525000e+01	  -2.3152696e-01	   3.2818447e-02	
   6.3580000e+01	   3.3650905e-01	   2.6412995e-01	
   6.3635000e+01	   6.9249371e-01	   4.9398543e-01	
   6.3690000e+01	   1.1480394e+00	   4.6728416e-01	
   6.3745000e+01	   8.8246921e-01	   7.0926255e-01	
   6.3800000e+01	   8.0605703e-01	   6.7013021e-01	
   6.3855000e+01	   9.0767967e-01	   8.0802947e-01	
   6.3910000e+01	   1.3825986e+00	   7.6148839e-01	
   6.3965000e+01	   1.1086328e+00	   5.3890302e-01	
   6.4020000e+01	   1.1266918e+00	   3.5857353e-01	
   6.4075000e+01	   6.8754718e-01	   5.5634541e-01	
   6.4130000e+01	   3.2898331e-01	   3.6859618e-01	
   6.4185000e+01	   4.5978051e-01	   3.3618689e-01	
   6.4240000e+01	   2.9385241e-01	   3.8099859e-02	
   6.4295000e+01	   2.6807392e-01	  -2.9194845e-02	
   6.4350000e+01	   1.0761112e+00	   4.7465215e-01	
   6.4405000e+01	   1.1012027e+00	   4.5565060e-01	
   6.4460000e+01	   7.7496444e-01	   5.2786770e-01	
   6.4515000e+01	   1.2958795e+00	   6.0229916e-01	
   6.4570000e+01	   1.5531426e+00	   6.6036089e-01	
   6.4625000e+01	   1.2893572e+00	   7.6756035e-01	
   6.4680000e+01	   8.2352162e-01	   5.2918505e-01	
   6.4735000e+01	   8.4526187e-01	   5.5508590e-01	
   6.4790000e+01	   9.5237277e-01	   2.6205362e-01	
   6.4845000e+01	   5.3489549e-01	   7.3952247e-02	
   6.4900000e+01	   5.8303470e-01	   2.4870219e-01	
   6.4955000e+01	   8.2232969e-01	   5.3965147e-04	
   6.5010000e+01	   2.6134650e-01	   1.7602465e-01	
   6.5065000e+01	   4.2735594e-01	   1.8236285e-01	
   6.5120000e+01	   3.9174278e-01	   4.1911962e-01	
   6.5175000e+01	   1.6066333e+00	   5.3388974e-01	
   6.5230000e+01	   7.9185215e-01	   4.7759253e-01	
   6.5285000e+01	   6.5823706e-01	   4.5103246e-01	
   6.5340000e+01	   3.2417646e-01	   3.6791340e-01	
   6.5395000e+01	   4.3452781e-01	   2.5403391e-01	
   6.5450000e+01	   4.0976701e-01	   5.4916782e-02	
   6.5505000e+01	   5.9772406e-01	   1.4720211e-01	
   6.5560000e+01	  -7.2902560e-02	  -1.2856171e-01	
   6.5615000e+01	  -4.6000372e-01	   1.9405015e-02	
   6.5670000e+01	   5.5820021e-01	  -4.1016733e-02	
   6.5725000e+01	   5.5532628e-01	   1.0047090e-01	
   6.5780000e+01	   9.1890577e-01	   4.6287597e-01	
   6.5835000e+01	   4.4765616e-01	   2.6896332e-01	
   6.5890000e+01	   1.1079065e+00	   2.7547755e-01	
   6.5945000e+01	   9.4528513e-01	   3.5395190e-01	
   6.6000000e+01	   3.3806406e-01	   2.0201096e-02	
   6.6055000e+01	   7.6872093e-01	   1.5814920e-01	
   6.6110000e+01	   5.1800355e-01	   8.1737474e-02	
   6.6165000e+01	   7.5918871e-02	  -2.9926326e-01	
   6.6220000e+01	   4.9706718e-01	  -2.4479874e-04	
   6.6275000e+01	  -3.5817533e-02	  -2.8375679e-01	
   6.6330000e+01	   2.8528626e-01	  -9.9015785e-03	
   6.6385000e+01	   9.0621909e-02	  -1.3147904e-02	
   6.6440000e+01	   7.1525480e-02	   2.0301864e-01	
   6.6495000e+01	   1.2126084e-01	   1.1341027e-01	
   6.6550000e+01	   7.9187678e-01	   6.4428568e-01	
   6.6605000e+01	   5.8480244e-01	   2.3787030e-01	
   6.6660000e+01	   5.4751691e-01	   2.3514009e-01	
   6.6715000e+01	   1.1142908e+00	   4.5565622e-01	
   6.6770000e+01	   6.1589073e-01	   1.2987742e-01	
   6.6825000e+01	   6.0715821e-01	   1.6987550e-01	
   6.6880000e+01	   4.7502743e-01	  -2.5685187e-01	
   6.6935000e+01	  -1.6907664e-01	  -3.1303244e-01	
   6.6990000e+01	   2.9236519e-01	  -2.4867538e-01	
   6.7045000e+01	   6.0061096e-03	  -1.9282186e-01	
   6.7100000e+01	   4.4494960e-01	  -7.5438738e-02	
   6.7155000e+01	   6.4598426e-01	   2.7384163e-01	
   6.7210000e+01	   8.2457477e-01	   2.3852234e-01	
   6.7265000e+01	   6.5661165e-01	   1.4252272e-01	
   6.7320000e+01	   7.2955653e-02	   1.6290898e-01	
   6.7375000e+01	   8.4862995e-01	   2.9102118e-01	
   6.7430000e+01	   8.6688779e-01	   3.9133580e-01	
   6.7485000e+01	   9.0821006e-01	   9.9464265e-02	
   6.7540000e+01	   1.6375066e-01	   7.8212781e-03	
   6.7595000e+01	   4.4399737e-01	   1.9536693e-02	
   6.7650000e+01	   8.8653549e-01	   8.7959809e-02	
   6.7705000e+01	   3.8703786e-01	  -2.8815503e-01	
   6.7760000e+01	  -1.6813061e-01	  -4.9097372e-01	
   6.7815000e+01	   2.9028430e-01	   1.1114214e-01	
   6.7870000e+01	   7.5511867e-01	   2.5849950e-01	
   6.7925000e+01	   9.4352017e-01	   3.3978948e-02	
   6.7980000e+01	   1.2643736e+00	   2.1850149e-01	
   6.8035000e+01	   6.7071388e-01	  -9.4570944e-02	
   6.8090000e+01	   9.8590325e-01	   2.9255349e-01	
   6.8145000e+01	   6.2369849e-01	   6.6140988e-02	
   6.8200000e+01	   6.9661075e-01	   1.0013858e-01	
   6.8255000e+01	   5.4884288e-01	  -1.0916411e-01	
   6.8310000e+01	   3.9117181e-01	  -1.1779226e-01	
   6.8365000e+01	   4.5357618e-01	  -3.9177080e-02	
   6.8420000e+01	  -1.2873157e-01	  -1.6130106e-01	
   6.8475000e+01	  -8.0190003e-02	  -4.4405417e-01	
   6.8530000e+01	   9.5794447e-01	   2.8671898e-01	
   6.8585000e+01	   9.2941898e-01	   1.1999522e-01	
   6.8640000e+01	   4.8398386e-01	   1.3366039e-01	
   6.8695000e+01	   6.9393408e-01	   1.1810821e-01	
   6.8750000e+01	   7.5541916e-01	   6.4388683e-02	
   6.8805000e+01	   5.8689511e-01	   8.8859613e-02	
   6.8860000e+01	   4.3082193e-02	  -3.7155175e-02	
   6.8915000e+01	   2.1117169e-01	   6.9705385e-02	
   6.8970000e+01	   2.4268482e-01	  -2.9868577e-02	
   6.9025000e+01	  -5.2918817e-02	  -2.8459591e-01	
   6.9080000e+01	  -1.3959358e-01	  -4.1549385e-01	
   6.9135000e+01	   2.9569653e-01	   1.0623706e-01	
   6.9190000e+01	   8.0908534e-01	   1.3117427e-01	
   6.9245000e+01	   5.7734351e-01	   1.9907601e-01	
   6.9300000e+01	   5.1572047e-01	  -1.3712743e-01	
   6.9355000e+01	   3.9102016e-01	  -1.7820016e-01	
   6.9410000e+01	   8.8864774e-01	   1.2667932e-01	
   6.9465000e+01	   7.9787613e-01	   2.5192010e-01	
   6.9520000e+01	   2.0712028e-01	  -6.1149564e-02	
   6.9575000e+01	   3.1557289e-01	  -2.7137114e-01	
   6.9630000e+01	   3.2201711e-01	  -1.5775424e-01	
   6.9685000e+01	  -1.9580774e-01	  -3.9898769e-01	
   6.9740000e+01	  -5.7416594e-01	  -3.2414106e-01	
   6.9795000e+01	   2.6262217e-01	  -2.7132066e-01	
   6.9850000e+01	   4.8553661e-01	   2.5421670e-01	
   6.9905000e+01	   7.3339462e-02	   1.0118520e-01	
   6.9960000e+01	   7.7412580e-01	  -7.9257980e-03	
   7.0015000e+01	   4.3072459e-01	   1.3713830e-01	
   7.0070000e+01	   6.9448433e-01	   3.1678120e-01	
   7.0125000e+01	   2.2906216e-01	   2.5477842e-01	
   7.0180000e+01	   7.1996349e-01	  -9.6209038e-02	
   7.0235000e+01	   7.3910555e-01	  -3.5418260e-02	
   7.0290000e+01	   3.7884611e-01	  -2.5481423e-01	
   7.0345000e+01	   5.9137878e-01	  -2.2694095e-01	
   7.0400000e+01	   2.7487818e-01	  -2.7909044e-01	
   7.0455000e+01	  -2.4725884e-02	  -2.9220546e-01	
   7.0510000e+01	   1.3254235e-01	   3.6238117e-02	
   7.0565000e+01	   9.9518120e-01	   2.9474786e-01	
   7.0620000e+01	   1.2270572e+00	   2.8765493e-01	
   7.0675000e+01	   7.0249432e-01	   2.0187265e-01	
   7.0730000e+01	   8.5450795e-01	   3.8713719e-01	
   7.0785000e+01	   8.6349144e-01	   4.4865992e-01	
   7.0840000e+01	   7.0203153e-01	   1.3417286e-01	
   7.0895000e+01	   8.9712246e-01	   3.4862120e-01	
   7.0950000e+01	   7.7763196e-01	   5.3186066e-02	
   7.1005000e+01	   3.4241007e-01	   8.7175900e-02	
   7.1060000e+01	   1.9689596e-01	  -3.1592391e-01	
   7.1115000e+01	   4.1570276e-01	  -2.8506158e-01	
   7.1170000e+01	   5.9419812e-01	   9.5847847e-02	
   7.1225000e+01	   9.0053638e-01	   8.6977300e-02	
   7.1280000e+01	   9.2692793e-01	   1.2936730e-01	
   7.1335000e+01	   1.1003229e+00	   4.1158608e-01	
   7.1390000e+01	   1.1542768e+00	   5.6915153e-01	
   7.1445000e+01	   1.1607814e+00	   4.0824675e-01	
   7.1500000e+01	   9.0917579e-01	   3.8290176e-01	
   7.1555000e+01	   1.4347389e+00	   5.8928791e-01	
   7.1610000e+01	   1.2189448e+00	   2.2990200e-01	
   7.1665000e+01	   5.3890110e-01	   2.2967110e-01	
   7.1720000e+01	   1.0856596e+00	  -1.5189072e-02	
   7.1775000e+01	   2.9602586e-01	   2.3278824e-01	
   7.1830000e+01	   4.7910419e-01	  -8.0498340e-02	
   7.1885000e+01	   4.0634829e-01	  -2.1487929e-01	
   7.1940000e+01	   3.7675920e-02	  -3.2493542e-01	
   7.1995000e+01	   2.0252981e-01	   1.9977756e-01	
   7.2050000e+01	   7.3943393e-01	   3.1389197e-01	
   7.2105000e+01	   9.6474805e-01	   1.6913712e-01	
   7.2160000e+01	   1.2752810e+00	   2.8573781e-01	
   7.2215000e+01	   7.5753279e-01	   1.1582796e-01	
   7.2270000e+01	   8.5206952e-01	   2.3089083e-01	
   7.2325000e+01	   5.3525510e-01	   9.9631990e-02	
   7.2380000e+01	   8.2594632e-01	   7.8031534e-02	
   7.2435000e+01	   1.7043781e-01	   2.8176751e-02	
   7.2490000e+01	   5.1679877e-02	  -3.7209179e-02	
   7.2545000e+01	  -1.2823593e-01	  -2.4374518e-01	
   7.2600000e+01	   1.5348794e-01	  -1.4840670e-01	
   7.2655000e+01	   2.2430586e-01	  -9.7075929e-02	
   7.2710000e+01	   1.7444868e-01	   5.5753941e-02	
   7.2765000e+01	   2.1343679e-01	  -7.9573924e-02	
   7.2820000e+01	   1.3116766e+00	   2.2577024e-01	
   7.2875000e+01	   3.8331131e-01	   2.3366348e-01	
   7.2930000e+01	  -1.0333937e-01	  -1.8947771e-01	
   7.2985000e+01	   2.0290877e-01	   4.2567933e-02	
   7.3040000e+01	   1.5279884e-01	   9.1206109e-02	
   7.3095000e+01	   2.2996753e-01	   9.3334465e-02	
   7.3150000e+01	  -4.0522347e-01	  -1.5751886e-01	
   7.3205000e+01	   4.8685246e-01	  -2.5895362e-01	
   7.3260000e+01	   1.7718928e-02	  -1.7592030e-01	
   7.3315000e+01	  -3.1949149e-01	  -3.7016596e-01	
   7.3370000e+01	  -8.2510420e-02	  -1.1123662e-01	
   7.3425000e+01	   1.0704382e+00	   4.4872112e-01	
   7.3480000e+01	   7.9224635e-01	   2.8128042e-01	
   7.3535000e+01	   7.3003190e-01	   8.7212282e-02	
   7.3590000e+01	   4.2965764e-01	   7.4262829e-02	
   7.3645000e+01	   1.0738145e+00	   3.0442226e-01	
   7.3700000e+01	   6.5819334e-01	   3.9636442e-01	
   7.3755000e+01	   4.8407031e-01	  -7.3932633e-02	
   7.3810000e+01	  -6.5570043e-02	   1.0478681e-01	
   7.3865000e+01	   2.0709004e-01	  -3.0324796e-02	
   7.3920000e+01	   5.2185315e-01	  -1.9967366e-01	
   7.3975000e+01	  -6.2566104e-01	  -4.0604688e-01	
   7.4030000e+01	   6.1390247e-01	  -2.1657887e-01	
   7.4085000e+01	   6.2086815e-01	   2.9130452e-01	
   7.4140000e+01	   3.2899079e-01	   2.1489241e-01	
   7.4195000e+01	   5.6246748e-01	   3.1108718e-01	
   7.4250000e+01	   5.7462943e-01	   5.0371203e-01	
   7.4305000e+01	   5.4857327e-01	   5.8424302e-01	
   7.4360000e+01	   5.9341060e-01	   2.6330906e-01	
   7.4415000e+01	   6.1433988e-01	   5.7143692e-02	
   7.4470000e+01	   2.7177984e-01	   2.3649532e-01	
   7.4525000e+01	  -1.3652263e-01	   6.8636023e-03	
   7.4580000e+01	   1.3360664e-01	   2.8684166e-02	
   7.4635000e+01	   3.2211954e-01	  -1.8579085e-01	
   7.4690000e+01	   4.5286909e-01	   1.9816551e-01	
   7.4745000e+01	   8.9409700e-01	   2.9293494e-01	
   7.4800000e+01	   3.0709356e-01	   3.5639806e-01	
   7.4855000e+01	   1.2706861e+00	   4.3252321e-01	
   7.4910000e+01	   8.1405108e-01	   3.6522634e-01	
   7.4965000e+01	   6.7608990e-01	   3.9202105e-01	
   7.5020000e+01	   1.0093609e+00	   2.1440381e-01	
   7.5075000e+01	   1.1881012e+00	   4.2999288e-01	
   7.5130000e+01	   1.1030862e+00	   4.4211569e-01	
   7.5185000e+01	   4.9800689e-01	   1.7517563e-01	
   7.5240000e+01	   3.5941001e-01	   1.2542173e-01	
   7.5295000e+01	   6.7208199e-01	  -1.1362192e-01	
   7.5350000e+01	   2.6297090e-01	   1.5943356e-01	
   7.5405000e+01	  -1.3252443e-01	  -2.4001899e-01	
   7.5460000e+01	   6.2057317e-01	   2.3207187e-01	
   7.5515000e+01	   8.2553586e-01	   2.7256080e-01	
   7.5570000e+01	   2.5252934e-01	   4.1991942e-01	
   7.5625000e+01	   8.9789334e-01	   4.3466505e-01	
   7.5680000e+01	   8.3727615e-01	   5.5122640e-01	
   7.5735000e+01	   5.2711009e-01	   5.6037865e-01	
   7.5790000e+01	   3.0997259e-01	   1.8665125e-01	
   7.5845000e+01	   1.9582973e-01	   2.0760132e-01	
   7.5900000e+01	   3.9355507e-01	   3.1666354e-01	
   7.5955000e+01	   6.4436658e-02	   1.0376078e-01	
   7.6010000e+01	  -2.5249699e-01	  -7.2566517e-02	
   7.6065000e+01	   2.1840212e-01	   1.2862137e-01	
   7.6120000e+01	   7.2719881e-01	   4.0780807e-01	
   7.6175000e+01	   5.4555398e-01	   2.2867611e-01	
   7.6230000e+01	   7.5980924e-01	   4.5555848e-01	
   7.6285000e+01	   7.9319510e-01	   4.6385990e-01	
   7.6340000e+01	   6.0567349e-01	   3.0514779e-01	
   7.6395000e+01	   4.2331270e-01	   1.4447279e-01	
   7.6450000e+01	   1.7439667e-01	   8.5564763e-02	
   7.6505000e+01	   9.5034142e-01	   3.6359584e-01	
   7.6560000e+01	  -1.5135724e-01	   2.1987279e-01	
   7.6615000e+01	  -1.9033020e-01	  -1.9216907e-01	
   7.6670000e+01	   2.9810369e-01	  -9.6884793e-02	
   7.6725000e+01	   1.9678746e-01	  -1.2648139e-01	
   7.6780000e+01	   5.8961377e-01	   1.7981665e-01	
   7.6835000e+01	   3.7579195e-01	   2.4848747e-01	
   7.6890000e+01	   1.1181878e+00	   4.3003904e-01	
   7.6945000e+01	   4.7215338e-01	   5.6696716e-01	
   7.7000000e+01	   9.3947241e-01	   3.6577262e-01	
   7.7055000e+01	   3.9427338e-01	   4.3455132e-01	
   7.7110000e+01	   1.2402372e+00	   3.1293263e-01	
   7.7165000e+01	   3.9879710e-01	   6.1125648e-02	
   7.7220000e+01	  -1.2029282e-02	  -6.2443467e-02	
   7.7275000e+01	   4.5606749e-01	   5.3618476e-02	
   7.7330000e+01	   4.2515928e-01	   7.7609106e-02	
   7.7385000e+01	   1.2461827e-01	  -1.4701997e-01	
   7.7440000e+01	   7.9086090e-01	   2.2799834e-01	
   7.7495000e+01	   6.6217702e-01	   4.4939055e-01	
   7.7550000e+01	   3.8974061e-01	   2.7311633e-01	
   7.7605000e+01	   6.8682147e-01	   4.3163654e-01	
   7.7660000e+01	   7.1085855e-01	   3.1349009e-01	
   7.7715000e+01	   6.2780350e-01	   2.6613121e-01	
   7.7770000e+01	   1.0711070e+00	   3.5001857e-01	
   7.7825000e+01	   9.6683182e-01	   4.1452324e-01	
   7.7880000e+01	   1.0196298e+00	   3.3840487e-01	
   7.7935000e+01	   5.2423391e-01	   3.7300002e-01	
   7.7990000e+01	  -1.2178016e-02	  -1.0158110e-02	
   7.8045000e+01	   2.5733053e-01	  -1.1323949e-01	
   7.8100000e+01	   1.1698174e-01	   1.5499010e-01	
   7.8155000e+01	   2.6722071e-01	   3.4701116e-01	
   7.8210000e+01	   7.7129503e-01	   3.7474594e-01	
   7.8265000e+01	   1.2528024e+00	   4.3230707e-01	
   7.8320000e+01	   1.2069627e+00	   4.5259733e-01	
   7.8375000e+01	   1.0951809e+00	   5.2035164e-01	
   7.8430000e+01	   1.0061704e+00	   5.8530160e-01	
   7.8485000e+01	   8.4115399e-01	   4.8769915e-01	
   7.8540000e+01	   9.6480520e-01	   2.8147532e-01	
   7.8595000e+01	   2.4045058e-01	   2.1405935e-01	
   7.8650000e+01	   5.1941840e-01	   1.5107955e-01	
   7.8705000e+01	  -1.0211868e-02	   9.5269320e-02	
   7.8760000e+01	  -1.2964441e-01	  -9.3486468e-03	
   7.8815000e+01	   1.0591191e-01	   1.8181704e-02	
   7.8870000e+01	   9.8667342e-01	   4.8410456e-01	
   7.8925000e+01	   6.2992419e-01	   4.1453399e-01	
   7.8980000e+01	   6.4736773e-01	   7.2807341e-02	
   7.9035000e+01	   5.6346336e-01	   3.7721317e-01	
   7.9090000e+01	   4.5935514e-01	   4.5798225e-01	
   7.9145000e+01	   7.2784835e-01	   1.7652839e-01	
   7.9200000e+01	   4.2961260e-01	   9.1338834e-02	
   7.9255000e+01	   4.1953986e-01	   3.5479489e-01	
   7.9310000e+01	   6.8763773e-01	   3.0913303e-01	
   7.9365000e+01	  -2.7631401e-01	  -1.3722075e-01	
   7.9420000e+01	  -1.0754383e-01	   4.8952615e-02	
   7.9475000e+01	   5.3381728e-01	   2.9418607e-01	
   7.9530000e+01	   8.1149037e-01	   2.1792531e-01	
   7.9585000e+01	   3.7200093e-01	   1.9448366e-01	
   7.9640000e+01	   9.0263956e-01	   4.3778375e-01	
   7.9695000e+01	   8.6385826e-01	   3.4065556e-01	
   7.9750000e+01	   5.1383303e-02	   1.9497003e-03	
   7.9805000e+01	   5.1736816e-01	   2.1647263e-01	
   7.9860000e+01	   5.6162471e-01	   2.0053995e-01	
   7.9915000e+01	   5.1512080e-01	  -3.7983621e-02	
   7.9970000e+01	  -4.8534816e-01	  -9.6427063e-02	
   8.0025000e+01	   3.3890782e-01	  -6.5614369e-02	
   8.0080000e+01	  -1.6364364e-01	  -5.0470954e-02	
   8.0135000e+01	   1.8470905e-01	   8.7569730e-02	
   8.0190000e+01	   5.8535196e-01	   2.5594852e-01	
   8.0245000e+01	   7.5679504e-01	   1.9772189e-01	
   8.0300000e+01	   9.6369419e-01	   3.9345162e-01	
   8.0355000e+01	   3.8852979e-01	   1.8946073e-01	
   8.0410000e+01	   6.3123676e-01	   2.4477857e-01	
   8.0465000e+01	   4.6383299e-01	   3.1095451e-01	
   8.0520000e+01	  -5.7211687e-01	  -9.2773333e-02	
   8.0575000e+01	  -5.8139521e-01	  -2.6953674e-01	
   8.0630000e+01	   2.7607186e-01	  -1.8609509e-02	
   8.0685000e+01	  -3.2445934e-02	  -8.1058250e-02	
   8.0740000e+01	  -2.0715081e-02	  -3.5296740e-01	
   8.0795000e+01	  -1.2341308e-01	  -2.7244907e-02	
   8.0850000e+01	   5.7476747e-01	   5.8407395e-01	
   8.0905000e+01	   1.8525970e-01	   3.5661680e-01	
   8.0960000e+01	   1.1540830e+00	   4.1979785e-01	
   8.1015000e+01	   7.3270869e-01	   2.1097926e-01	
   8.1070000e+01	   7.9766613e-01	   4.6588497e-01	
   8.1125000e+01	   9.1232457e-01	   2.3086528e-01	
   8.1180000e+01	   7.3436571e-01	   4.4442559e-01	
   8.1235000e+01	   3.3639206e-01	   5.6978355e-01	
   8.1290000e+01	   4.4257328e-02	   2.1055559e-01	
   8.1345000e+01	  -1.6484841e-01	  -4.0611371e-02	
   8.1400000e+01	  -9.4167195e-02	   1.0172910e-01	
   8.1455000e+01	  -2.3289494e-01	  -2.9563491e-01	
   8.1510000e+01	  -3.1249908e-01	   7.5118793e-02	
   8.1565000e+01	   6.4486018e-01	   4.0319347e-01	
   8.1620000e+01	   4.8204232e-01	   4.7515958e-01	
   8.1675000e+01	   9.0697524e-01	   3.9842131e-01	
   8.1730000e+01	   3.0137441e-01	   2.6838302e-01	
   8.1785000e+01	   8.9715800e-01	   6.0128282e-01	
   8.1840000e+01	   4.7030951e-01	   4.5656218e-01	
   8.1895000e+01	   4.3035264e-01	   4.4210760e-01	
   8.1950000e+01	   9.1437370e-01	   2.6601269e-01	
   8.2005000e+01	   5.2550161e-01	   2.4187003e-01	
   8.2060000e+01	   7.8172138e-02	  -7.9567546e-02	
   8.2115000e+01	   1.7173658e-01	  -5.5921396e-02	
   8.2170000e+01	   6.7031235e-01	   1.2233534e-01	
   8.2225000e+01	   6.4911611e-01	   2.3603864e-01	
   8.2280000e+01	   6.7951705e-01	   3.9412707e-01	
   8.2335000e+01	   8.7883154e-01	   4.7134537e-01	
   8.2390000e+01	   7.2928489e-01	   5.5728581e-01	
   8.2445000e+01	   7.2438585e-01	   3.8541504e-01	
   8.2500000e+01	   5.3368703e-01	   3.1319627e-01	
   8.2555000e+01	   6.8987861e-01	   3.8655393e-01	
   8.2610000e+01	   5.5914723e-01	   1.6120968e-01	
   8.2665000e+01	   3.5901828e-02	   6.6101677e-02	
   8.2720000e+01	   7.5014729e-01	   1.5647835e-01	
   8.2775000e+01	   3.5388140e-01	  -8.9815204e-02	
   8.2830000e+01	  -3.6968558e-01	  -4.1621249e-01	
   8.2885000e+01	   1.3215719e-01	   1.0677983e-01	
   8.2940000e+01	   9.0647038e-01	   3.3668864e-01	
   8.2995000e+01	   7.5988782e-01	   3.2117641e-01	
   8.3050000e+01	   6.1360724e-01	   2.0235596e-01	
   8.3105000e+01	   5.7723922e-01	   2.6285318e-01	
   8.3160000e+01	   5.7298451e-01	   2.8640820e-01	
   8.3215000e+01	  -5.5095428e-04	   1.2200275e-01	
   8.3270000e+01	  -5.1146490e-01	   9.6470620e-02	
   8.3325000e+01	   3.4255866e-01	   2.2984162e-01	
   8.3380000e+01	  -3.4558204e-01	  -2.8748337e-01	
   8.3435000e+01	  -9.0396526e-01	  -8.3385025e-02	
   8.3490000e+01	   2.1148175e-01	   8.9567432e-02	
   8.3545000e+01	   7.1895438e-01	   4.7497005e-01	
   8.3600000e+01	  -1.0848718e-02	   1.7357070e-01	
   8.3655000e+01	   6.3362708e-01	   1.3922431e-01	
   8.3710000e+01	   3.8282370e-01	   1.1714578e-01	
   8.3765000e+01	   6.2310423e-01	   3.8960534e-02	
   8.3820000e+01	   1.3032003e-02	   1.5556936e-01	
   8.3875000e+01	   5.3318705e-01	   4.2786714e-01	
   8.3930000e+01	  -8.9836383e-02	  -2.1297126e-01	
   8.3985000e+01	  -6.9105372e-01	  -7.5438738e-02	
   8.4040000e+01	   6.9169072e-02	  -2.7858184e-01	
   8.4095000e+01	  -4.2028929e-02	  -2.4607676e-01	
   8.4150000e+01	  -2.5942904e-01	  -3.3936350e-01	
   8.4205000e+01	   5.9162861e-01	  -6.0490595e-02	
   8.4260000e+01	   6.1541922e-01	   4.0979516e-01	
   8.4315000e+01	   2.9307501e-01	   2.9766981e-01	
   8.4370000e+01	   5.2461747e-01	   1.5690959e-01	
   8.4425000e+01	   7.3034315e-01	   1.6514644e-01	
   8.4480000e+01	   1.3908995e-01	   1.0837390e-01	
   8.4535000e+01	   2.8459147e-01	   4.3812735e-02	
   8.4590000e+01	   9.2539474e-02	  -8.2255356e-02	
   8.4645000e+01	   4.7604117e-01	   2.8269599e-01	
   8.4700000e+01	  -8.2290989e-02	  -6.3644183e-02	
   8.4755000e+01	  -4.7122510e-01	  -3.1292240e-01	
   8.4810000e+01	   4.1998758e-01	  -8.7762343e-02	
   8.4865000e+01	   5.1925438e-01	   5.7209172e-02	
   8.4920000e+01	   1.0075292e-01	   2.9945123e-01	
   8.4975000e+01	   3.6865002e-01	   3.1058339e-01	
   8.5030000e+01	   7.5369999e-01	   4.0819375e-01	
   8.5085000e+01	   4.0961204e-01	   1.8245520e-01	
   8.5140000e+01	   3.3792749e-01	   2.6578422e-01	
   8.5195000e+01	   4.0446339e-01	   7.4681266e-02	
   8.5250000e+01	   5.0536252e-01	   1.2997956e-01	
   8.5305000e+01	   4.8104584e-01	   1.2647862e-01	
   8.5360000e+01	   1.1509180e-01	  -1.6283503e-02	
   8.5415000e+01	  -2.8240741e-01	  -1.8610481e-01	
   8.5470000e+01	   2.1176571e-01	   1.2671711e-02	
   8.5525000e+01	   2.4829316e-01	   2.0317243e-01	
   8.5580000e+01	   8.9422873e-01	   4.1214927e-01	
   8.5635000e+01	   1.0456858e+00	   3.6972408e-01	
   8.5690000e+01	   6.1132254e-01	   2.2384150e-01	
   8.5745000e+01	   1.0284162e+00	   4.2613132e-01	
   8.5800000e+01	   7.2484294e-01	  -8.0508107e-02	
   8.5855000e+01	   5.7444255e-01	   1.6929249e-01	
   8.5910000e+01	   4.1030283e-01	   6.4993180e-02	
   8.5965000e+01	   6.2959116e-01	   5.9709454e-02	
   8.6020000e+01	   2.8599173e-01	  -5.9942829e-02	
   8.6075000e+01	   2.4856266e-02	  -1.8574473e-01	
   8.6130000e+01	  -1.5842095e-01	  -3.0545015e-01	
   8.6185000e+01	   6.6648388e-01	   2.1325557e-01	
   8.6240000e+01	   7.1540675e-01	   1.5772092e-01	
   8.6295000e+01	   6.9952231e-01	   3.6144818e-01	
   8.6350000e+01	   1.2517371e+00	   2.2813963e-01	
   8.6405000e+01	   1.0399866e+00	   1.3159350e-01	
   8.6460000e+01	   6.0056896e-01	   6.3837299e-02	
   8.6515000e+01	   6.9713163e-01	   2.9338916e-01	
   8.6570000e+01	   4.0190396e-01	  -1.0259660e-01	
   8.6625000e+01	  -7.2799819e-02	  -3.0534799e-01	
   8.6680000e+01	  -8.7795367e-02	  -3.8523554e-01	
   8.6735000e+01	   4.7572056e-01	   9.9466791e-03	
   8.6790000e+01	  -6.3666488e-02	  -2.5599763e-01	
   8.6845000e+01	   1.2842634e-01	  -7.0213819e-02	
   8.6900000e+01	   8.3279292e-01	   2.0405885e-01	
   8.6955000e+01	   5.7449721e-01	   8.7360818e-02	
   8.7010000e+01	   2.7499919e-01	  -1.3315590e-02	
   8.7065000e+01	  -1.2932890e-02	  -1.9438213e-01	
   8.7120000e+01	   3.9321067e-01	  -5.6932461e-02	
   8.7175000e+01	   2.6443356e-01	  -8.3841061e-02	
   8.7230000e+01	  -4.8428174e-02	  -3.5730836e-01	
   8.7285000e+01	  -2.5349499e-01	   2.8668248e-02	
   8.7340000e+01	   2.4451351e-01	   4.0497094e-03	
   8.7395000e+01	  -3.1983598e-01	  -4.7936382e-01	
   8.7450000e+01	   3.2911433e-02	  -1.8851966e-01	
   8.7505000e+01	   2.0111170e-01	   1.7846511e-01	
   8.7560000e+01	  -4.2144301e-03	  -2.2317272e-01	
   8.7615000e+01	   1.1088937e-01	  -2.3797580e-01	
   8.7670000e+01	   5.4106105e-01	   1.0524265e-01	
   8.7725000e+01	   8.0798696e-01	   2.5471344e-01	
   8.7780000e+01	   4.7428421e-03	  -2.9612433e-01	
   8.7835000e+01	   9.7059597e-02	  -2.2245511e-01	
   8.7890000e+01	  -3.1443663e-01	  -1.5047171e-01	
   8.7945000e+01	   1.6865828e-01	  -3.6331929e-01	
   8.8000000e+01	  -8.2269365e-01	  -5.9053600e-01	
   8.8055000e+01	   2.7768348e-01	  -3.4670308e-01	
   8.8110000e+01	   3.8505947e-01	   1.2607656e-01	
   8.8165000e+01	   3.8128697e-01	  -3.5645777e-01	
   8.8220000e+01	   6.1794569e-01	  -1.1230890e-01	
   8.8275000e+01	   3.0139303e-01	   3.2221042e-02	
   8.8330000e+01	   1.4067860e-01	  -1.9049239e-01	
   8.8385000e+01	   3.5477602e-01	  -4.7992295e-02	
   8.8440000e+01	   4.7066818e-01	   3.1152398e-02	
   8.8495000e+01	   3.8231414e-01	   1.1602853e-01	
   8.8550000e+01	   5.3623870e-03	  -4.0170315e-01	
   8.8605000e+01	  -3.5560798e-01	  -2.5073583e-01	
   8.8660000e+01	   5.7799922e-02	  -2.6822175e-01	
   8.8715000e+01	   6.5576566e-02	  -3.5983694e-01	
   8.8770000e+01	   7.5184134e-01	  -4.5650518e-02	
   8.8825000e+01	   6.3878276e-01	   2.1629503e-01	
   8.8880000e+01	   7.0435504e-01	  -1.6314853e-01	
   8.8935000e+01	   5.2773733e-01	  -8.3984474e-02	
   8.8990000e+01	   5.9415506e-01	   1.2165473e-01	
   8.9045000e+01	   5.7804781e-01	   9.7243229e-02	
   8.9100000e+01	  -9.8567174e-02	  -1.1398187e-01	
   8.9155000e+01	  -5.6479023e-02	  -2.6702691e-01	
   8.9210000e+01	   1.3844314e-01	  -1.1478719e-01	
   8.9265000e+01	   2.6563170e-02	  -3.2440121e-01	
   8.9320000e+01	  -2.7621254e-01	  -5.9167373e-01	
   8.9375000e+01	  -1.4464601e-01	  -2.5926958e-01	
   8.9430000e+01	   4.6566468e-01	   6.9622458e-02	
   8.9485000e+01	   3.9761959e-01	  -5.4632475e-02	
   8.9540000e+01	   8.8187761e-01	   1.4645165e-01	
   8.9595000e+01	   5.2966633e-01	   3.9174640e-02	
   8.9650000e+01	   5.3917597e-01	  -1.1855416e-01	
   8.9705000e+01	   4.0192336e-01	  -1.4233027e-01	
   8.9760000e+01	   1.8943097e-01	   2.8025948e-02	
   8.9815000e+01	   1.8238790e-01	  -2.7861870e-01	
   8.9870000e+01	   4.6118510e-01	  -1.8800399e-01	
   8.9925000e+01	  -1.4164617e-01	  -3.2879654e-01	
   8.9980000e+01	  -2.7005845e-02	  -3.5850272e-01	
   9.0035000e+01	  -2.4638366e-01	  -2.8604710e-01	
   9.0090000e+01	   1.0595112e-01	  -6.4766456e-01	
   9.0145000e+01	   8.8046432e-01	   1.2026648e-01	
   9.0200000e+01	   9.2707993e-01	  -1.0067192e-01	
   9.0255000e+01	   4.0102663e-01	  -2.5169440e-01	
   9.0310000e+01	   5.1100852e-01	  -6.3804918e-02	
   9.0365000e+01	   4.0258499e-01	  -1.9662788e-01	
   9.0420000e+01	   2.9917142e-01	  -1.0856375e-01	
   9.0475000e+01	   2.7707174e-02	  -2.0361082e-01	
   9.0530000e+01	   4.4803978e-01	  -1.5166979e-01	
   9.0585000e+01	   9.0686282e-03	  -2.6744359e-01	
   9.0640000e+01	   1.9792404e-01	  -4.7682367e-01	
   9.0695000e+01	  -3.6402449e-01	  -3.6936755e-01	
   9.0750000e+01	   4.2535497e-02	  -3.9266159e-01	
   9.0805000e+01	  -6.9617376e-02	  -4.4601156e-01	
   9.0860000e+01	  -1.0735231e-01	  -2.7165300e-01	
   9.0915000e+01	   3.6108838e-01	  -1.4794973e-01	
   9.0970000e+01	   2.1192001e-01	  -3.6556574e-02	
   9.1025000e+01	   4.3063993e-01	  -4.4750290e-01	
   9.1080000e+01	  -1.1028566e-01	  -1.6027682e-01	
   9.1135000e+01	   6.3828401e-01	  -1.0800560e-01	
   9.1190000e+01	  -7.1912502e-01	  -4.7513519e-01	
   9.1245000e+01	  -7.1332976e-02	  -5.4791704e-01	
   9.1300000e+01	  -1.4114769e-01	  -7.6463865e-01	
   9.1355000e+01	  -7.8358190e-01	  -5.4540097e-01	
   9.1410000e+01	  -3.5578433e-01	  -6.6358266e-01	
   9.1465000e+01	   2.7493339e-02	  -3.0595107e-01	
   9.1520000e+01	   5.8347216e-02	  -1.1742066e-01	
   9.1575000e+01	  -4.7678733e-02	  -1.5102468e-01	
   9.1630000e+01	  -3.2649648e-01	  -3.2132018e-01	
   9.1685000e+01	   3.7842648e-02	  -1.4226441e-01	
   9.1740000e+01	   1.9811266e-01	  -1.8887855e-01	
   9.1795000e+01	  -4.5262275e-01	  -3.7521854e-01	
   9.1850000e+01	   2.0854405e-01	  -4.3934758e-01	
   9.1905000e+01	  -6.1005164e-01	  -1.6812175e-01	
   9.1960000e+01	  -5.4605138e-01	  -8.2162109e-01	
   9.2015000e+01	  -1.1193510e+00	  -9.7537953e-01	
   9.2070000e+01	  -7.4708712e-01	  -6.3045089e-01	
   9.2125000e+01	  -1.1102463e-01	  -4.3346470e-01	
   9.2180000e+01	  -5.8613511e-01	  -3.9471114e-01	
   9.2235000e+01	   1.3689696e-01	  -1.1466435e-01	
   9.2290000e+01	  -1.6093603e-01	  -2.2684445e-01	
   9.2345000e+01	   3.8752916e-01	  -4.1260608e-02	
   9.2400000e+01	   1.4887413e-01	  -2.9618260e-01	
   9.2455000e+01	  -4.4397506e-03	  -8.2456346e-02	
   9.2510000e+01	  -1.4996242e-01	  -2.2350819e-01	
   9.2565000e+01	  -1.3177299e-01	  -3.6907717e-01	
   9.2620000e+01	  -7.2567694e-01	  -6.5814748e-01	
   9.2675000e+01	  -9.7903673e-04	  -5.3162411e-01	
   9.2730000e+01	  -7.4892073e-01	  -6.5989947e-01	
   9.2785000e+01	  -6.9829017e-01	  -6.3973478e-01	
   9.2840000e+01	   5.8492759e-02	  -2.1451920e-01	
   9.2895000e+01	   3.3407422e-01	   2.2550394e-01	
   9.2950000e+01	   2.9784941e-01	   1.8280398e-01	
   9.3005000e+01	   2.2044083e-01	  -1.6391257e-01	
   9.3060000e+01	   1.7438797e-01	  -7.8817956e-02	
   9.3115000e+01	   5.3160928e-01	  -4.8282455e-02	
   9.3170000e+01	  -1.9737081e-01	  -2.9298139e-01	
   9.3225000e+01	  -6.1058301e-02	  -4.4027403e-01	
   9.3280000e+01	  -5.0461204e-01	  -4.0345459e-01	
   9.3335000e+01	  -8.3174360e-01	  -4.0419883e-01	
   9.3390000e+01	  -7.8310625e-01	  -7.6086210e-01	
   9.3445000e+01	  -6.9685442e-01	  -6.0572285e-01	
   9.3500000e+01	  -3.8346763e-01	  -4.3304458e-01	
   9.3555000e+01	  -4.0156016e-01	  -2.2866809e-01	
   9.3610000e+01	  -3.6150249e-01	  -3.1816367e-01	
   9.3665000e+01	  -8.0357795e-02	  -5.4326752e-03	
   9.3720000e+01	  -5.1248154e-01	  -2.8350832e-01	
   9.3775000e+01	  -4.1213226e-01	  -3.2090806e-01	
   9.3830000e+01	  -5.3877784e-01	  -1.4973894e-01	
   9.3885000e+01	  -5.2020520e-01	  -3.0578271e-01	
   9.3940000e+01	  -8.3079025e-01	  -3.6735458e-01	
   9.3995000e+01	  -6.3362098e-01	  -4.5700489e-01	
   9.4050000e+01	  -1.3104071e+00	  -6.6630086e-01	
   9.4105000e+01	  -4.6766960e-01	  -5.3739776e-01	
   9.4160000e+01	  -7.3545692e-01	  -2.9915843e-01	
   9.4215000e+01	  -4.2166666e-01	  -2.0181738e-01	
   9.4270000e+01	  -7.6249185e-02	  -2.1417087e-02	
   9.4325000e+01	  -3.8216816e-01	  -3.3617238e-01	
   9.4380000e+01	  -1.6593752e-01	  -2.4104575e-01	
   9.4435000e+01	  -1.7557059e-01	  -1.1887834e-01	
   9.4490000e+01	  -1.2412200e-01	  -3.1842089e-01	
   9.4545000e+01	  -8.0006831e-01	  -4.1312643e-01	
   9.4600000e+01	  -1.0827879e+00	  -5.6603117e-01	
   9.4655000e+01	  -3.0479511e-01	  -4.3776191e-01	
   9.4710000e+01	  -1.0964120e+00	  -6.6207179e-01	
   9.4765000e+01	  -5.7956928e-01	  -3.2476847e-01	
   9.4820000e+01	  -3.2788128e-01	   3.2431932e-02	
   9.4875000e+01	   3.2532214e-01	  -4.4545000e-02	
   9.4930000e+01	  -7.0684166e-01	  -4.7057491e-01	
   9.4985000e+01	  -5.9207949e-01	  -3.8676307e-01	
   9.5040000e+01	  -5.9338682e-02	  -2.4073576e-02	
   9.5095000e+01	  -6.0466239e-01	  -3.3412598e-01	
   9.5150000e+01	  -2.9184434e-01	  -1.4802035e-01	
   9.5205000e+01	  -6.4960211e-01	  -3.1436190e-01	
   9.5260000e+01	  -9.0450947e-01	  -5.0862493e-01	
   9.5315000e+01	  -1.1932656e+00	  -6.9932050e-01	
   9.5370000e+01	  -1.1334480e+00	  -4.8836728e-01	
   9.5425000e+01	  -7.7667573e-01	  -2.5150512e-01	
   9.5480000e+01	  -5.0820588e-02	  -1.2697762e-01	
   9.5535000e+01	  -5.6447009e-01	  -1.4409820e-01	
   9.5590000e+01	  -1.5878194e-01	   9.1638648e-02	
   9.5645000e+01	   3.2544970e-02	  -1.7583955e-01	
   9.5700000e+01	  -2.6506577e-01	  -1.8779326e-01	
   9.5755000e+01	  -2.3737420e-01	  -2.6897130e-01	
   9.5810000e+01	  -2.4098873e-01	  -3.8763529e-02	
   9.5865000e+01	  -1.6291415e-01	  -2.9793420e-01	
   9.5920000e+01	  -4.7007191e-01	  -4.9096252e-01	
   9.5975000e+01	  -7.5382488e-01	  -4.2283226e-01	
   9.6030000e+01	  -6.3082096e-01	  -2.8175517e-01	
   9.6085000e+01	  -5.7557960e-01	  -4.5028494e-02	
   9.6140000e+01	  -4.9339387e-01	   1.8402262e-02	
   9.6195000e+01	   5.7375941e-02	   1.2710531e-01	
   9.6250000e+01	   2.4405191e-01	   1.5075974e-01	
   9.6305000e+01	  -1.8990245e-01	   1.1018234e-01	
   9.6360000e+01	  -1.4814824e-01	   6.5850041e-02	
   9.6415000e+01	  -3.9672087e-01	   1.1956310e-03	
   9.6470000e+01	  -6.8509504e-02	   4.5974924e-02	
   9.6525000e+01	  -5.7356970e-01	  -1.7008903e-01	
   9.6580000e+01	  -3.6502491e-01	   5.3004830e-02	
   9.6635000e+01	  -1.3825693e-01	  -3.1873054e-01	
   9.6690000e+01	  -6.0723928e-01	  -4.3393864e-01	
   9.6745000e+01	  -1.8177962e-01	  -1.0265964e-02	
   9.6800000e+01	   9.5636414e-02	   3.7810258e-02	
   9.6855000e+01	   3.1875613e-01	   3.0066968e-01	
   9.6910000e+01	   2.6141137e-01	   7.9771530e-02	
   9.6965000e+01	  -4.8134125e-02	   3.2654927e-01	
   9.7020000e+01	  -6.3700317e-02	   2.0499721e-01	
   9.7075000e+01	  -1.7551203e-01	   1.1411932e-01	
   9.7130000e+01	  -2.6199435e-01	   2.3729316e-01	
   9.7185000e+01	  -7.7402267e-01	  -7.0955899e-02	
   9.7240000e+01	  -4.8384669e-01	  -4.0998556e-03	
   9.7295000e+01	  -6.3432189e-01	  -1.8785174e-01	
   9.7350000e+01	  -1.1777463e+00	  -3.1658738e-01	
   9.7405000e+01	  -1.7586898e-01	   2.7048054e-01	
   9.7460000e+01	  -2.2230589e-01	   2.7250749e-01	
   9.7515000e+01	   1.3099760e-01	   3.6721854e-01	
   9.7570000e+01	  -2.1888893e-01	   4.3465750e-01	
   9.7625000e+01	  -2.9315533e-01	   2.0354884e-01	
   9.7680000e+01	  -4.6506661e-01	   2.8911674e-01	
   9.7735000e+01	  -4.1873125e-01	   2.9166981e-01	
   9.7790000e+01	  -1.0253105e+00	   1.3096090e-01	
   9.7845000e+01	  -1.1201443e+00	  -1.7022029e-02	
   9.7900000e+01	  -9.8782632e-01	   7.0416754e-02	
   9.7955000e+01	  -8.0626444e-01	  -7.3981139e-02	
   9.8010000e+01	  -9.5005800e-01	  -4.7830653e-02	
   9.8065000e+01	   1.6550136e-01	   1.8872787e-01	
   9.8120000e+01	  -6.5844242e-01	   2.3972167e-01	
   9.8175000e+01	  -4.8529552e-01	   2.9380171e-01	
   9.8230000e+01	  -4.6934894e-01	   5.3066428e-01	
   9.8285000e+01	  -8.6031173e-01	   2.7396639e-02	
   9.8340000e+01	  -6.4526184e-01	   3.9553032e-02	
   9.8395000e+01	  -8.2119710e-01	   1.0444983e-01	
   9.8450000e+01	  -6.3563156e-01	   1.0051546e-01	
   9.8505000e+01	  -1.0330583e+00	  -1.0839060e-01	
   9.8560000e+01	  -8.2501670e-01	  -1.1433616e-01	
   9.8615000e+01	  -1.0700730e+00	  -6.4024607e-02	
   9.8670000e+01	  -8.4045645e-01	   1.0110683e-01	
   9.8725000e+01	  -6.5056573e-01	   3.0126583e-02	
   9.8780000e+01	  -5.4226224e-01	   6.8016117e-02	
   9.8835000e+01	  -2.6065166e-01	   3.9616513e-02	
   9.8890000e+01	  -7.0486954e-01	   1.2633702e-02	
   9.8945000e+01	  -1.1392012e+00	  -5.7683251e-03	
   9.9000000e+01	  -1.4120875e-01	   1.9165823e-01	
   9.9055000e+01	  -9.5961687e-01	   1.2568513e-02	
   9.9110000e+01	  -1.0466009e+00	  -2.0074837e-01	
   9.9165000e+01	  -1.4814316e+00	  -5.4042156e-01	
   9.9220000e+01	  -9.6265091e-01	   1.6223066e-01	
   9.9275000e+01	  -3.1842599e-01	   5.1276956e-02	
   9.9330000e+01	  -8.4927618e-01	   9.3247539e-02	
   9.9385000e+01	  -8.4314617e-01	   1.5176263e-01	
   9.9440000e+01	  -6.4471624e-01	  -5.2531999e-03	
   9.9495000e+01	  -4.6864903e-01	   1.0490541e-01	
   9.9550000e+01	  -1.1046488e+00	   3.1911129e-01	
   9.9605000e+01	  -8.2225044e-01	   1.2433795e-01	
   9.9660000e+01	  -1.0752428e+00	  -7.2251559e-02	
   9.9715000e+01	  -1.7981614e+00	  -2.0311720e-01	
   9.9770000e+01	  -1.7839928e+00	  -3.2943529e-01	
   9.9825000e+01	  -1.3154321e+00	  -1.3089776e-01	
   9.9880000e+01	  -6.8951897e-01	   1.3378899e-01	
   9.9935000e+01	  -2.3251167e-01	   1.1732862e-01	
   9.9990000e+01	  -5.2891474e-01	   3.7952087e-01	
   1.0004500e+02	  -5.7050559e-01	   1.4413055e-01	
   1.0010000e+02	  -1.0990016e+00	   3.1963975e-01	
   1.0015500e+02	  -7.3096313e-01	   4.8529791e-02	
   1.0021000e+02	  -8.6752064e-01	   1.8798026e-01	
   1.0026500e+02	  -7.4979366e-01	   3.6139543e-02	
   1.0032000e+02	  -1.2727466e+00	   7.1227983e-02	
   1.0037500e+02	  -1.1223183e+00	  -2.5801350e-02	
   1.0043000e+02	  -3.1147321e-01	   1.5862511e-01	
   1.0048500e+02	  -2.6992741e-01	   3.2130674e-01	
   1.0054000e+02	  -7.0458757e-01	   1.8373694e-01	
   1.0059500e+02	  -4.0308727e-01	   3.4288621e-01	
   1.0065000e+02	   1.8355795e-01	   5.6764713e-01	
   1.0070500e+02	  -2.2909636e-01	   3.8999351e-01	
   1.0076000e+02	  -2.6071182e-01	   1.9789237e-01	
   1.0081500e+02	  -2.8558484e-01	   3.3715194e-01	
   1.0087000e+02	  -4.5593900e-01	   2.0496363e-01	
   1.0092500e+02	  -9.5135783e-01	   4.6869874e-01	
   1.0098000e+02	  -7.8427446e-01	  -1.3826570e-02	
   1.0103500e+02	  -2.8451941e-01	   3.9719548e-01	
   1.0109000e+02	   6.8761208e-01	   8.5227025e-01	
   1.0114500e+02	  -1.6875906e-01	   5.9519040e-01	
   1.0120000e+02	   3.4167965e-01	   4.9597435e-01	
   1.0125500e+02	   2.1173839e-01	   7.6230945e-01	
   1.0131000e+02	   3.9223074e-01	   5.0235581e-01	
   1.0136500e+02	  -1.1678357e-01	   6.1635638e-01	
   1.0142000e+02	  -4.4882523e-03	   4.7152409e-01	
   1.0147500e+02	   4.2930346e-02	   4.6669272e-01	
   1.0153000e+02	  -4.9671160e-01	   4.6965805e-01	
   1.0158500e+02	  -7.3867011e-01	   3.7659486e-01	
   1.0164000e+02	  -7.3419219e-01	   2.3316111e-01	
   1.0169500e+02	  -3.5769517e-01	   6.0596946e-01	
   1.0175000e+02	   5.7665938e-01	   7.3615389e-01	
   1.0180500e+02	  -4.5509895e-02	   2.6500851e-01	
   1.0186000e+02	   6.9225518e-01	   6.9358263e-01	
   1.0191500e+02	  -3.0839530e-01	   5.6611964e-01	
   1.0197000e+02	   4.7084570e-01	   5.4811261e-01	
   1.0202500e+02	  -1.2300250e-01	   5.6381913e-01	
   1.0208000e+02	  -1.2591883e-02	   4.3374106e-01	
   1.0213500e+02	  -2.3080438e-01	   4.1435821e-01	
   1.0219000e+02	  -6.4144777e-01	   2.7066286e-01	
   1.0224500e+02	  -6.8526458e-02	   3.8124266e-01	
   1.0230000e+02	  -3.3604354e-01	   3.2065802e-01	
   1.0235500e+02	  -2.8533813e-01	   5.7744556e-01	
   1.0241000e+02	   1.2847351e-01	   4.5220209e-01	
   1.0246500e+02	   3.6911607e-01	   5.9086288e-01	
   1.0252000e+02	   2.9236762e-01	   3.3672985e-01	
   1.0257500e+02	   1.7130293e-01	   4.5558189e-01	
   1.0263000e+02	   1.5229721e-01	   6.1326090e-01	
   1.0268500e+02	   3.3821773e-01	   4.6979407e-01	
   1.0274000e+02	  -1.0069831e-01	   5.7760383e-01	
   1.0279500e+02	   1.4297182e-01	   1.8706411e-01	
   1.0285000e+02	  -3.1400222e-01	   3.6609619e-02	
   1.0290500e+02	  -2.0958311e-01	   2.8439146e-01	
   1.0296000e+02	   2.8106370e-01	   2.4339624e-01	
   1.0301500e+02	   1.3985510e-01	   3.1705828e-01	
   1.0307000e+02	   1.6997579e-01	   3.9077426e-01	
   1.0312500e+02	   3.3295209e-01	   3.0626098e-01	
   1.0318000e+02	  -5.1827709e-01	   5.6911240e-01	
   1.0323500e+02	  -1.6897444e-01	   1.8188095e-01	
   1.0329000e+02	  -9.8829053e-02	   3.3483828e-01	
   1.0334500e+02	   2.0803936e-01	   3.7972436e-01	
   1.0340000e+02	  -1.4638336e-01	   9.9258794e-02	
   1.0345500e+02	  -8.2846763e-01	  -1.4178071e-02	
   1.0351000e+02	  -6.5185709e-01	   6.9090973e-02	
   1.0356500e+02	  -2.5404150e-01	  -6.6529022e-02	
   1.0362000e+02	  -3.3251829e-01	   1.5883690e-01	
   1.0367500e+02	  -6.6246993e-02	   2.3717476e-01	
   1.0373000e+02	  -4.6868008e-02	   4.6253824e-01	
   1.0378500e+02	  -7.8031557e-02	   3.9659075e-01	
   1.0384000e+02	  -2.3670355e-01	   3.1071973e-01	
   1.0389500e+02	   1.9568758e-01	   1.3631349e-01	
   1.0395000e+02	   3.7451263e-01	   3.7551626e-01	
   1.0400500e+02	  -1.4197683e-01	   9.9330687e-02	
   1.0406000e+02	  -6.0328051e-01	   1.7205734e-02	
   1.0411500e+02	  -4.7070725e-01	   9.8529885e-02	
   1.0417000e+02	  -5.5011456e-01	   9.9144081e-02	
   1.0422500e+02	  -3.2909759e-01	  -6.1419443e-02	
   1.0428000e+02	   4.2953996e-02	   3.3712456e-01	
   1.0433500e+02	   6.4181945e-01	   4.5674836e-01	
   1.0439000e+02	   4.9462199e-01	   5.0151286e-01	
   1.0444500e+02	   1.6352870e-02	   1.6462414e-01	
   1.0450000e+02	   5.3867594e-01	   1.7122465e-01	
   1.0455500e+02	   7.4191703e-01	   6.5495337e-01	
   1.0461000e+02	   7.0528370e-01	   3.7717732e-01	
   1.0466500e+02	   2.2487470e-02	   9.1628683e-02	
   1.0472000e+02	  -4.5422029e-01	   1.5232759e-02	
   1.0477500e+02	  -4.2409717e-03	   2.6892541e-03	
   1.0483000e+02	  -1.2461065e-02	  -5.1769221e-02	
   1.0488500e+02	  -4.8747102e-01	  -2.1738477e-01	
   1.0494000e+02	   7.2459783e-01	   4.2274270e-01	
   1.0499500e+02	   7.0474445e-01	   5.1213291e-01	
   1.0505000e+02	   4.1780254e-01	   4.1269569e-01	
   1.0510500e+02	   4.3392434e-01	   4.3965453e-01	
   1.0516000e+02	   4.7288120e-01	   6.8196844e-01	
   1.0521500e+02	   2.5427206e-01	   4.1502838e-01	
   1.0527000e+02	   5.0334358e-01	   2.4341110e-01	
   1.0532500e+02	   1.7162448e-01	   4.2354220e-01	
   1.0538000e+02	   1.2986165e-01	   2.2124965e-01	
   1.0543500e+02	  -8.1449666e-02	   2.6347791e-01	
   1.0549000e+02	  -4.9089028e-01	  -2.4749710e-01	
   1.0554500e+02	  -3.9514016e-01	  -2.4148878e-01	
   1.0560000e+02	   3.3440649e-01	   1.0249408e-01	
   1.0565500e+02	   3.6087962e-01	   5.2204843e-01	
   1.0571000e+02	   1.0435162e-01	   1.8226378e-01	
   1.0576500e+02	   2.4629914e-01	   3.8711813e-02	
   1.0582000e+02	   1.2227907e+00	   4.2500202e-01	
   1.0587500e+02	   5.9113746e-01	   1.6410228e-01	
   1.0593000e+02	   2.9818296e-01	   1.2438847e-01	
   1.0598500e+02	   4.5260496e-01	   2.0216911e-02	
   1.0604000e+02	   3.4349353e-01	   3.6399010e-02	
   1.0609500e+02	  -4.2418413e-01	  -1.4451391e-02	
   1.0615000e+02	  -8.8702830e-02	  -4.7327405e-01	
   1.0620500e+02	  -3.9840137e-01	  -1.2876846e-01	
   1.0626000e+02	  -2.8472603e-01	  -8.7175156e-02	
   1.0631500e+02	  -9.8380020e-02	   1.9211846e-01	
   1.0637000e+02	  -2.6015599e-01	   1.0023034e-01	
   1.0642500e+02	   5.8061231e-01	   7.6096846e-02	
   1.0648000e+02	   2.3865940e-01	   6.5071414e-02	
   1.0653500e+02	   1.5070771e-02	   1.6420625e-01	
   1.0659000e+02	  -3.4819528e-02	  -1.5439473e-02	
   1.0664500e+02	  -5.9315177e-02	  -3.8772279e-02	
   1.0670000e+02	  -3.7158075e-01	  -2.5160219e-01	
   1.0675500e+02	  -7.2391838e-01	  -2.9835579e-01	
   1.0681000e+02	  -2.5965056e-01	  -3.7390863e-01	
   1.0686500e+02	  -3.8082438e-01	  -8.4174859e-02	
   1.0692000e+02	   9.2826935e-02	  -7.2575289e-02	
   1.0697500e+02	   3.0101419e-02	   1.5658834e-01	
   1.0703000e+02	   1.4270381e-01	   6.4192270e-02	
   1.0708500e+02	   7.4137980e-03	  -6.8584495e-02	
   1.0714000e+02	  -1.1956234e-02	   5.2102857e-02	
   1.0719500e+02	  -1.6606291e-01	  -1.0448306e-02	
   1.0725000e+02	   2.3184077e-01	   8.0651202e-02	
   1.0730500e+02	  -6.4874483e-02	  -9.1276671e-02	
   1.0736000e+02	   2.0857027e-02	   1.2064031e-02	
   1.0741500e+02	  -9.6458498e-01	  -5.4934654e-01	
   1.0747000e+02	   3.0936299e-01	  -3.6322332e-01	
   1.0752500e+02	  -5.9067398e-01	  -6.0155511e-01	
   1.0758000e+02	  -4.5045177e-01	  -3.6295693e-01	
   1.0763500e+02	  -1.6863842e-01	   2.5829391e-01	
   1.0769000e+02	   4.7701588e-01	   2.5120726e-01	
   1.0774500e+02	   5.6735065e-01	   5.2691436e-01	
   1.0780000e+02	   9.8957287e-02	   8.1547113e-03	
   1.0785500e+02	   2.2277057e-01	   2.3395327e-01	
   1.0791000e+02	  -6.1033378e-02	  -2.1241238e-03	
   1.0796500e+02	   1.9997256e-01	   1.1115914e-01	
   1.0802000e+02	  -4.6566906e-01	  -1.4590010e-01	
   1.0807500e+02	  -3.5478243e-01	   6.3482117e-02	
   1.0813000e+02	  -6.4561706e-01	   2.7278216e-03	
   1.0818500e+02	  -6.7932457e-01	  -3.7740408e-01	
   1.0824000e+02	  -1.6078617e+00	  -5.2442314e-01	
   1.0829500e+02	  -2.0327837e-01	  -2.5033561e-01	
   1.0835000e+02	   1.7191185e-01	   1.5966985e-01	
   1.0840500e+02	   6.9877145e-01	   1.0418234e-01	
   1.0846000e+02	   1.0957397e-01	   2.2695941e-01	
   1.0851500e+02	   1.4807680e-01	   3.6219646e-01	
   1.0857000e+02	   3.6547177e-01	   5.4816332e-01	
   1.0862500e+02	   2.3691819e-01	   2.9136140e-01	
   1.0868000e+02	  -4.4859723e-01	   1.2336216e-01	
   1.0873500e+02	   1.5762353e-02	   1.3844440e-01	
   1.0879000e+02	  -1.1198152e-01	   1.5779394e-01	
   1.0884500e+02	  -1.0331182e-01	   7.9695171e-03	
   1.0890000e+02	  -9.8251357e-01	  -2.2966612e-01	
   1.0895500e+02	  -6.3685182e-01	  -2.4206836e-01	
   1.0901000e+02	   8.9241458e-02	  -1.8610481e-01	
   1.0906500e+02	   2.4529933e-01	   1.9052910e-01	
   1.0912000e+02	   2.6411094e-01	   2.7353481e-01	
   1.0917500e+02	   5.7604776e-02	   3.0589803e-01	
   1.0923000e+02	   3.2577093e-01	   3.2517775e-01	
   1.0928500e+02	  -7.9083882e-03	   3.5071327e-01	
   1.0934000e+02	   1.6065985e-01	   2.8722688e-01	
   1.0939500e+02	   1.8709677e-01	   3.0617912e-01	
   1.0945000e+02	   1.0448097e-01	   9.3157838e-02	
   1.0950500e+02	  -1.8684039e-01	  -1.1321817e-01	
   1.0956000e+02	  -1.3506175e-01	  -4.1487634e-02	
   1.0961500e+02	   1.5196691e-03	   8.0755262e-02	
   1.0967000e+02	  -7.1982510e-01	  -3.5295812e-01	
   1.0972500e+02	  -4.7663320e-01	  -2.6955222e-01	
   1.0978000e+02	   2.1882378e-01	   1.5943714e-01	
   1.0983500e+02	   4.1202673e-01	   4.3163135e-01	
   1.0989000e+02	   1.8334243e-01	   2.8048593e-01	
   1.0994500e+02	  -4.0669999e-01	   2.9846698e-01	
   1.1000000e+02	   4.2577801e-01	   2.4904808e-01	
   1.1005500e+02	  -1.7423842e-02	   2.5870923e-01	
   1.1011000e+02	  -2.0063489e-01	   1.1013852e-02	
   1.1016500e+02	   4.4342495e-02	   8.0695431e-02	
   1.1022000e+02	   1.2112636e-02	   1.3683562e-01	
   1.1027500e+02	  -8.6927115e-02	   2.3082560e-02	
   1.1033000e+02	  -1.2948464e-01	  -2.1200185e-01	
   1.1038500e+02	  -8.3865622e-02	  -2.0066962e-01	
   1.1044000e+02	   1.2718311e-01	  -3.1343887e-02	
   1.1049500e+02	   7.9320761e-02	   1.0149661e-01	
   1.1055000e+02	   4.0455264e-01	   1.9718096e-01	
   1.1060500e+02	   1.2632344e-01	   2.0825412e-01	
   1.1066000e+02	   3.9535935e-01	   1.8526289e-01	
   1.1071500e+02	   7.7085440e-02	   4.1756761e-01	
   1.1077000e+02	   1.8753660e-01	   2.4142761e-01	
   1.1082500e+02	  -5.8677205e-01	   3.4193253e-02	
   1.1088000e+02	  -3.5134462e-01	   6.9090973e-02	
   1.1093500e+02	  -1.1807164e-01	  -3.6693057e-01	
   1.1099000e+02	  -9.2011710e-01	  -2.6564283e-01	
   1.1104500e+02	  -9.7069835e-01	  -3.8789461e-01	
   1.1110000e+02	  -6.9669152e-01	  -2.2003153e-01	
   1.1115500e+02	  -6.9865055e-02	   3.9875634e-01	
   1.1121000e+02	   1.8546413e-01	   1.6605980e-01	
   1.1126500e+02	   3.8398380e-02	   2.2192355e-01	
   1.1132000e+02	   5.2095650e-01	   4.0667060e-01	
   1.1137500e+02	   4.4425958e-01	   1.4600022e-01	
   1.1143000e+02	   1.1745028e-01	   1.9391382e-01	
   1.1148500e+02	   3.9871632e-01	   5.3293295e-01	
   1.1154000e+02	   2.9299187e-02	   4.0270253e-01	
   1.1159500e+02	   1.1183430e-01	   3.3997628e-01	
   1.1165000e+02	  -5.0524571e-01	  -1.9258606e-02	
   1.1170500e+02	  -5.3788977e-02	   2.4583118e-01	
   1.1176000e+02	  -1.8570604e-01	   1.5304183e-01	
   1.1181500e+02	  -7.4391879e-01	  -4.2914250e-01	
   1.1187000e+02	   2.4695824e-01	   1.7012569e-01	
   1.1192500e+02	   3.7145972e-01	   3.5474124e-01	
   1.1198000e+02	   3.2701051e-01	   3.9373711e-01	
   1.1203500e+02	   4.8897510e-01	   5.6058254e-01	
   1.1209000e+02	   1.8634891e-01	   5.5674827e-01	
   1.1214500e+02	   9.3290628e-01	   7.1368379e-01	
   1.1220000e+02	  -6.9981838e-02	   4.6197835e-01	
   1.1225500e+02	   2.2556780e-01	   4.8546901e-01	
   1.1231000e+02	  -1.4973695e-01	   2.5336516e-01	
   1.1236500e+02	   5.5962868e-01	   5.5656757e-01	
   1.1242000e+02	  -1.3445247e-01	  -3.7650303e-02	
   1.1247500e+02	  -1.4429018e-01	  -1.0206487e-01	
   1.1253000e+02	  -3.3372893e-01	  -9.4047017e-02	
   1.1258500e+02	   1.9521932e-01	   1.0903045e-01	
   1.1264000e+02	   5.9866823e-01	   3.4301901e-01	
   1.1269500e+02	   5.5862690e-01	   3.1018639e-01	
   1.1275000e+02	   2.3667873e-01	   4.8907104e-01	
   1.1280500e+02	   9.2590554e-01	   8.4588632e-01	
   1.1286000e+02	   2.9976333e-01	   4.2350117e-01	
   1.1291500e+02	   4.0338250e-01	   4.9399132e-01	
   1.1297000e+02	   2.8839570e-01	   3.4321006e-01	
   1.1302500e+02	   6.3589204e-01	   4.3934531e-01	
   1.1308000e+02	  -1.3012746e-02	   2.7502332e-01	
   1.1313500e+02	   1.4062638e-01	   1.7565847e-01	
   1.1319000e+02	  -4.2947176e-02	  -2.6123463e-02	
   1.1324500e+02	  -3.1065540e-01	   1.2899445e-02	
   1.1330000e+02	   5.5685556e-01	   3.1599301e-01	
   1.1335500e+02	   1.6447189e-01	   5.8251359e-01	
   1.1341000e+02	   5.3742782e-01	   6.9303589e-01	
   1.1346500e+02	   1.4563445e-01	   5.5043627e-01	
   1.1352000e+02	   2.7859059e-01	   4.5962961e-01	
   1.1357500e+02	   1.1647421e-01	   4.1118758e-01	
   1.1363000e+02	   3.9242207e-01	   4.7985843e-01	
   1.1368500e+02	   2.5401201e-01	   4.1994725e-01	
   1.1374000e+02	   1.3093456e-02	   2.7804682e-01	
   1.1379500e+02	  -2.0891386e-01	   3.4163717e-01	
   1.1385000e+02	   3.1662277e-02	   1.4291777e-01	
   1.1390500e+02	  -5.7212446e-02	   5.9791610e-03	
   1.1396000e+02	  -1.1124161e-01	   3.2452310e-01	
   1.1401500e+02	   3.5161972e-02	   5.3861163e-01	
   1.1407000e+02	  -1.0152433e-01	   6.9504201e-01	
   1.1412500e+02	   4.0772391e-01	   3.0243412e-01	
   1.1418000e+02	   5.9963357e-01	   6.1349417e-01	
   1.1423500e+02	   7.4622410e-01	   8.2229713e-01	
   1.1429000e+02	   5.5241241e-01	   6.8066813e-01	
   1.1434500e+02	   1.3471651e-01	   3.6392316e-01	
   1.1440000e+02	   3.2609547e-02	   2.5110796e-01	
   1.1445500e+02	  -1.0207997e-01	   8.2481551e-02	
   1.1451000e+02	  -3.8690744e-01	   1.5821176e-01	
   1.1456500e+02	   1.7416464e-01	   3.0121076e-01	
   1.1462000e+02	   4.8413149e-01	   5.5296777e-01	
   1.1467500e+02	   6.4979256e-01	   6.9465733e-01	
   1.1473000e+02	   6.7454585e-01	   8.7465396e-01	
   1.1478500e+02	   4.4830444e-01	   7.0337495e-01	
   1.1484000e+02	   7.0240185e-01	   5.3025787e-01	
   1.1489500e+02	   6.4637050e-01	   8.6969317e-01	
   1.1495000e+02	   8.0403237e-01	   6.8614077e-01	
   1.1500500e+02	   2.6473173e-01	   3.5837220e-01	
   1.1506000e+02	  -9.6175948e-02	   1.4988172e-01	
   1.1511500e+02	   4.5452116e-01	   5.4711388e-01	
   1.1517000e+02	  -1.6952606e-01	   3.9112772e-01	
   1.1522500e+02	  -3.5821699e-01	   1.2512655e-01	
   1.1528000e+02	  -2.0300015e-01	   5.6720977e-01	
   1.1533500e+02	   1.3793437e+00	   1.2301446e+00	
   1.1539000e+02	   9.7659531e-01	   1.0049525e+00	
   1.1544500e+02	   7.4863045e-01	   5.9921734e-01	
   1.1550000e+02	   1.0648471e+00	   7.0976709e-01	
   1.1555500e+02	   1.2552971e+00	   1.0075348e+00	
   1.1561000e+02	   4.5253786e-01	   8.2417825e-01	
   1.1566500e+02	   5.2724352e-01	   9.4996256e-01	
   1.1572000e+02	   4.4317031e-01	   7.0055793e-01	
   1.1577500e+02	   8.8227528e-01	   6.0914455e-01	
   1.1583000e+02	   5.0442099e-01	   4.8297493e-01	
   1.1588500e+02	  -9.7882189e-02	   4.9282204e-01	
   1.1594000e+02	   2.8651712e-01	   2.3088752e-01	
   1.1599500e+02	   5.3612894e-01	   7.1898466e-01	
   1.1605000e+02	   9.0799778e-01	   9.1208556e-01	
   1.1610500e+02	   1.0425483e+00	   8.7367541e-01	
   1.1616000e+02	   6.9885036e-01	   1.1437804e+00	
   1.1621500e+02	   1.5865292e+00	   9.7891769e-01	
   1.1627000e+02	   1.3398789e+00	   1.0140334e+00	
   1.1632500e+02	   1.0985715e+00	   9.3455151e-01	
   1.1638000e+02	   6.4995173e-01	   9.0506408e-01	
   1.1643500e+02	   6.7984768e-01	   7.4533375e-01	
   1.1649000e+02	   5.2144467e-01	   6.1192992e-01	
   1.1654500e+02	   8.2626204e-01	   5.8806620e-01	
   1.1660000e+02	   1.9199624e-01	   7.2309655e-01	
   1.1665500e+02	   5.4055996e-01	   6.4935218e-01	
   1.1671000e+02	   9.4082734e-01	   9.8655027e-01	
   1.1676500e+02	   1.0142771e+00	   9.8473973e-01	
   1.1682000e+02	   1.5411936e+00	   1.3214828e+00	
   1.1687500e+02	   1.6454942e+00	   9.8384375e-01	
   1.1693000e+02	   6.9149318e-01	   8.0608139e-01	
   1.1698500e+02	   1.1179468e+00	   8.4329623e-01	
   1.1704000e+02	   8.7570323e-01	   7.4434994e-01	
   1.1709500e+02	   5.8772859e-01	   7.5117735e-01	
   1.1715000e+02	   6.3083771e-01	   7.2163041e-01	
   1.1720500e+02	   3.3676271e-01	   5.8639034e-01	
   1.1726000e+02	   9.8761461e-01	   6.8259906e-01	
   1.1731500e+02	   2.9282465e-01	   3.2682807e-01	
   1.1737000e+02	   9.2916723e-01	   8.2447301e-01	
   1.1742500e+02	   1.0838930e+00	   7.9594818e-01	
   1.1748000e+02	   1.0947250e+00	   9.2958338e-01	
   1.1753500e+02	   1.0431231e+00	   1.1011723e+00	
   1.1759000e+02	   8.6260066e-01	   6.4186353e-01	
   1.1764500e+02	   5.3855389e-01	   8.1235568e-01	
   1.1770000e+02	   4.5387298e-01	   9.1909964e-01	
   1.1775500e+02	   7.7492833e-01	   8.6109442e-01	
   1.1781000e+02	   4.1844212e-01	   4.9755001e-01	
   1.1786500e+02	   5.9708745e-01	   3.9089732e-01	
   1.1792000e+02	   4.4996729e-01	   4.3321437e-01	
   1.1797500e+02	   3.8624773e-01	   5.0131903e-01	
   1.1803000e+02	   4.2613627e-01	   6.1892804e-01	
   1.1808500e+02	   5.6424216e-01	   6.9121653e-01	
   1.1814000e+02	   7.6921799e-01	   8.1264188e-01	
   1.1819500e+02	   5.2864419e-01	   8.6357382e-01	
   1.1825000e+02	   8.2601648e-01	   6.5811895e-01	
   1.1830500e+02	   1.0523634e+00	   7.4875257e-01	
   1.1836000e+02	   1.3075826e+00	   7.5059412e-01	
   1.1841500e+02	   4.8282921e-01	   6.0026660e-01	
   1.1847000e+02	   2.9401647e-01	   4.9894337e-01	
   1.1852500e+02	   7.3765780e-01	   5.7287960e-01	
   1.1858000e+02	   4.7665798e-02	   4.0282408e-01	
   1.1863500e+02	   3.2228871e-01	   3.8287249e-01	
   1.1869000e+02	   4.2321002e-01	   4.4214291e-01	
   1.1874500e+02	   8.7476172e-01	   6.4529156e-01	
   1.1880000e+02	   8.9762398e-01	   8.7471108e-01	
   1.1885500e+02	   8.3476830e-01	   8.2247289e-01	
   1.1891000e+02	   8.9861698e-01	   7.2369018e-01	
   1.1896500e+02	   9.7377579e-01	   9.1929968e-01	
   1.1902000e+02	   6.2647427e-01	   7.6137945e-01	
   1.1907500e+02	   6.4502218e-01	   7.2966477e-01	
   1.1913000e+02	   1.3658842e-01	   5.2805155e-01	
   1.1918500e+02	   1.0421013e+00	   7.1914676e-01	
   1.1924000e+02	   6.7823776e-01	   5.9165320e-01	
   1.1929500e+02	  -8.1549996e-02	   2.5812949e-01	
   1.1935000e+02	  -1.8235031e-02	   3.8286643e-01	
   1.1940500e+02	   4.7911784e-01	   7.6918294e-01	
   1.1946000e+02	   1.5792136e+00	   1.0361488e+00	
   1.1951500e+02	   1.0200945e+00	   8.4568800e-01	
   1.1957000e+02	   1.1565716e+00	   6.5323263e-01	
   1.1962500e+02	   1.0861372e+00	   9.6759101e-01	
   1.1968000e+02	   1.1879105e+00	   1.0058934e+00	
   1.1973500e+02	   9.9318711e-01	   6.3805143e-01	
   1.1979000e+02	   7.0757102e-01	   5.8404463e-01	
   1.1984500e+02	   1.1665148e+00	   9.1010809e-01	
   1.1990000e+02	   6.0918533e-01	   4.1591811e-01	
   1.1995500e+02	   5.0560985e-01	   3.9105098e-01	
   1.2001000e+02	   5.8855586e-01	   5.0014895e-01	
   1.2006500e+02	   5.9545057e-01	   5.9453471e-01	
   1.2012000e+02	   9.1638051e-01	   6.0646930e-01	
   1.2017500e+02	   8.2075127e-01	   7.5873618e-01	
   1.2023000e+02	   1.3416540e+00	   8.8615584e-01	
   1.2028500e+02	   1.5427625e+00	   8.8649382e-01	
   1.2034000e+02	   6.9301456e-01	   8.2618970e-01	
   1.2039500e+02	   1.1500028e+00	   6.6355159e-01	
   1.2045000e+02	   1.1118859e+00	   5.1534264e-01	
   1.2050500e+02	   1.4948402e+00	   9.8511369e-01	
   1.2056000e+02	   1.0136439e+00	   7.1285891e-01	
   1.2061500e+02	   7.7465994e-01	   4.7241393e-01	
   1.2067000e+02	   3.0106471e-01	   2.6051884e-01	
   1.2072500e+02	   5.2783451e-01	   4.1730891e-01	
   1.2078000e+02	   8.0114131e-01	   1.3628864e-01	
   1.2083500e+02	   7.4377776e-01	   7.1648228e-01	
   1.2089000e+02	   1.1193315e+00	   5.6979360e-01	
   1.2094500e+02	   1.1623048e+00	   7.4398982e-01	
   1.2100000e+02	   1.1821886e+00	   7.5376228e-01	
   1.2105500e+02	   4.5867596e-01	   3.7530056e-01	
   1.2111000e+02	   8.9237783e-01	   5.1459718e-01	
   1.2116500e+02	   1.4503490e+00	   7.3461658e-01	
   1.2122000e+02	   5.5052988e-01	   5.7614594e-01	
   1.2127500e+02	   5.3652313e-01	   3.7526966e-01	
   1.2133000e+02	   4.6108900e-01	   4.5111552e-01	
   1.2138500e+02	   4.9278954e-01	   1.0032343e-01	
   1.2144000e+02	   2.5965978e-01	   2.4863893e-01	
   1.2149500e+02	   6.6097067e-01	   6.0048303e-01	
   1.2155000e+02	   6.7094096e-01	   5.2245522e-01	
   1.2160500e+02	   4.7578249e-01	   5.5743769e-01	
   1.2166000e+02	   6.2422403e-01	   3.7402075e-01	
   1.2171500e+02	   5.0096690e-01	   4.7325301e-01	
   1.2177000e+02	   4.4873836e-01	   4.0981324e-01	
   1.2182500e+02	   5.1466219e-01	   5.7653088e-01	
   1.2188000e+02	   2.8549113e-01	   2.9754172e-01	
   1.2193500e+02	   9.4544557e-01	   1.5828086e-01	
   1.2199000e+02	  -9.5040820e-02	   1.6156611e-01	
   1.2204500e+02	   3.3703253e-01	   2.7986371e-01	
   1.2210000e+02	   3.0692356e-03	   3.1500115e-01	
   1.2215500e+02	   7.8090189e-01	   2.5222042e-01	
   1.2221000e+02	   6.3393127e-01	   6.2107061e-01	
   1.2226500e+02	   4.9054395e-01	   5.4267239e-01	
   1.2232000e+02	   1.7957924e-01	   3.4787860e-01	
   1.2237500e+02	   7.6398417e-01	   2.7129264e-01	
   1.2243000e+02	   8.7858065e-01	   4.6432247e-01	
   1.2248500e+02	   1.1443897e+00	   6.3282978e-01	
   1.2254000e+02	   1.3178081e-01	   2.0113971e-01	
   1.2259500e+02	   8.0125868e-03	   1.5054164e-01	
   1.2265000e+02	   4.0887677e-01	   1.3541198e-01	
   1.2270500e+02	  -2.2736803e-01	   1.9364119e-01	
   1.2276000e+02	  -5.0833213e-02	  -5.8509809e-02	
   1.2281500e+02	   1.0901659e+00	   3.4862120e-01	
   1.2287000e+02	   1.3919700e+00	   7.8126911e-01	
   1.2292500e+02	   7.6466231e-01	   4.4737691e-01	
   1.2298000e+02	   4.9426479e-01	   4.9415391e-01	
   1.2303500e+02	   5.9111144e-01	   7.1419632e-01	
   1.2309000e+02	   1.1750348e+00	   5.5693955e-01	
   1.2314500e+02	   4.3122014e-01	   6.3321857e-01	
   1.2320000e+02	   4.4672861e-01	   1.8928599e-01	
   1.2325500e+02	   4.3282104e-01	   4.1091278e-01	
   1.2331000e+02	   5.3239958e-01	   4.2162183e-01	
   1.2336500e+02	   5.7144056e-02	   3.0090527e-01	
   1.2342000e+02	   2.2878136e-01	  -7.7210829e-02	
   1.2347500e+02	   1.5995550e-01	   8.8501979e-02	
   1.2353000e+02	   1.0678529e+00	   3.1389197e-01	
   1.2358500e+02	   1.3107898e+00	   7.0303734e-01	
   1.2364000e+02	   8.5273733e-01	   4.0741804e-01	
   1.2369500e+02	   7.9903111e-01	   7.2386842e-01	
   1.2375000e+02	   8.8897897e-01	   3.8572884e-01	
   1.2380500e+02	   6.7696606e-01	   6.2200491e-01	
   1.2386000e+02	   4.5972275e-01	   3.9979972e-01	
   1.2391500e+02	   7.4615031e-01	   3.6638150e-01	
   1.2397000e+02	   5.6532314e-01	   4.4598782e-01	
   1.2402500e+02	   3.1154802e-01	   3.0972516e-01	
   1.2408000e+02	   3.5768801e-01	   1.0182298e-01	
   1.2413500e+02	   1.9456999e-01	   7.2736578e-02	
   1.2419000e+02	   4.3834329e-01	   2.4038372e-01	
   1.2424500e+02	   5.1878978e-01	   4.1160591e-01	
   1.2430000e+02	   2.3898730e-01	   4.9054755e-01	
   1.2435500e+02	   5.7338352e-01	   5.5255214e-01	
   1.2441000e+02	   9.1823622e-01	   4.9015978e-01	
   1.2446500e+02	   7.3155371e-01	   4.8640539e-01	
   1.2452000e+02	   2.2371615e-01	   3.1146418e-01	
   1.2457500e+02	   5.9127505e-01	   3.1841336e-01	
   1.2463000e+02	   8.1713940e-01	   2.5353038e-01	
   1.2468500e+02	   4.9951096e-01	   1.4675047e-01	
   1.2474000e+02	  -6.8228583e-02	  -4.6040694e-02	
   1.2479500e+02	   1.4246420e-01	   2.2486436e-01	
   1.2485000e+02	   1.1413570e+00	   5.9309393e-01	
   1.2490500e+02	   6.7218365e-01	   1.2278148e-01	
   1.2496000e+02	   5.3118189e-01	   8.1722534e-02	
   1.2501500e+02	   4.1722185e-01	   3.9004135e-01	
   1.2507000e+02	   6.5177475e-01	   3.3963150e-01	
   1.2512500e+02	   4.3017689e-01	   3.4035583e-01	
   1.2518000e+02	   4.3336373e-01	   1.5973531e-01	
   1.2523500e+02	   1.2136526e-02	   4.5357249e-01	
   1.2529000e+02	  -3.7727368e-02	   1.9557597e-01	
   1.2534500e+02	  -1.3835811e-01	  -1.0155841e-01	
   1.2540000e+02	  -2.1165055e-01	  -6.2645179e-02	
   1.2545500e+02	   2.4860727e-01	   3.5634949e-01	
   1.2551000e+02	   7.8369306e-01	   4.5557057e-01	
   1.2556500e+02	   4.5024123e-01	   5.5256813e-01	
   1.2562000e+02	   2.2115480e-01	   2.3064980e-01	
   1.2567500e+02	   1.7853461e-01	   3.8618356e-01	
   1.2573000e+02	   1.0605197e+00	   3.2286897e-01	
   1.2578500e+02	   2.2492705e-01	   9.9976351e-02	
   1.2584000e+02	   3.4775690e-01	  -5.6407684e-02	
   1.2589500e+02	   7.7954091e-01	   2.8379286e-01	
   1.2595000e+02	   2.1050457e-01	  -1.0893340e-01	
   1.2600500e+02	  -2.9044117e-01	  -1.6795921e-01	
   1.2606000e+02	   1.9072155e-01	  -1.2894569e-01	
   1.2611500e+02	   5.0344720e-01	   2.9642452e-01	
   1.2617000e+02	   8.6826634e-01	   2.0397978e-01	
   1.2622500e+02	   9.4723998e-01	   3.2841536e-01	
   1.2628000e+02	   1.0951788e+00	   4.1845078e-01	
   1.2633500e+02	   6.5275300e-01	   5.1081623e-01	
   1.2639000e+02	   9.7139615e-01	   6.4205959e-01	
   1.2644500e+02	   8.7590936e-01	   2.7750392e-01	
   1.2650000e+02	   3.7965735e-01	   4.6568762e-01	
   1.2655500e+02	   5.0532990e-01	   2.1925149e-01	
   1.2661000e+02	   4.0551863e-01	   1.0724866e-01	
   1.2666500e+02	  -1.3892092e-01	   1.6593045e-01	
   1.2672000e+02	   1.0516418e-01	  -7.5944206e-02	
   1.2677500e+02	   2.6286415e-01	  -2.4270067e-01	
   1.2683000e+02	   1.0807468e+00	   1.0135036e-01	
