     0.000	0	0	    0	    0.603189	    0.583352	    0.614786	    1.715267	    1.325856	    1.823606	    2.440070	    2.075990	    2.235904	    0.158846	    0.120699	    0.114595	    1.164721	    0.891585	    1.223316	    2.551156	    1.991150	    1.901427	    1.724727	    1.289845	    1.251087
     0.055	0	0	    0	    0.604105	    0.583352	    0.616922	    1.717098	    1.320363	    1.824521	    2.435798	    2.096132	    2.225223	    0.158846	    0.121614	    0.114290	    1.170520	    0.893416	    1.226673	    2.568246	    2.000610	    1.902342	    1.728389	    1.296254	    1.254139
     0.110	0	0	    0	    0.605325	    0.584878	    0.618753	    1.716793	    1.320363	    1.819028	    2.431525	    2.076295	    2.232853	    0.160678	    0.121309	    0.114900	    1.168994	    0.889448	    1.225757	    2.557259	    2.003967	    1.896849	    1.732357	    1.293507	    1.255360
     0.165	0	0	    0	    0.601053	    0.586404	    0.619669	    1.721675	    1.318227	    1.825742	    2.411078	    2.075685	    2.237430	    0.159152	    0.121614	    0.114290	    1.171130	    0.888533	    1.227893	    2.550240	    1.996643	    1.874876	    1.733577	    1.297780	    1.251087
     0.220	0	0	    0	    0.603189	    0.585794	    0.617533	    1.722286	    1.324331	    1.829709	    2.419623	    2.052491	    2.227970	    0.159152	    0.121309	    0.114595	    1.176318	    0.897993	    1.230335	    2.536202	    1.967651	    1.888304	    1.735103	    1.298085	    1.261158
     0.275	0	0	    0	    0.606546	    0.585489	    0.623026	    1.723507	    1.327993	    1.836728	    2.396124	    2.077821	    2.228275	    0.159762	    0.121920	    0.115511	    1.172656	    0.897383	    1.237049	    2.545357	    1.966735	    1.891356	    1.743648	    1.306020	    1.266957
     0.330	0	0	    0	    0.605631	    0.587625	    0.623026	    1.723201	    1.331350	    1.830930	    2.419928	    2.054932	    2.207828	    0.160983	    0.122530	    0.115206	    1.171435	    0.900740	    1.238880	    2.552682	    1.979858	    1.901732	    1.751583	    1.311818	    1.267262
     0.385	0	0	    0	    0.608682	    0.590677	    0.625162	    1.726864	    1.334707	    1.839780	    2.411078	    2.061646	    2.230716	    0.159762	    0.122225	    0.115816	    1.177234	    0.906233	    1.243763	    2.568246	    1.982910	    1.889220	    1.756771	    1.314565	    1.269398
     0.440	0	0	    0	    0.611429	    0.590982	    0.627909	    1.733577	    1.337758	    1.841306	    2.437018	    2.068055	    2.238651	    0.159762	    0.122530	    0.116121	    1.184863	    0.905623	    1.243763	    2.552071	    1.985351	    1.909667	    1.755550	    1.318837	    1.280690
     0.495	0	0	    0	    0.612955	    0.592813	    0.626383	    1.734188	    1.335927	    1.850462	    2.450446	    2.057679	    2.231327	    0.161593	    0.123445	    0.116426	    1.184558	    0.903182	    1.244984	    2.558480	    2.004273	    1.920043	    1.760433	    1.323720	    1.289540
     0.550	0	0	    0	    0.608682	    0.590677	    0.623026	    1.739071	    1.335317	    1.850767	    2.415656	    2.068971	    2.214542	    0.161288	    0.122530	    0.115816	    1.185779	    0.902266	    1.249256	    2.553597	    1.986267	    1.902953	    1.765316	    1.319753	    1.284352
     0.605	0	0	    0	    0.601968	    0.586404	    0.619059	    1.732052	    1.330434	    1.831846	    2.391852	    2.068055	    2.218814	    0.160067	    0.121614	    0.114595	    1.182422	    0.899825	    1.237659	    2.535286	    1.967956	    1.888609	    1.739071	    1.303273	    1.264515
     0.660	0	0	    0	    0.603494	    0.585794	    0.618448	    1.723201	    1.326467	    1.826047	    2.406195	    2.038148	    2.227054	    0.160067	    0.121309	    0.114900	    1.171435	    0.894026	    1.227893	    2.556954	    1.971008	    1.879759	    1.741207	    1.303273	    1.259632
     0.715	0	0	    0	    0.605020	    0.583047	    0.617227	    1.717098	    1.321889	    1.819028	    2.413214	    2.053101	    2.200809	    0.158541	    0.121614	    0.114290	    1.165332	    0.894942	    1.221790	    2.551156	    1.983825	    1.890135	    1.735409	    1.298695	    1.258412
     0.770	0	0	    0	    0.603799	    0.581827	    0.618753	    1.711604	    1.320363	    1.823606	    2.406806	    2.047913	    2.210575	    0.160067	    0.121004	    0.113985	    1.170825	    0.894331	    1.228809	    2.550851	    1.974670	    1.885557	    1.741817	    1.299916	    1.259022
     0.825	0	0	    0	    0.603494	    0.583047	    0.619669	    1.724117	    1.322194	    1.817502	    2.408942	    2.037537	    2.214847	    0.158846	    0.120699	    0.114595	    1.177234	    0.899214	    1.225452	    2.537118	    1.959716	    1.878843	    1.740597	    1.309071	    1.256886
     0.880	0	0	    0	    0.605631	    0.585489	    0.618753	    1.720455	    1.324331	    1.823606	    2.411688	    2.041505	    2.217288	    0.159457	    0.122835	    0.114900	    1.174182	    0.898299	    1.233692	    2.540169	    1.976806	    1.890135	    1.740291	    1.310292	    1.269398
     0.935	0	0	    0	    0.605631	    0.586709	    0.619669	    1.718624	    1.321584	    1.830320	    2.411994	    2.043030	    2.204776	    0.160067	    0.122530	    0.114900	    1.177539	    0.897688	    1.237354	    2.542916	    1.977111	    1.902037	    1.746700	    1.312734	    1.271839
     0.990	0	0	    0	    0.606851	    0.589761	    0.622416	    1.724727	    1.325246	    1.831540	    2.429084	    2.080568	    2.245975	    0.160678	    0.122835	    0.115511	    1.180591	    0.901045	    1.238575	    2.551766	    1.979553	    1.898680	    1.754330	    1.312734	    1.276417
     1.045	0	0	    0	    0.607462	    0.591897	    0.624552	    1.725948	    1.328603	    1.830320	    2.424201	    2.097963	    2.244755	    0.161288	    0.123140	    0.115511	    1.181506	    0.904402	    1.241016	    2.559701	    2.009461	    1.922789	    1.756161	    1.322194	    1.277028
     1.100	0	0	    0	    0.611429	    0.589761	    0.625467	    1.734493	    1.333181	    1.836118	    2.446784	    2.076295	    2.236210	    0.160678	    0.122530	    0.115816	    1.187915	    0.908370	    1.240711	    2.572213	    2.003662	    1.916686	    1.765011	    1.326467	    1.284962
     1.155	0	0	    0	    0.612345	    0.594339	    0.626993	    1.736324	    1.336843	    1.845579	    2.467231	    2.088808	    2.242008	    0.160983	    0.124056	    0.116732	    1.188220	    0.904707	    1.249561	    2.602121	    2.011597	    1.930724	    1.769589	    1.324941	    1.288319
     1.210	0	0	    0	    0.610819	    0.592508	    0.624857	    1.735409	    1.332876	    1.846799	    2.452583	    2.069276	    2.226444	    0.160983	    0.122225	    0.115511	    1.184863	    0.904402	    1.248646	    2.593881	    2.009155	    1.898680	    1.769589	    1.327993	    1.280385
     1.265	0	0	    0	    0.605020	    0.586099	    0.618143	    1.728389	    1.323415	    1.824216	    2.408331	    2.068666	    2.218509	    0.161593	    0.122225	    0.114595	    1.182116	    0.893416	    1.234302	    2.537118	    1.994507	    1.907225	    1.742428	    1.308766	    1.262074
     1.320	0	0	    0	    0.602884	    0.584878	    0.616922	    1.719539	    1.320363	    1.822995	    2.410163	    2.027771	    2.187381	    0.159457	    0.120699	    0.114290	    1.174792	    0.890669	    1.228504	    2.529488	    1.979553	    1.873655	    1.738460	    1.306020	    1.256886
     1.375	0	0	    0	    0.604105	    0.583963	    0.614481	    1.714351	    1.319753	    1.819944	    2.392767	    2.039673	    2.183413	    0.158846	    0.121004	    0.115206	    1.167468	    0.888533	    1.224231	    2.517586	    1.956054	    1.893492	    1.739986	    1.295033	    1.255360
     1.430	0	0	    0	    0.605325	    0.584878	    0.617533	    1.713436	    1.317922	    1.815671	    2.399481	    2.056153	    2.197147	    0.159152	    0.121309	    0.114900	    1.170825	    0.888838	    1.229114	    2.551766	    1.954528	    1.867247	    1.746700	    1.300526	    1.258412
     1.485	0	0	    0	    0.605325	    0.581216	    0.618448	    1.718013	    1.317617	    1.811704	    2.409247	    2.038148	    2.201114	    0.159152	    0.122225	    0.114290	    1.175402	    0.894331	    1.222095	    2.545968	    1.981994	    1.882811	    1.745785	    1.306020	    1.263600
     1.540	0	0	    0	    0.605020	    0.584268	    0.619364	    1.719234	    1.319753	    1.821164	    2.425116	    2.045167	    2.205081	    0.160372	    0.121920	    0.114595	    1.177234	    0.895247	    1.230640	    2.551461	    1.967346	    1.886168	    1.750362	    1.309377	    1.266957
     1.595	0	0	    0	    0.605631	    0.584573	    0.619364	    1.720150	    1.317922	    1.822995	    2.410773	    2.074159	    2.207523	    0.160372	    0.121309	    0.114595	    1.176928	    0.897383	    1.236439	    2.541085	    1.973449	    1.903563	    1.752193	    1.309071	    1.269093
     1.650	0	0	    0	    0.607156	    0.588846	    0.621195	    1.719539	    1.323720	    1.827268	    2.423285	    2.054627	    2.229191	    0.160678	    0.121614	    0.114900	    1.180896	    0.898604	    1.238270	    2.563668	    2.000305	    1.907530	    1.757382	    1.315480	    1.273365
     1.705	0	0	    0	    0.608072	    0.589456	    0.622721	    1.728695	    1.322499	    1.826963	    2.429084	    2.080568	    2.230106	    0.160372	    0.122225	    0.115511	    1.185168	    0.901045	    1.242847	    2.583505	    2.010986	    1.904479	    1.761349	    1.323415	    1.281910
     1.760	0	0	    0	    0.609598	    0.590066	    0.625467	    1.730220	    1.328298	    1.833982	    2.440986	    2.068055	    2.249332	    0.160983	    0.122225	    0.115511	    1.185168	    0.906844	    1.239185	    2.573739	    2.013428	    1.924926	    1.763180	    1.324331	    1.283131
     1.815	0	0	    0	    0.612345	    0.591897	    0.626078	    1.729915	    1.332876	    1.838560	    2.462959	    2.088197	    2.259403	    0.161593	    0.122530	    0.116426	    1.185473	    0.907759	    1.244678	    2.592355	    2.021668	    1.934386	    1.773556	    1.329213	    1.288930
     1.870	0	0	    0	    0.612345	    0.593729	    0.630961	    1.730220	    1.334096	    1.844358	    2.474250	    2.095216	    2.274052	    0.162814	    0.123751	    0.115816	    1.186999	    0.905318	    1.247730	    2.616159	    2.037537	    1.924010	    1.785153	    1.336233	    1.284352
     1.925	0	0	    0	    0.607767	    0.587930	    0.624857	    1.737545	    1.337758	    1.841306	    2.441596	    2.084535	    2.227970	    0.161288	    0.123751	    0.116121	    1.190356	    0.905318	    1.240711	    2.608225	    2.021057	    1.925841	    1.768368	    1.328298	    1.280995
     1.980	0	0	    0	    0.605936	    0.584573	    0.618143	    1.727169	    1.322194	    1.826963	    2.429694	    2.055543	    2.230716	    0.160372	    0.121920	    0.114900	    1.180285	    0.898299	    1.233997	    2.536812	    1.972229	    1.913634	    1.746090	    1.308461	    1.266346
     2.035	0	0	    0	    0.601968	    0.579995	    0.614481	    1.715572	    1.314870	    1.819333	    2.409247	    2.038453	    2.196841	    0.159762	    0.121309	    0.114900	    1.172045	    0.894942	    1.224231	    2.559396	    1.978332	    1.903868	    1.739376	    1.304189	    1.261769
     2.090	0	0	    0	    0.602579	    0.582742	    0.613260	    1.713436	    1.311513	    1.808652	    2.428779	    2.059815	    2.221866	    0.159457	    0.121309	    0.113069	    1.169909	    0.883955	    1.222400	    2.562448	    1.975280	    1.880980	    1.739376	    1.295033	    1.251087
     2.145	0	0	    0	    0.600443	    0.582742	    0.613870	    1.713130	    1.311513	    1.804074	    2.419013	    2.070192	    2.219425	    0.159762	    0.121004	    0.114290	    1.173877	    0.886397	    1.217823	    2.552682	    1.992370	    1.893797	    1.745174	    1.300221	    1.254139
     2.200	0	0	    0	    0.602884	    0.581521	    0.615396	    1.706722	    1.317006	    1.804685	    2.432746	    2.042725	    2.225528	    0.158541	    0.120699	    0.114595	    1.173877	    0.896468	    1.223621	    2.552987	    1.981689	    1.895323	    1.741207	    1.301137	    1.260548
     2.255	0	0	    0	    0.605631	    0.582742	    0.616617	    1.710994	    1.312734	    1.814450	    2.433967	    2.063172	    2.224002	    0.160372	    0.121309	    0.114290	    1.175097	    0.891279	    1.229725	    2.551766	    1.989624	    1.889525	    1.749447	    1.307240	    1.260243
     2.310	0	0	    0	    0.602579	    0.583963	    0.617838	    1.712825	    1.313344	    1.811704	    2.422370	    2.065919	    2.215763	    0.159762	    0.121309	    0.114595	    1.179675	    0.894331	    1.226368	    2.565805	    1.980468	    1.915465	    1.744564	    1.302358	    1.262989
     2.365	0	0	    0	    0.607462	    0.583658	    0.621500	    1.717708	    1.317311	    1.817502	    2.433967	    2.093080	    2.234379	    0.160372	    0.122225	    0.115511	    1.183032	    0.898604	    1.230640	    2.587778	    1.997559	    1.892882	    1.757076	    1.313649	    1.268788
     2.420	0	0	    0	    0.606851	    0.586709	    0.621195	    1.721675	    1.324025	    1.823911	    2.434577	    2.066529	    2.236820	    0.160983	    0.121920	    0.115511	    1.186389	    0.901961	    1.239490	    2.585946	    1.997559	    1.915465	    1.755550	    1.312734	    1.274891
     2.475	0	0	    0	    0.609903	    0.588235	    0.619364	    1.721675	    1.319142	    1.830625	    2.451057	    2.077211	    2.241703	    0.160983	    0.122225	    0.114900	    1.186084	    0.903182	    1.240406	    2.584726	    1.991455	    1.924926	    1.763180	    1.318227	    1.277943
     2.530	0	0	    0	    0.611734	    0.590982	    0.623331	    1.729000	    1.325246	    1.829404	    2.454414	    2.091554	    2.253910	    0.161593	    0.121920	    0.115511	    1.189441	    0.904097	    1.244068	    2.581979	    2.002747	    1.928588	    1.774777	    1.322805	    1.280079
     2.585	0	0	    0	    0.610208	    0.592508	    0.627298	    1.723507	    1.328603	    1.830930	    2.445869	    2.096132	    2.276188	    0.161593	    0.122835	    0.116121	    1.187915	    0.902876	    1.243763	    2.611582	    2.024414	    1.927062	    1.771115	    1.330129	    1.286793
     2.640	0	0	    0	    0.611734	    0.594644	    0.630961	    1.731441	    1.333791	    1.835508	    2.454414	    2.100710	    2.284123	    0.161593	    0.123445	    0.117037	    1.189441	    0.905623	    1.245289	    2.626841	    2.023499	    1.933776	    1.772335	    1.337453	    1.288624
     2.695	0	0	    0	    0.612955	    0.591287	    0.623636	    1.728084	    1.338369	    1.843748	    2.461128	    2.090944	    2.236820	    0.161898	    0.123751	    0.115816	    1.190661	    0.908064	    1.249866	    2.593271	    2.012207	    1.925231	    1.773861	    1.326162	    1.285267
     2.750	0	0	    0	    0.605325	    0.584573	    0.618448	    1.724422	    1.318532	    1.821775	    2.430304	    2.079957	    2.228580	    0.160372	    0.121920	    0.113680	    1.179675	    0.896773	    1.232471	    2.575570	    2.004883	    1.881895	    1.753109	    1.311208	    1.266346
     2.805	0	0	    0	    0.601358	    0.583352	    0.616617	    1.714656	    1.311208	    1.809567	    2.421759	    2.056458	    2.203555	    0.160067	    0.121309	    0.113985	    1.178759	    0.888228	    1.224842	    2.576181	    1.996948	    1.885863	    1.747005	    1.306020	    1.257191
     2.860	0	0	    0	    0.599222	    0.581827	    0.612955	    1.714046	    1.312734	    1.806821	    2.407721	    2.042725	    2.207828	    0.158541	    0.120394	    0.113680	    1.175402	    0.889448	    1.221180	    2.553292	    1.976806	    1.889830	    1.739071	    1.294423	    1.253529
     2.915	0	0	    0	    0.601968	    0.581521	    0.611429	    1.704280	    1.309987	    1.799802	    2.430915	    2.053712	    2.216373	    0.159457	    0.120699	    0.113985	    1.166247	    0.887312	    1.216602	    2.549935	    1.982300	    1.891356	    1.740291	    1.296864	    1.258717
     2.970	0	0	    0	    0.604715	    0.581521	    0.614481	    1.711604	    1.308461	    1.804685	    2.436103	    2.054627	    2.214542	    0.159762	    0.120699	    0.113985	    1.173877	    0.891279	    1.223621	    2.538338	    1.977111	    1.880064	    1.746700	    1.304494	    1.253223
     3.025	0	0	    0	    0.600748	    0.581827	    0.616312	    1.709468	    1.311208	    1.805295	    2.422065	    2.061341	    2.229496	    0.160067	    0.121309	    0.114290	    1.174487	    0.892195	    1.223621	    2.570993	    1.989014	    1.885252	    1.749142	    1.303883	    1.254749
     3.080	0	0	    0	    0.606851	    0.584878	    0.618753	    1.713130	    1.312123	    1.802853	    2.440986	    2.078737	    2.233158	    0.159457	    0.121920	    0.114595	    1.182422	    0.898299	    1.224231	    2.547799	    1.997253	    1.900511	    1.745785	    1.310292	    1.259327
     3.135	0	0	    0	    0.608682	    0.586099	    0.616617	    1.709468	    1.310903	    1.816892	    2.465400	    2.086061	    2.243534	    0.160372	    0.121309	    0.115206	    1.182116	    0.894026	    1.235523	    2.574655	    2.000305	    1.919432	    1.757076	    1.309377	    1.270619
     3.190	0	0	    0	    0.608377	    0.588846	    0.620584	    1.716487	    1.319448	    1.815366	    2.455940	    2.074159	    2.249027	    0.160372	    0.122835	    0.114900	    1.186084	    0.897993	    1.234607	    2.585641	    1.989929	    1.901732	    1.764401	    1.314260	    1.271534
     3.245	0	0	    0	    0.608682	    0.590066	    0.621500	    1.725948	    1.317922	    1.818418	    2.474861	    2.104372	    2.256962	    0.160983	    0.121920	    0.115816	    1.189136	    0.897688	    1.235828	    2.581979	    2.023804	    1.920043	    1.765621	    1.317311	    1.276112
     3.300	0	0	    0	    0.610819	    0.590372	    0.623941	    1.721065	    1.322499	    1.826658	    2.480964	    2.093996	    2.239872	    0.160372	    0.123140	    0.117037	    1.190356	    0.902571	    1.241627	    2.570687	    2.009766	    1.920348	    1.768673	    1.325246	    1.280995
     3.355	0	0	    0	    0.613260	    0.588540	    0.623026	    1.726558	    1.326772	    1.832761	    2.474861	    2.091859	    2.259098	    0.160983	    0.122225	    0.115816	    1.188525	    0.908370	    1.244678	    2.592355	    2.008545	    1.922789	    1.779049	    1.324636	    1.290761
     3.410	0	0	    0	    0.615091	    0.593118	    0.631266	    1.733577	    1.331044	    1.837339	    2.473945	    2.133974	    2.277104	    0.161898	    0.123445	    0.115816	    1.191882	    0.905623	    1.243153	    2.620127	    2.040589	    1.931029	    1.782712	    1.333791	    1.285573
     3.465	0	0	    0	    0.616007	    0.596475	    0.630350	    1.734798	    1.331350	    1.839780	    2.499580	    2.104677	    2.280156	    0.162814	    0.122530	    0.116121	    1.192798	    0.904097	    1.244984	    2.625620	    2.046387	    1.942016	    1.787900	    1.339590	    1.293812
     3.520	0	0	    0	    0.608988	    0.588846	    0.620890	    1.738766	    1.335012	    1.837034	    2.460212	    2.096437	    2.252079	    0.160983	    0.123140	    0.115206	    1.196460	    0.905928	    1.243153	    2.595102	    2.016480	    1.924315	    1.768673	    1.323415	    1.277638
     3.575	0	0	    0	    0.605936	    0.585183	    0.616617	    1.720760	    1.320974	    1.822385	    2.447700	    2.079042	    2.233768	    0.160678	    0.121614	    0.113985	    1.183948	    0.898604	    1.232471	    2.569467	    1.989014	    1.918822	    1.757992	    1.307546	    1.266957
     3.630	0	0	    0	    0.604715	    0.584573	    0.616007	    1.721370	    1.317311	    1.810178	    2.430610	    2.072938	    2.221561	    0.160678	    0.120699	    0.114290	    1.175708	    0.891585	    1.221790	    2.573129	    2.003052	    1.879149	    1.756466	    1.305715	    1.264515
     3.685	0	0	    0	    0.602579	    0.582132	    0.614176	    1.710994	    1.313649	    1.803159	    2.439155	    2.063172	    2.220951	    0.160067	    0.121004	    0.113985	    1.172045	    0.893111	    1.218738	    2.563973	    1.974060	    1.899596	    1.746395	    1.302052	    1.261158
     3.740	0	0	    0	    0.604105	    0.584573	    0.615396	    1.714351	    1.316091	    1.809873	    2.435798	    2.054322	    2.227054	    0.160678	    0.121309	    0.114595	    1.178149	    0.893416	    1.224231	    2.553597	    1.981689	    1.904173	    1.752499	    1.306325	    1.259632
     3.795	0	0	    0	    0.606546	    0.581521	    0.616922	    1.714961	    1.315175	    1.813230	    2.433051	    2.043030	    2.222782	    0.160067	    0.121920	    0.114595	    1.180285	    0.897383	    1.223926	    2.556954	    1.969177	    1.885863	    1.750362	    1.303273	    1.264820
     3.850	0	0	    0	    0.606546	    0.586099	    0.618753	    1.718013	    1.307240	    1.808652	    2.437934	    2.064393	    2.236210	    0.160983	    0.122225	    0.114290	    1.181506	    0.891890	    1.222705	    2.563973	    1.977417	    1.881895	    1.757382	    1.307240	    1.262989
     3.905	0	0	    0	    0.606851	    0.586709	    0.621805	    1.719844	    1.320058	    1.817197	    2.448005	    2.074464	    2.244755	    0.160678	    0.121920	    0.115206	    1.187304	    0.897078	    1.226368	    2.584726	    2.000610	    1.891966	    1.760433	    1.313954	    1.268482
     3.960	0	0	    0	    0.608072	    0.587320	    0.620279	    1.724727	    1.323110	    1.822690	    2.458686	    2.083619	    2.258488	    0.161593	    0.122225	    0.115206	    1.190967	    0.901656	    1.236439	    2.592050	    2.010681	    1.909667	    1.764401	    1.313954	    1.273365
     4.015	0	0	    0	    0.609903	    0.590677	    0.624247	    1.729000	    1.325551	    1.828183	    2.465400	    2.101320	    2.251774	    0.161898	    0.122225	    0.115816	    1.193103	    0.905013	    1.241321	    2.598459	    1.998474	    1.907225	    1.770199	    1.320058	    1.271534
     4.070	0	0	    0	    0.613260	    0.591897	    0.625467	    1.726558	    1.325551	    1.823911	    2.471504	    2.113527	    2.268254	    0.161288	    0.122835	    0.116121	    1.187915	    0.902876	    1.241016	    2.621042	    2.008240	    1.920958	    1.774472	    1.321584	    1.276112
     4.125	0	0	    0	    0.614786	    0.591592	    0.628824	    1.736019	    1.331350	    1.832151	    2.473640	    2.106508	    2.277104	    0.162814	    0.122835	    0.116426	    1.195850	    0.903792	    1.241016	    2.607614	    2.022278	    1.933776	    1.777523	    1.325856	    1.282521
     4.180	0	0	    0	    0.616312	    0.592203	    0.630655	    1.737850	    1.336538	    1.841001	    2.485237	    2.111391	    2.276188	    0.162814	    0.123445	    0.116732	    1.197070	    0.910506	    1.247120	    2.623484	    2.037537	    1.936828	    1.783932	    1.334401	    1.288930
     4.235	0	0	    0	    0.612039	    0.589456	    0.623026	    1.735103	    1.335317	    1.840391	    2.488594	    2.109560	    2.263981	    0.161288	    0.122225	    0.116426	    1.196460	    0.909895	    1.242847	    2.606699	    2.031128	    1.934997	    1.772335	    1.318227	    1.279774
     4.290	0	0	    0	    0.604105	    0.586099	    0.619669	    1.728695	    1.318532	    1.825437	    2.462959	    2.097047	    2.256962	    0.162203	    0.122225	    0.115206	    1.186694	    0.894942	    1.237049	    2.608225	    2.015869	    1.918212	    1.761959	    1.310597	    1.261769
     4.345	0	0	    0	    0.603799	    0.586709	    0.617227	    1.723507	    1.320058	    1.815671	    2.438239	    2.081178	    2.235599	    0.160983	    0.121920	    0.113985	    1.180896	    0.895552	    1.225452	    2.581369	    1.996033	    1.917601	    1.750973	    1.308461	    1.261463
     4.400	0	0	    0	    0.606546	    0.583352	    0.618143	    1.715572	    1.319142	    1.811093	    2.456855	    2.087892	    2.245365	    0.160067	    0.121614	    0.113680	    1.175708	    0.895857	    1.220264	    2.574044	    1.981689	    1.925536	    1.753414	    1.300832	    1.261769
     4.455	0	0	    0	    0.608377	    0.585183	    0.616922	    1.712520	    1.317617	    1.819028	    2.462654	    2.095521	    2.247807	    0.160678	    0.121309	    0.114595	    1.179675	    0.893721	    1.225147	    2.595102	    1.980774	    1.916686	    1.750362	    1.306020	    1.259022
     4.510	0	0	    0	    0.607767	    0.584573	    0.620279	    1.721981	    1.321279	    1.819333	    2.453498	    2.092470	    2.252384	    0.160983	    0.121920	    0.113985	    1.181506	    0.894942	    1.232166	    2.600290	    2.011902	    1.908751	    1.757687	    1.308461	    1.256580
     4.565	0	0	    0	    0.606241	    0.585489	    0.620279	    1.718318	    1.319448	    1.812619	    2.476081	    2.095827	    2.277714	    0.160983	    0.121920	    0.115206	    1.186084	    0.900435	    1.226368	    2.574655	    1.998779	    1.912108	    1.757992	    1.317006	    1.263905
     4.620	0	0	    0	    0.609903	    0.589761	    0.619364	    1.720150	    1.323110	    1.823301	    2.466316	    2.087587	    2.248417	    0.161288	    0.122530	    0.115206	    1.188830	    0.897383	    1.231250	    2.579538	    1.993896	    1.920043	    1.763485	    1.315175	    1.275807
     4.675	0	0	    0	    0.610208	    0.590066	    0.623636	    1.728389	    1.324025	    1.826963	    2.473335	    2.113832	    2.276799	    0.161593	    0.122530	    0.115206	    1.192798	    0.901045	    1.235828	    2.608225	    2.013123	    1.919432	    1.771115	    1.315480	    1.275807
     4.730	0	0	    0	    0.612650	    0.593118	    0.623636	    1.730831	    1.328298	    1.833066	    2.495003	    2.113222	    2.261540	    0.162203	    0.121920	    0.115816	    1.190051	    0.904402	    1.242542	    2.625315	    2.025635	    1.925231	    1.778439	    1.318532	    1.282216
     4.785	0	0	    0	    0.614176	    0.592203	    0.627298	    1.732967	    1.334096	    1.835508	    2.479133	    2.121157	    2.283818	    0.162203	    0.122530	    0.117037	    1.196765	    0.905623	    1.238575	    2.621653	    2.039673	    1.938354	    1.786984	    1.327687	    1.290761
     4.840	0	0	    0	    0.616617	    0.592203	    0.628519	    1.733272	    1.335927	    1.844053	    2.491951	    2.122377	    2.279545	    0.161898	    0.123751	    0.116732	    1.198291	    0.907454	    1.245289	    2.636606	    2.036316	    1.947814	    1.785763	    1.332265	    1.292897
     4.895	0	0	    0	    0.617227	    0.595560	    0.630655	    1.737240	    1.341115	    1.845579	    2.503243	    2.103761	    2.285649	    0.163119	    0.124056	    0.116732	    1.193408	    0.909285	    1.243763	    2.642405	    2.045167	    1.961242	    1.791867	    1.339590	    1.291066
     4.950	0	0	    0	    0.618143	    0.598306	    0.634318	    1.749142	    1.342641	    1.851987	    2.511177	    2.116579	    2.312810	    0.163729	    0.123751	    0.117037	    1.201953	    0.912032	    1.253529	    2.638437	    2.045777	    1.970703	    1.798581	    1.342031	    1.298695
     5.005	0	0	    0	    0.609903	    0.590982	    0.622110	    1.746395	    1.338064	    1.843137	    2.467842	    2.112612	    2.273442	    0.161898	    0.123751	    0.115511	    1.200427	    0.904402	    1.243458	    2.625315	    2.041199	    1.928893	    1.782406	    1.329824	    1.278248
     5.060	0	0	    0	    0.605936	    0.585183	    0.618143	    1.732967	    1.324331	    1.829404	    2.451057	    2.099794	    2.245060	    0.160678	    0.121920	    0.115206	    1.189441	    0.897688	    1.232776	    2.581369	    2.020447	    1.928283	    1.765621	    1.315785	    1.269398
     5.115	0	0	    0	    0.606241	    0.583047	    0.618448	    1.724422	    1.324331	    1.827878	    2.445563	    2.087587	    2.246891	    0.160372	    0.121309	    0.114290	    1.181201	    0.895247	    1.227283	    2.581369	    1.993286	    1.896849	    1.752804	    1.303883	    1.259937
     5.170	0	0	    0	    0.606241	    0.584878	    0.615091	    1.724422	    1.320058	    1.814450	    2.453193	    2.073243	    2.211795	    0.161593	    0.121614	    0.114290	    1.180591	    0.890974	    1.216907	    2.583200	    1.997253	    1.895018	    1.758297	    1.302052	    1.259327
     5.225	0	0	    0	    0.604715	    0.582742	    0.620584	    1.723812	    1.321279	    1.812619	    2.462043	    2.067445	    2.240482	    0.161288	    0.121309	    0.113985	    1.181506	    0.894026	    1.222400	    2.570382	    1.987488	    1.888609	    1.754025	    1.298695	    1.261463
     5.280	0	0	    0	    0.606546	    0.583352	    0.618143	    1.723507	    1.326467	    1.822385	    2.465095	    2.068360	    2.232547	    0.160983	    0.121920	    0.113985	    1.186999	    0.897993	    1.224231	    2.596933	    1.991760	    1.902953	    1.755550	    1.310292	    1.259022
     5.335	0	0	    0	    0.609293	    0.585489	    0.619059	    1.719844	    1.323110	    1.824826	    2.455024	    2.083314	    2.241703	    0.162203	    0.121920	    0.114900	    1.184253	    0.897383	    1.233387	    2.592660	    2.001831	    1.919127	    1.760739	    1.310903	    1.264210
     5.390	0	0	    0	    0.609293	    0.588846	    0.621805	    1.729000	    1.324025	    1.820554	    2.459297	    2.107118	    2.247501	    0.161288	    0.121614	    0.115206	    1.189746	    0.901350	    1.230335	    2.595712	    2.000610	    1.909056	    1.767758	    1.310903	    1.268177
     5.445	0	0	    0	    0.608377	    0.588540	    0.621195	    1.738766	    1.331655	    1.832456	    2.469062	    2.107424	    2.252689	    0.160983	    0.123140	    0.115511	    1.193713	    0.901656	    1.232471	    2.599680	    2.029908	    1.913634	    1.775082	    1.318837	    1.270619
     5.500	0	0	    0	    0.612039	    0.589151	    0.626383	    1.736324	    1.331044	    1.832456	    2.477607	    2.100710	    2.278325	    0.161898	    0.123445	    0.116121	    1.194629	    0.901350	    1.237964	    2.604562	    2.023499	    1.916991	    1.776608	    1.321889	    1.275196
     5.555	0	0	    0	    0.612955	    0.591592	    0.624552	    1.733272	    1.334401	    1.837034	    2.464485	    2.090028	    2.259709	    0.162509	    0.123140	    0.115816	    1.193408	    0.904097	    1.238270	    2.611582	    2.017090	    1.939574	    1.782101	    1.324941	    1.286183
     5.610	0	0	    0	    0.613870	    0.592813	    0.628519	    1.743038	    1.339284	    1.841611	    2.476081	    2.099794	    2.281987	    0.162814	    0.123140	    0.117037	    1.200732	    0.905013	    1.242237	    2.636606	    2.037842	    1.939269	    1.790036	    1.332876	    1.285878
     5.665	0	0	    0	    0.613870	    0.593423	    0.630655	    1.749447	    1.343252	    1.849546	    2.488289	    2.097353	    2.287175	    0.162509	    0.124361	    0.117342	    1.199817	    0.910506	    1.242542	    2.647288	    2.036011	    1.960632	    1.786984	    1.336538	    1.284657
     5.720	0	0	    0	    0.619059	    0.597391	    0.633097	    1.751583	    1.345083	    1.858701	    2.491341	    2.128481	    2.300298	    0.163119	    0.124056	    0.117342	    1.204395	    0.908980	    1.251087	    2.609140	    2.057984	    1.957885	    1.786984	    1.338979	    1.292592
     5.775	0	0	    0	    0.618753	    0.598306	    0.634928	    1.754635	    1.347219	    1.865415	    2.514839	    2.122072	    2.282902	    0.164340	    0.124666	    0.117342	    1.205005	    0.909590	    1.252003	    2.646983	    2.067445	    1.957580	    1.801022	    1.342641	    1.298695
     5.830	0	0	    0	    0.611734	    0.589456	    0.621805	    1.749142	    1.339895	    1.852293	    2.469978	    2.094911	    2.244755	    0.162509	    0.123445	    0.116732	    1.198596	    0.905013	    1.244373	    2.613107	    2.016785	    1.918822	    1.776913	    1.315175	    1.271839
     5.885	0	0	    0	    0.607767	    0.586404	    0.619059	    1.737240	    1.332265	    1.832456	    2.472419	    2.093690	    2.264591	    0.160983	    0.122530	    0.115511	    1.184253	    0.898299	    1.228199	    2.605783	    2.006409	    1.893187	    1.765316	    1.308156	    1.265431
     5.940	0	0	    0	    0.606546	    0.583352	    0.616922	    1.727779	    1.330434	    1.824826	    2.447395	    2.089113	    2.235599	    0.161288	    0.121309	    0.114900	    1.183032	    0.894636	    1.221790	    2.585031	    1.978027	    1.909667	    1.750973	    1.302358	    1.255055
     5.995	0	0	    0	    0.603494	    0.581521	    0.616617	    1.722591	    1.320668	    1.825437	    2.446174	    2.063478	    2.234379	    0.160983	    0.121309	    0.114290	    1.175097	    0.890059	    1.221180	    2.580758	    1.971313	    1.904479	    1.749752	    1.294728	    1.252308
     6.050	0	0	    0	    0.606851	    0.585794	    0.617838	    1.727169	    1.325246	    1.825437	    2.447700	    2.090028	    2.242924	    0.159762	    0.121309	    0.113680	    1.180285	    0.891890	    1.218433	    2.565499	    1.978637	    1.898375	    1.745785	    1.300832	    1.254139
     6.105	0	0	    0	    0.607156	    0.583658	    0.619669	    1.730831	    1.322805	    1.823606	    2.444953	    2.065919	    2.253300	    0.161593	    0.121309	    0.114900	    1.185168	    0.889754	    1.226673	    2.563973	    1.996948	    1.905089	    1.750668	    1.299306	    1.259022
     6.160	0	0	    0	    0.608682	    0.584573	    0.617227	    1.730220	    1.328298	    1.830014	    2.468147	    2.075685	    2.239261	    0.160983	    0.122530	    0.114900	    1.188220	    0.895552	    1.225147	    2.560922	    1.993896	    1.903868	    1.749142	    1.304189	    1.257191
     6.215	0	0	    0	    0.608682	    0.589151	    0.619974	    1.733577	    1.329519	    1.835813	    2.456550	    2.081788	    2.238651	    0.161288	    0.121614	    0.115816	    1.189441	    0.900740	    1.235523	    2.579538	    1.989319	    1.913634	    1.751278	    1.303883	    1.263905
     6.270	0	0	    0	    0.609598	    0.589151	    0.621500	    1.736019	    1.330739	    1.832761	    2.463264	    2.109865	    2.258183	    0.162203	    0.123140	    0.115511	    1.194018	    0.899825	    1.232471	    2.600595	    2.013428	    1.911498	    1.763485	    1.308766	    1.264515
     6.325	0	0	    0	    0.612039	    0.590982	    0.626993	    1.736324	    1.337453	    1.835813	    2.455940	    2.108644	    2.258793	    0.162509	    0.122530	    0.115816	    1.193103	    0.900740	    1.237049	    2.610056	    2.032349	    1.926757	    1.769284	    1.315785	    1.269093
     6.380	0	0	    0	    0.612955	    0.592508	    0.625772	    1.739071	    1.341421	    1.848325	    2.480964	    2.112001	    2.277104	    0.162814	    0.123140	    0.116426	    1.195544	    0.904707	    1.238270	    2.609751	    2.025330	    1.944762	    1.772030	    1.320363	    1.274281
     6.435	0	0	    0	    0.615702	    0.591592	    0.628824	    1.745785	    1.339895	    1.851987	    2.482185	    2.096132	    2.267948	    0.163729	    0.123751	    0.117037	    1.197986	    0.906844	    1.243458	    2.611582	    2.005493	    1.928283	    1.777523	    1.317617	    1.278248
     6.490	0	0	    0	    0.615702	    0.594034	    0.631876	    1.752804	    1.340505	    1.852293	    2.480964	    2.117494	    2.301213	    0.163119	    0.124361	    0.116121	    1.202564	    0.905013	    1.245289	    2.621958	    2.029297	    1.936828	    1.786374	    1.329213	    1.285878
     6.545	0	0	    0	    0.615702	    0.594339	    0.634928	    1.757076	    1.347524	    1.857786	    2.491035	    2.133669	    2.282292	    0.163729	    0.124056	    0.116732	    1.205005	    0.908064	    1.244678	    2.630198	    2.054017	    1.951781	    1.788510	    1.338369	    1.289235
     6.600	0	0	    0	    0.619059	    0.597391	    0.636149	    1.758297	    1.354238	    1.869383	    2.516060	    2.129091	    2.299077	    0.163729	    0.124361	    0.117647	    1.206836	    0.909590	    1.254749	    2.651255	    2.040284	    1.971618	    1.802853	    1.340200	    1.298695
     6.655	0	0	    0	    0.620890	    0.599527	    0.631571	    1.761959	    1.358816	    1.869993	    2.504768	    2.134279	    2.283207	    0.163729	    0.124666	    0.118257	    1.204700	    0.913558	    1.250172	    2.653391	    2.035401	    1.961242	    1.798581	    1.334707	    1.295949
     6.710	0	0	    0	    0.610208	    0.589761	    0.626078	    1.754635	    1.345083	    1.853208	    2.474861	    2.092775	    2.259709	    0.163119	    0.123140	    0.116121	    1.202258	    0.903182	    1.238575	    2.619516	    2.005188	    1.908751	    1.782406	    1.318227	    1.274281
     6.765	0	0	    0	    0.610208	    0.586099	    0.621195	    1.742733	    1.332265	    1.843137	    2.456855	    2.090639	    2.246891	    0.162203	    0.123140	    0.115206	    1.193408	    0.894942	    1.228504	    2.586862	    2.014649	    1.909056	    1.761654	    1.312123	    1.259937
     6.820	0	0	    0	    0.607767	    0.586404	    0.618448	    1.737545	    1.334707	    1.834287	    2.463569	    2.079347	    2.254215	    0.160983	    0.122225	    0.115206	    1.186694	    0.894026	    1.223316	    2.577707	    1.985046	    1.892271	    1.752193	    1.300832	    1.259022
     6.875	0	0	    0	    0.609293	    0.585794	    0.617838	    1.729915	    1.323720	    1.835203	    2.460212	    2.081483	    2.236515	    0.161288	    0.121920	    0.115206	    1.179675	    0.890974	    1.223316	    2.576791	    1.994202	    1.909972	    1.747311	    1.301747	    1.259327
     6.930	0	0	    0	    0.607462	    0.587930	    0.621500	    1.734493	    1.324025	    1.835203	    2.449531	    2.092775	    2.266423	    0.161898	    0.121920	    0.115206	    1.188220	    0.892805	    1.228199	    2.595712	    2.016785	    1.911498	    1.759213	    1.307851	    1.265431
     6.985	0	0	    0	    0.607767	    0.587320	    0.622110	    1.740291	    1.328908	    1.836118	    2.465095	    2.094911	    2.250553	    0.160983	    0.122225	    0.115511	    1.189746	    0.894026	    1.227588	    2.599680	    1.993591	    1.901732	    1.761044	    1.306630	    1.262989
     7.040	0	0	    0	    0.610208	    0.588235	    0.621195	    1.734798	    1.332265	    1.835508	    2.485237	    2.098573	    2.265812	    0.161898	    0.122225	    0.115816	    1.191577	    0.896468	    1.227588	    2.574044	    2.012818	    1.927062	    1.756161	    1.305409	    1.268482
     7.095	0	0	    0	    0.612650	    0.588846	    0.625162	    1.738460	    1.335012	    1.840696	    2.493782	    2.089113	    2.254215	    0.162509	    0.122835	    0.116426	    1.197070	    0.897383	    1.233387	    2.626535	    2.010071	    1.933165	    1.773251	    1.313344	    1.274891
     7.150	0	0	    0	    0.612039	    0.590982	    0.626688	    1.739071	    1.338369	    1.842832	    2.469978	    2.121462	    2.269780	    0.162509	    0.123140	    0.116121	    1.196460	    0.905318	    1.236439	    2.611887	    2.025940	    1.929503	    1.774166	    1.318227	    1.277943
     7.205	0	0	    0	    0.613870	    0.592813	    0.629435	    1.750362	    1.345083	    1.845579	    2.480354	    2.115358	    2.295415	    0.162509	    0.123445	    0.116121	    1.205615	    0.906538	    1.239185	    2.614328	    2.037232	    1.945068	    1.774166	    1.325246	    1.284352
     7.260	0	0	    0	    0.615396	    0.595560	    0.629435	    1.751583	    1.348440	    1.850767	    2.487678	    2.115053	    2.302129	    0.163424	    0.123445	    0.117037	    1.205005	    0.910201	    1.240406	    2.633860	    2.038148	    1.938048	    1.781491	    1.329519	    1.287404
     7.315	0	0	    0	    0.619669	    0.597696	    0.630045	    1.754025	    1.347524	    1.862974	    2.501717	    2.111696	    2.299382	    0.163424	    0.123140	    0.117037	    1.205310	    0.906538	    1.245289	    2.635996	    2.030213	    1.940490	    1.790646	    1.326772	    1.287709
     7.370	0	0	    0	    0.618143	    0.601663	    0.637064	    1.758907	    1.350576	    1.867857	    2.496834	    2.125429	    2.310674	    0.164034	    0.124361	    0.116426	    1.203784	    0.912337	    1.250172	    2.661326	    2.048219	    1.937743	    1.785153	    1.335012	    1.284657
     7.425	0	0	    0	    0.622110	    0.601968	    0.639200	    1.763790	    1.357900	    1.871214	    2.508125	    2.145876	    2.307012	    0.164340	    0.124361	    0.118257	    1.214771	    0.908675	    1.248035	    2.645151	    2.051575	    1.961852	    1.799802	    1.331960	    1.295033
     7.480	0	0	    0	    0.620584	    0.596170	    0.632792	    1.760128	    1.357900	    1.875181	    2.499275	    2.109255	    2.300908	    0.165560	    0.124361	    0.117037	    1.207446	    0.914473	    1.257496	    2.664073	    2.050965	    1.961242	    1.791867	    1.332570	    1.294118
     7.535	0	0	    0	    0.614481	    0.593118	    0.626383	    1.753719	    1.346914	    1.856260	    2.489204	    2.095827	    2.271000	    0.162509	    0.122530	    0.115816	    1.201343	    0.906538	    1.241627	    2.615549	    2.018921	    1.926146	    1.772641	    1.311208	    1.274891
     7.590	0	0	    0	    0.612039	    0.591287	    0.624552	    1.747005	    1.338064	    1.845274	    2.470283	    2.115053	    2.278630	    0.162509	    0.122225	    0.115206	    1.193713	    0.901656	    1.236133	    2.609445	    2.006714	    1.916075	    1.765316	    1.308766	    1.265126
     7.645	0	0	    0	    0.611734	    0.587015	    0.622416	    1.743038	    1.339590	    1.844358	    2.460517	    2.087282	    2.272526	    0.161898	    0.123140	    0.115816	    1.191577	    0.899214	    1.233692	    2.592050	    2.018006	    1.909056	    1.757382	    1.311513	    1.265736
     7.700	0	0	    0	    0.612955	    0.591897	    0.625162	    1.743038	    1.334096	    1.847715	    2.488594	    2.102846	    2.255741	    0.161593	    0.122835	    0.115511	    1.192187	    0.901350	    1.236439	    2.607004	    1.996338	    1.918822	    1.756466	    1.309377	    1.265126
     7.755	0	0	    0	    0.611124	    0.590372	    0.625772	    1.743954	    1.339284	    1.843748	    2.478523	    2.106203	    2.268559	    0.160983	    0.122835	    0.114900	    1.196155	    0.899519	    1.231250	    2.607919	    2.010681	    1.915770	    1.767453	    1.312734	    1.268482
     7.810	0	0	    0	    0.613260	    0.591287	    0.627298	    1.738155	    1.334401	    1.844053	    2.482490	    2.109255	    2.271916	    0.162509	    0.122835	    0.116732	    1.193103	    0.903182	    1.236744	    2.629282	    2.009461	    1.916075	    1.769284	    1.309987	    1.275502
     7.865	0	0	    0	    0.612345	    0.592508	    0.629435	    1.745174	    1.341115	    1.846799	    2.457771	    2.102235	    2.264286	    0.162814	    0.123751	    0.116426	    1.201038	    0.908370	    1.237659	    2.598764	    2.010376	    1.916075	    1.778744	    1.320668	    1.277943
     7.920	0	0	    0	    0.616007	    0.593423	    0.629740	    1.745785	    1.342641	    1.852903	    2.479744	    2.111086	    2.276493	    0.162814	    0.123751	    0.117037	    1.200732	    0.911421	    1.245289	    2.606699	    2.012818	    1.918212	    1.774472	    1.325551	    1.285878
     7.975	0	0	    0	    0.618448	    0.597086	    0.633402	    1.748836	    1.344472	    1.861753	    2.483711	    2.103151	    2.281987	    0.163729	    0.124666	    0.115816	    1.205005	    0.909590	    1.251698	    2.615854	    2.021057	    1.940185	    1.788510	    1.335317	    1.282521
     8.030	0	0	    0	    0.619364	    0.598001	    0.634623	    1.756161	    1.343862	    1.862058	    2.495308	    2.120851	    2.281071	    0.164034	    0.124056	    0.117037	    1.209583	    0.910201	    1.252613	    2.635080	    2.037537	    1.935912	    1.803159	    1.338064	    1.295033
     8.085	0	0	    0	    0.619974	    0.600443	    0.635233	    1.760128	    1.353017	    1.865721	    2.497444	    2.114137	    2.292363	    0.164645	    0.123751	    0.117952	    1.214466	    0.913863	    1.256275	    2.628061	    2.028382	    1.950866	    1.801022	    1.344778	    1.296559
     8.140	0	0	    0	    0.621195	    0.601358	    0.637980	    1.754940	    1.357900	    1.871824	    2.494697	    2.129091	    2.301213	    0.164645	    0.125277	    0.118563	    1.207141	    0.916915	    1.259632	    2.645151	    2.042420	    1.953307	    1.804990	    1.352712	    1.307851
     8.195	0	0	    0	    0.619364	    0.595865	    0.628214	    1.757687	    1.354238	    1.873045	    2.504768	    2.123598	    2.280766	    0.164034	    0.124361	    0.117342	    1.212634	    0.915389	    1.259632	    2.633860	    2.042725	    1.942016	    1.802853	    1.337453	    1.296864
     8.250	0	0	    0	    0.613870	    0.593729	    0.628519	    1.747005	    1.344778	    1.851987	    2.482795	    2.111391	    2.247807	    0.162509	    0.123445	    0.116426	    1.199512	    0.909895	    1.247425	    2.628977	    2.022583	    1.913939	    1.787594	    1.324636	    1.275502
     8.305	0	0	    0	    0.613565	    0.590677	    0.627909	    1.748836	    1.339590	    1.846494	    2.471809	    2.083314	    2.268559	    0.161593	    0.123140	    0.116426	    1.202564	    0.905013	    1.238880	    2.609140	    2.029297	    1.906615	    1.770199	    1.322805	    1.276722
     8.360	0	0	    0	    0.613565	    0.589151	    0.625772	    1.743954	    1.337453	    1.847105	    2.470588	    2.081788	    2.268864	    0.161593	    0.123445	    0.116732	    1.199817	    0.904402	    1.239185	    2.595407	    2.012207	    1.922179	    1.770504	    1.319448	    1.279469
     8.415	0	0	    0	    0.613870	    0.592508	    0.626383	    1.741817	    1.334096	    1.851072	    2.466011	    2.103761	    2.282902	    0.162814	    0.123140	    0.116426	    1.196765	    0.900740	    1.238270	    2.595102	    2.022278	    1.934081	    1.778134	    1.322499	    1.280690
     8.470	0	0	    0	    0.614176	    0.594339	    0.626688	    1.738766	    1.338064	    1.846494	    2.478828	    2.127871	    2.267948	    0.162814	    0.123140	    0.115206	    1.198901	    0.907759	    1.242237	    2.621347	    2.020447	    1.934691	    1.787289	    1.324636	    1.277943
     8.525	0	0	    0	    0.613565	    0.595254	    0.630045	    1.743648	    1.337758	    1.843137	    2.473640	    2.112306	    2.278630	    0.162203	    0.123445	    0.116732	    1.201343	    0.908980	    1.237659	    2.632639	    2.013733	    1.930419	    1.783322	    1.327077	    1.283131
     8.580	0	0	    0	    0.617838	    0.594034	    0.631266	    1.742123	    1.346304	    1.852903	    2.505684	    2.108034	    2.268559	    0.163424	    0.124056	    0.117952	    1.203174	    0.911727	    1.244984	    2.627756	    2.037537	    1.946899	    1.780575	    1.331960	    1.293202
     8.635	0	0	    0	    0.619059	    0.598001	    0.629740	    1.749752	    1.345083	    1.855650	    2.503548	    2.134279	    2.287175	    0.163729	    0.123751	    0.117037	    1.208362	    0.912642	    1.247730	    2.640879	    2.032349	    1.949645	    1.793393	    1.334707	    1.290455
     8.690	0	0	    0	    0.619669	    0.598306	    0.634623	    1.753719	    1.348745	    1.863584	    2.509041	    2.119020	    2.289311	    0.164340	    0.124971	    0.117342	    1.209888	    0.914778	    1.256580	    2.646983	    2.041505	    1.957580	    1.798581	    1.341421	    1.292592
     8.745	0	0	    0	    0.622416	    0.600748	    0.637675	    1.758297	    1.347219	    1.863584	    2.507210	    2.134279	    2.289921	    0.164950	    0.124971	    0.117647	    1.211109	    0.912642	    1.256886	    2.633249	    2.050660	    1.954528	    1.798581	    1.347524	    1.302663
     8.800	0	0	    0	    0.621805	    0.601053	    0.639506	    1.759823	    1.353628	    1.866026	    2.502937	    2.160830	    2.303044	    0.164034	    0.125277	    0.117952	    1.214466	    0.918746	    1.253223	    2.663767	    2.044862	    1.981689	    1.809873	    1.351186	    1.308766
     8.855	0	0	    0	    0.622416	    0.601053	    0.635233	    1.763485	    1.351797	    1.874571	    2.500191	    2.134279	    2.306096	    0.165255	    0.124361	    0.117952	    1.215991	    0.916304	    1.258106	    2.678111	    2.045472	    1.978027	    1.811398	    1.346914	    1.307240
     8.910	0	0	    0	    0.616007	    0.594644	    0.628519	    1.751278	    1.341421	    1.859312	    2.473945	    2.123293	    2.274662	    0.163119	    0.123445	    0.116426	    1.206836	    0.909590	    1.248951	    2.620127	    2.024414	    1.943542	    1.785458	    1.331044	    1.286793
     8.965	0	0	    0	    0.612650	    0.592203	    0.625162	    1.743648	    1.337453	    1.839475	    2.461433	    2.118410	    2.258488	    0.162509	    0.123751	    0.115816	    1.200122	    0.906233	    1.234913	    2.620127	    2.007935	    1.932250	    1.789120	    1.326467	    1.278859
     9.020	0	0	    0	    0.611734	    0.588235	    0.623331	    1.736324	    1.340200	    1.838865	    2.473945	    2.096437	    2.257267	    0.161898	    0.123140	    0.116426	    1.193103	    0.902876	    1.236439	    2.610056	    2.020142	    1.940185	    1.778439	    1.321889	    1.276417
     9.075	0	0	    0	    0.613870	    0.589761	    0.623026	    1.736629	    1.331960	    1.834287	    2.489509	    2.106813	    2.252079	    0.161898	    0.122530	    0.115511	    1.195850	    0.902266	    1.234302	    2.609751	    2.012512	    1.924010	    1.771115	    1.322805	    1.275807
     9.130	0	0	    0	    0.614176	    0.591897	    0.622416	    1.737545	    1.326467	    1.839780	    2.471504	    2.110170	    2.260929	    0.161898	    0.122530	    0.115816	    1.203174	    0.903792	    1.238880	    2.618906	    2.020752	    1.910277	    1.779660	    1.332876	    1.283742
     9.185	0	0	    0	    0.610819	    0.589761	    0.626078	    1.741817	    1.329824	    1.834897	    2.477302	    2.104677	    2.276493	    0.163119	    0.123140	    0.116121	    1.205921	    0.905928	    1.241627	    2.624094	    2.032349	    1.934691	    1.789120	    1.325246	    1.282216
     9.240	0	0	    0	    0.613260	    0.591897	    0.626383	    1.738155	    1.335317	    1.841306	    2.489509	    2.115663	    2.273442	    0.162814	    0.123140	    0.116121	    1.209583	    0.908370	    1.244373	    2.639963	    2.034791	    1.933471	    1.785153	    1.325551	    1.288930
     9.295	0	0	    0	    0.616922	    0.593118	    0.627298	    1.741817	    1.334401	    1.845274	    2.505684	    2.121157	    2.289921	    0.162509	    0.123140	    0.116732	    1.211109	    0.908980	    1.251392	    2.649424	    2.037842	    1.947509	    1.795834	    1.327993	    1.291676
     9.350	0	0	    0	    0.616617	    0.595560	    0.630961	    1.748836	    1.337148	    1.843137	    2.491341	    2.134890	    2.301518	    0.163729	    0.124056	    0.117037	    1.208972	    0.914778	    1.248951	    2.649119	    2.058900	    1.946288	    1.796750	    1.337453	    1.291371
     9.405	0	0	    0	    0.619364	    0.595560	    0.633707	    1.748531	    1.340200	    1.843137	    2.515755	    2.140078	    2.321050	    0.164034	    0.124361	    0.117037	    1.214160	    0.917220	    1.250477	    2.660716	    2.048524	    1.946899	    1.800717	    1.342031	    1.303273
     9.460	0	0	    0	    0.620890	    0.598306	    0.634318	    1.751278	    1.344167	    1.852598	    2.493782	    2.129702	    2.312200	    0.163729	    0.124971	    0.117647	    1.216297	    0.916609	    1.255055	    2.661021	    2.058900	    1.953002	    1.805295	    1.346609	    1.299306
     9.515	0	0	    0	    0.621195	    0.601358	    0.633707	    1.750973	    1.342641	    1.859007	    2.535592	    2.135195	    2.292668	    0.163729	    0.124666	    0.117647	    1.213245	    0.914778	    1.258106	    2.661936	    2.068055	    1.980468	    1.808042	    1.347219	    1.309071
     9.570	0	0	    0	    0.622110	    0.602274	    0.637369	    1.758602	    1.347524	    1.865721	    2.528267	    2.144350	    2.328985	    0.164645	    0.124666	    0.117952	    1.216602	    0.922713	    1.262074	    2.666514	    2.053101	    1.960021	    1.825437	    1.352102	    1.307546
     9.625	0	0	    0	    0.617227	    0.596170	    0.630045	    1.758602	    1.351797	    1.855955	    2.499275	    2.121462	    2.286564	    0.164340	    0.124056	    0.117037	    1.221180	    0.917525	    1.254444	    2.662852	    2.058289	    1.966125	    1.801938	    1.345693	    1.299611
     9.680	0	0	    0	    0.614176	    0.591897	    0.625162	    1.739376	    1.338064	    1.841611	    2.479438	    2.107729	    2.271611	    0.162814	    0.123140	    0.115816	    1.205310	    0.912947	    1.244984	    2.622568	    2.012818	    1.931640	    1.785458	    1.325856	    1.281300
     9.735	0	0	    0	    0.611734	    0.590372	    0.622416	    1.733272	    1.333486	    1.827878	    2.467536	    2.098573	    2.274968	    0.161898	    0.122225	    0.115511	    1.199817	    0.902571	    1.234607	    2.636606	    2.016785	    1.937133	    1.775387	    1.319142	    1.276722
     9.790	0	0	    0	    0.609903	    0.587015	    0.618753	    1.730220	    1.324025	    1.826047	    2.484016	    2.101015	    2.254826	    0.161898	    0.121920	    0.114290	    1.200122	    0.898604	    1.227893	    2.588998	    2.004883	    1.897459	    1.767147	    1.312428	    1.270619
     9.845	0	0	    0	    0.611124	    0.586099	    0.621195	    1.731136	    1.318532	    1.819638	    2.480354	    2.092470	    2.253910	    0.161593	    0.121920	    0.114595	    1.196765	    0.897993	    1.228199	    2.604257	    2.023194	    1.912718	    1.770504	    1.317617	    1.270619
     9.900	0	0	    0	    0.612955	    0.586709	    0.620890	    1.728389	    1.320058	    1.821164	    2.477607	    2.093996	    2.250553	    0.163119	    0.122835	    0.116426	    1.197681	    0.897688	    1.233692	    2.611887	    2.005798	    1.935912	    1.769894	    1.318532	    1.276112
     9.955	0	0	    0	    0.610819	    0.588235	    0.621805	    1.730220	    1.325551	    1.826658	    2.476692	    2.096742	    2.249027	    0.162814	    0.122835	    0.115816	    1.202869	    0.902876	    1.233692	    2.616770	    2.022278	    1.912718	    1.778744	    1.311818	    1.275502
    10.010	0	0	    0	    0.612650	    0.590677	    0.624552	    1.730526	    1.323110	    1.822690	    2.488289	    2.104067	    2.247196	    0.163424	    0.122530	    0.115206	    1.202564	    0.907149	    1.239490	    2.645151	    2.016175	    1.909667	    1.780270	    1.318532	    1.273976
    10.065	0	0	    0	    0.612650	    0.592203	    0.624552	    1.735714	    1.326772	    1.826352	    2.499886	    2.108949	    2.269169	    0.163119	    0.122225	    0.116426	    1.206226	    0.907149	    1.241627	    2.620127	    2.042115	    1.935912	    1.785153	    1.321279	    1.283436
    10.120	0	0	    0	    0.615702	    0.590982	    0.628824	    1.727779	    1.330739	    1.833066	    2.491951	    2.113527	    2.281376	    0.163424	    0.123751	    0.116426	    1.208972	    0.909895	    1.242237	    2.617075	    2.011292	    1.939879	    1.787594	    1.331960	    1.288930
    10.175	0	0	    0	    0.619059	    0.593118	    0.627298	    1.736934	    1.332265	    1.837644	    2.511788	    2.119631	    2.270390	    0.163424	    0.123140	    0.116732	    1.213245	    0.910506	    1.249561	    2.642100	    2.031739	    1.939269	    1.795529	    1.332876	    1.288014
    10.230	0	0	    0	    0.619364	    0.596780	    0.629740	    1.736019	    1.329519	    1.840696	    2.498054	    2.114748	    2.288090	    0.163424	    0.123140	    0.115816	    1.210498	    0.910506	    1.253223	    2.638132	    2.033875	    1.942321	    1.800717	    1.335622	    1.293812
    10.285	0	0	    0	    0.619364	    0.596780	    0.632486	    1.743954	    1.337148	    1.841001	    2.483406	    2.126955	    2.301518	    0.164340	    0.124361	    0.116426	    1.217823	    0.914473	    1.250477	    2.664073	    2.037842	    1.938659	    1.804685	    1.339895	    1.292287
    10.340	0	0	    0	    0.620890	    0.598611	    0.633097	    1.748836	    1.338979	    1.848325	    2.524910	    2.140078	    2.298772	    0.164340	    0.124056	    0.117037	    1.221485	    0.918135	    1.254139	    2.650340	    2.037537	    1.954528	    1.804990	    1.340200	    1.299916
    10.395	0	0	    0	    0.622721	    0.601053	    0.634623	    1.747616	    1.341421	    1.848020	    2.517891	    2.147097	    2.289311	    0.164645	    0.124361	    0.118257	    1.218128	    0.919356	    1.252308	    2.675669	    2.050660	    1.967041	    1.809567	    1.349355	    1.305104
    10.450	0	0	    0	    0.613870	    0.593118	    0.626383	    1.741817	    1.337453	    1.844358	    2.503853	    2.104372	    2.264591	    0.164034	    0.123140	    0.116121	    1.215991	    0.915999	    1.246815	    2.659800	    2.038758	    1.938048	    1.796139	    1.333486	    1.290761
    10.505	0	0	    0	    0.613565	    0.590066	    0.623941	    1.730831	    1.328908	    1.827878	    2.485542	    2.101015	    2.270390	    0.162203	    0.123140	    0.115511	    1.210803	    0.905928	    1.240101	    2.603342	    2.007935	    1.927672	    1.780575	    1.318532	    1.272450
    10.560	0	0	    0	    0.611124	    0.587930	    0.620890	    1.730220	    1.324636	    1.823911	    2.475166	    2.094301	    2.273136	    0.161593	    0.122225	    0.114900	    1.206836	    0.904707	    1.232776	    2.621347	    2.010376	    1.930419	    1.765316	    1.313344	    1.270008
    10.615	0	0	    0	    0.612345	    0.587015	    0.619059	    1.722896	    1.314260	    1.817502	    2.472724	    2.103456	    2.244144	    0.161288	    0.121309	    0.115511	    1.198901	    0.895552	    1.230030	    2.589609	    2.006714	    1.921569	    1.760433	    1.308766	    1.264820
    10.670	0	0	    0	    0.609598	    0.586099	    0.621805	    1.724422	    1.316396	    1.816892	    2.477607	    2.097658	    2.250858	    0.162814	    0.122835	    0.114595	    1.201343	    0.900130	    1.229114	    2.603342	    2.007935	    1.916381	    1.771725	    1.312734	    1.261769
    10.725	0	0	    0	    0.609293	    0.589151	    0.623026	    1.724422	    1.320058	    1.813840	    2.478523	    2.099184	    2.274357	    0.163119	    0.123140	    0.114900	    1.201953	    0.901045	    1.232166	    2.611276	    2.010376	    1.919127	    1.774166	    1.311818	    1.268482
    10.780	0	0	    0	    0.613260	    0.588235	    0.624247	    1.727779	    1.319448	    1.813840	    2.466926	    2.107729	    2.265507	    0.162203	    0.121920	    0.115816	    1.204395	    0.905013	    1.231250	    2.622873	    2.028687	    1.936522	    1.779355	    1.311513	    1.272450
    10.835	0	0	    0	    0.612955	    0.589456	    0.624857	    1.720455	    1.318837	    1.822385	    2.495308	    2.103151	    2.262760	    0.163424	    0.123140	    0.115206	    1.204700	    0.907759	    1.240101	    2.622568	    2.023804	    1.939574	    1.782101	    1.323720	    1.277333
    10.890	0	0	    0	    0.616007	    0.590982	    0.627604	    1.726558	    1.321279	    1.824521	    2.487373	    2.131228	    2.291752	    0.162814	    0.123140	    0.115816	    1.209277	    0.908980	    1.243763	    2.646677	    2.037537	    1.916991	    1.790341	    1.326467	    1.278248
    10.945	0	0	    0	    0.615702	    0.594949	    0.628214	    1.732967	    1.324025	    1.825132	    2.508125	    2.124819	    2.303349	    0.163729	    0.122530	    0.115816	    1.215686	    0.912032	    1.245289	    2.650950	    2.032959	    1.956664	    1.789120	    1.327687	    1.284962
    11.000	0	0	    0	    0.617533	    0.593118	    0.628824	    1.737850	    1.326467	    1.833677	    2.517586	    2.107118	    2.302739	    0.164950	    0.123445	    0.117037	    1.213855	    0.912642	    1.243153	    2.626230	    2.060731	    1.961547	    1.788205	    1.333181	    1.289540
    11.055	0	0	    0	    0.620584	    0.596170	    0.632486	    1.739986	    1.333486	    1.838560	    2.524300	    2.139773	    2.305791	    0.164340	    0.122835	    0.117647	    1.221790	    0.914778	    1.253529	    2.655528	    2.044251	    1.961242	    1.802243	    1.330434	    1.291066
    11.110	0	0	    0	    0.620279	    0.598917	    0.633097	    1.742123	    1.332876	    1.841917	    2.522469	    2.146792	    2.301823	    0.164034	    0.123445	    0.117037	    1.220264	    0.917525	    1.252918	    2.671092	    2.051881	    1.966125	    1.800717	    1.338369	    1.297169
    11.165	0	0	    0	    0.624247	    0.599832	    0.636759	    1.747005	    1.336538	    1.841001	    2.533455	    2.152285	    2.339971	    0.164950	    0.124056	    0.117647	    1.219959	    0.915389	    1.253834	    2.679637	    2.068055	    1.972839	    1.809567	    1.343557	    1.301747
    11.220	0	0	    0	    0.624552	    0.599832	    0.638285	    1.748836	    1.341726	    1.850462	    2.541695	    2.148928	    2.322576	    0.164340	    0.124056	    0.117342	    1.223011	    0.916609	    1.255055	    2.695201	    2.057069	    1.992981	    1.816587	    1.348745	    1.307851
    11.275	0	0	    0	    0.624857	    0.599222	    0.635233	    1.747311	    1.344167	    1.848631	    2.538033	    2.159609	    2.328374	    0.164950	    0.124056	    0.117037	    1.218128	    0.919051	    1.250477	    2.680858	    2.074159	    1.978027	    1.814145	    1.346914	    1.302968
    11.330	0	0	    0	    0.616617	    0.593423	    0.626383	    1.740902	    1.333791	    1.835813	    2.514229	    2.138247	    2.280156	    0.164034	    0.122835	    0.116426	    1.212940	    0.911421	    1.242542	    2.660716	    2.041199	    1.951781	    1.792477	    1.328298	    1.287098
    11.385	0	0	    0	    0.613565	    0.590677	    0.625772	    1.738766	    1.320974	    1.825437	    2.487068	    2.108949	    2.280766	    0.163119	    0.122530	    0.115206	    1.210498	    0.901961	    1.236133	    2.623789	    2.035096	    1.960021	    1.780575	    1.320668	    1.272755
    11.440	0	0	    0	    0.612650	    0.590372	    0.622416	    1.731746	    1.321279	    1.826047	    2.484627	    2.097963	    2.261845	    0.161898	    0.121614	    0.114595	    1.205615	    0.898909	    1.229114	    2.624704	    2.031128	    1.927062	    1.772946	    1.314260	    1.264820
    11.495	0	0	    0	    0.614176	    0.590677	    0.623331	    1.723812	    1.322499	    1.821469	    2.474861	    2.104372	    2.259098	    0.161593	    0.121309	    0.115511	    1.201343	    0.897993	    1.228809	    2.616770	    2.001526	    1.924010	    1.766842	    1.307240	    1.266651
    11.550	0	0	    0	    0.614786	    0.590982	    0.623026	    1.722591	    1.315480	    1.821775	    2.467842	    2.120241	    2.260624	    0.162814	    0.122225	    0.114595	    1.198291	    0.898909	    1.232776	    2.629892	    2.001526	    1.927367	    1.780270	    1.308766	    1.270008
    11.605	0	0	    0	    0.612650	    0.589456	    0.625772	    1.733883	    1.322499	    1.815671	    2.475166	    2.099489	    2.247807	    0.163119	    0.122225	    0.115206	    1.210193	    0.901656	    1.231556	    2.635386	    2.023194	    1.935912	    1.780880	    1.318227	    1.268788
    11.660	0	0	    0	    0.614786	    0.592203	    0.626078	    1.729305	    1.327382	    1.819333	    2.491951	    2.129091	    2.295109	    0.162509	    0.122530	    0.115816	    1.210803	    0.906538	    1.233082	    2.617685	    2.041810	    1.949950	    1.786374	    1.316091	    1.269093
    11.715	0	0	    0	    0.617838	    0.592508	    0.626078	    1.732662	    1.327382	    1.831540	    2.492866	    2.113222	    2.287175	    0.164034	    0.122530	    0.115816	    1.209583	    0.907149	    1.243153	    2.625620	    2.028992	    1.932250	    1.782406	    1.324636	    1.277028
    11.770	0	0	    0	    0.619364	    0.595865	    0.627298	    1.736934	    1.324025	    1.834592	    2.507820	    2.135500	    2.295720	    0.164034	    0.123751	    0.116426	    1.216907	    0.906233	    1.245899	    2.644236	    2.044556	    1.938659	    1.793393	    1.326162	    1.278553
    11.825	0	0	    0	    0.617838	    0.597086	    0.629740	    1.743343	    1.331960	    1.833066	    2.491341	    2.110475	    2.299382	    0.164034	    0.123751	    0.116732	    1.219959	    0.911421	    1.247120	    2.654002	    2.035706	    1.940795	    1.790646	    1.331044	    1.284657
    11.880	0	0	    0	    0.619059	    0.598306	    0.633707	    1.745480	    1.332265	    1.838254	    2.520943	    2.117189	    2.303349	    0.164645	    0.123751	    0.116426	    1.218128	    0.912947	    1.244068	    2.657053	    2.055543	    1.963378	    1.798886	    1.335622	    1.288624
    11.935	0	0	    0	    0.623636	    0.599832	    0.633402	    1.743038	    1.338979	    1.844968	    2.536507	    2.148318	    2.281682	    0.164950	    0.123751	    0.117037	    1.213855	    0.915389	    1.250477	    2.655833	    2.042115	    1.962463	    1.803464	    1.335317	    1.291981
    11.990	0	0	    0	    0.621500	    0.601968	    0.637064	    1.751278	    1.341115	    1.850156	    2.521248	    2.149233	    2.300908	    0.165255	    0.123445	    0.117037	    1.219654	    0.917220	    1.252613	    2.674144	    2.055543	    1.975891	    1.808042	    1.340810	    1.299611
    12.045	0	0	    0	    0.625162	    0.602274	    0.639811	    1.757992	    1.343862	    1.853208	    2.520333	    2.154726	    2.320745	    0.165255	    0.124056	    0.117037	    1.222400	    0.918135	    1.255665	    2.689708	    2.068360	    1.962158	    1.814755	    1.349660	    1.303578
    12.100	0	0	    0	    0.623636	    0.599832	    0.636149	    1.761044	    1.346304	    1.856870	    2.525216	    2.131838	    2.311589	    0.164340	    0.124666	    0.117037	    1.226978	    0.918746	    1.258412	    2.685130	    2.058595	    1.970397	    1.814145	    1.347524	    1.298695
    12.155	0	0	    0	    0.619974	    0.593118	    0.627604	    1.747616	    1.340505	    1.846799	    2.509346	    2.104067	    2.271000	    0.163424	    0.123140	    0.115816	    1.215076	    0.910506	    1.244068	    2.638132	    2.038453	    1.938354	    1.789425	    1.328603	    1.284352
    12.210	0	0	    0	    0.618448	    0.593118	    0.625772	    1.741207	    1.331655	    1.837339	    2.491646	    2.123293	    2.263371	    0.162203	    0.122835	    0.115816	    1.210193	    0.907454	    1.240101	    2.615244	    2.019837	    1.934997	    1.790036	    1.317617	    1.272755
    12.265	0	0	    0	    0.613565	    0.589456	    0.627298	    1.736324	    1.330434	    1.826963	    2.490120	    2.085451	    2.273442	    0.162814	    0.122530	    0.114290	    1.201648	    0.900740	    1.232166	    2.627756	    2.028382	    1.925536	    1.781186	    1.319753	    1.275807
    12.320	0	0	    0	    0.613870	    0.592203	    0.628824	    1.735103	    1.330129	    1.826047	    2.490730	    2.111086	    2.277714	    0.163119	    0.123140	    0.115206	    1.206226	    0.903792	    1.231250	    2.621653	    2.020447	    1.945373	    1.776913	    1.322194	    1.277943
    12.375	0	0	    0	    0.617227	    0.592813	    0.627298	    1.740902	    1.332265	    1.837339	    2.493172	    2.096437	    2.262455	    0.163424	    0.122530	    0.116426	    1.205310	    0.908370	    1.241016	    2.629892	    2.032044	    1.925841	    1.783017	    1.320668	    1.278859
    12.430	0	0	    0	    0.616007	    0.594339	    0.628214	    1.741817	    1.333181	    1.835508	    2.497139	    2.114443	    2.273136	    0.162814	    0.123445	    0.115511	    1.214160	    0.909285	    1.241932	    2.634165	    2.042725	    1.943542	    1.779660	    1.324331	    1.277943
    12.485	0	0	    0	    0.619059	    0.595560	    0.630961	    1.743343	    1.327077	    1.837034	    2.493477	    2.115663	    2.267033	    0.163729	    0.123445	    0.116426	    1.213855	    0.908370	    1.238880	    2.631113	    2.038148	    1.945068	    1.791257	    1.325856	    1.284962
    12.540	0	0	    0	    0.617533	    0.596780	    0.630961	    1.747921	    1.338979	    1.844358	    2.502937	    2.111086	    2.276493	    0.163424	    0.123751	    0.116426	    1.218738	    0.910811	    1.244373	    2.627451	    2.059815	    1.949950	    1.795529	    1.334096	    1.288014
    12.595	0	0	    0	    0.620890	    0.599222	    0.632181	    1.742123	    1.342641	    1.850462	    2.504768	    2.117189	    2.295415	    0.163729	    0.123445	    0.117037	    1.215381	    0.914473	    1.248646	    2.660716	    2.025330	    1.952697	    1.799191	    1.328603	    1.289845
    12.650	0	0	    0	    0.620279	    0.600443	    0.634928	    1.752804	    1.345388	    1.845884	    2.512093	    2.129091	    2.293889	    0.164340	    0.123140	    0.116732	    1.220569	    0.915694	    1.245594	    2.668345	    2.050660	    1.958495	    1.800107	    1.339590	    1.291981
    12.705	0	0	    0	    0.623331	    0.601968	    0.635538	    1.760739	    1.345998	    1.850462	    2.509346	    2.136416	    2.294804	    0.164340	    0.123751	    0.117037	    1.221790	    0.914778	    1.244373	    2.673228	    2.070497	    1.964599	    1.816892	    1.344778	    1.302052
    12.760	0	0	    0	    0.622721	    0.601358	    0.638895	    1.755856	    1.352712	    1.859007	    2.511788	    2.123903	    2.302129	    0.164340	    0.123751	    0.117037	    1.220874	    0.921798	    1.257496	    2.659190	    2.066224	    1.971618	    1.811398	    1.345998	    1.304494
    12.815	0	0	    0	    0.627298	    0.604715	    0.637064	    1.757076	    1.353628	    1.869078	    2.505379	    2.135805	    2.309453	    0.164340	    0.124666	    0.117952	    1.216907	    0.918746	    1.260243	    2.674754	    2.061952	    1.974670	    1.815366	    1.352102	    1.310292
    12.870	0	0	    0	    0.619974	    0.596780	    0.629740	    1.756466	    1.344472	    1.860533	    2.508736	    2.114748	    2.285954	    0.164340	    0.123140	    0.116426	    1.218128	    0.912642	    1.256886	    2.673838	    2.046693	    1.955138	    1.807736	    1.338979	    1.295644
    12.925	0	0	    0	    0.614786	    0.596170	    0.629435	    1.752193	    1.338674	    1.849546	    2.479438	    2.123903	    2.267643	    0.163424	    0.122835	    0.115816	    1.211414	    0.908370	    1.241016	    2.655528	    2.048219	    1.930114	    1.795224	    1.332265	    1.283742
    12.980	0	0	    0	    0.616007	    0.592813	    0.627298	    1.749447	    1.338064	    1.844663	    2.500191	    2.103456	    2.280461	    0.163424	    0.122835	    0.115511	    1.209277	    0.909285	    1.239490	    2.635386	    2.014649	    1.929808	    1.787289	    1.324331	    1.280690
    13.035	0	0	    0	    0.615396	    0.591592	    0.625467	    1.743648	    1.334401	    1.841611	    2.467231	    2.094911	    2.278019	    0.161898	    0.122835	    0.115206	    1.205005	    0.905928	    1.237354	    2.611276	    2.013733	    1.920043	    1.779965	    1.321279	    1.280995
    13.090	0	0	    0	    0.616922	    0.591592	    0.626078	    1.745785	    1.335927	    1.841001	    2.484321	    2.097047	    2.278630	    0.163424	    0.121920	    0.115206	    1.209583	    0.905013	    1.233997	    2.631418	    2.024414	    1.925841	    1.792782	    1.325246	    1.279164
    13.145	0	0	    0	    0.615396	    0.594034	    0.627604	    1.744259	    1.338674	    1.843748	    2.477302	    2.119326	    2.262150	    0.162509	    0.123140	    0.115206	    1.206531	    0.901656	    1.237659	    2.639963	    2.030823	    1.934691	    1.797360	    1.327077	    1.275807
    13.200	0	0	    0	    0.616312	    0.594949	    0.629129	    1.752193	    1.341421	    1.842527	    2.486763	    2.093385	    2.265812	    0.162509	    0.123140	    0.115206	    1.212329	    0.911116	    1.235828	    2.621347	    2.023194	    1.930724	    1.787289	    1.324025	    1.281910
    13.255	0	0	    0	    0.619364	    0.594949	    0.629740	    1.746700	    1.340810	    1.854124	    2.494087	    2.116579	    2.289006	    0.162814	    0.123140	    0.115816	    1.209583	    0.904707	    1.244373	    2.643931	    2.031434	    1.951171	    1.794919	    1.329519	    1.289235
    13.310	0	0	    0	    0.618448	    0.596780	    0.631876	    1.750057	    1.338369	    1.855344	    2.498665	    2.112306	    2.283513	    0.163729	    0.122835	    0.115816	    1.211414	    0.908980	    1.250782	    2.647288	    2.055238	    1.954833	    1.801633	    1.335317	    1.291066
    13.365	0	0	    0	    0.622721	    0.600137	    0.634623	    1.757076	    1.346609	    1.858396	    2.507820	    2.133364	    2.303960	    0.163729	    0.123140	    0.116426	    1.221485	    0.912032	    1.249561	    2.660410	    2.051575	    1.960021	    1.807736	    1.338064	    1.292897
    13.420	0	0	    0	    0.622721	    0.599222	    0.635538	    1.760739	    1.346914	    1.865110	    2.515755	    2.128176	    2.309453	    0.164340	    0.122835	    0.116732	    1.218738	    0.912947	    1.252308	    2.658274	    2.052796	    1.956664	    1.798581	    1.337148	    1.296254
    13.475	0	0	    0	    0.623636	    0.599832	    0.633707	    1.757992	    1.352407	    1.865415	    2.526131	    2.140688	    2.313725	    0.164645	    0.123751	    0.117037	    1.215076	    0.917220	    1.252918	    2.647898	    2.045777	    1.958190	    1.810178	    1.343862	    1.301747
    13.530	0	0	    0	    0.625772	    0.603189	    0.640726	    1.762264	    1.356680	    1.873350	    2.529793	    2.148623	    2.316777	    0.164645	    0.123140	    0.117647	    1.218128	    0.915694	    1.257801	    2.693980	    2.075990	    1.964599	    1.814450	    1.343862	    1.300221
    13.585	0	0	    0	    0.625162	    0.601358	    0.639200	    1.773861	    1.360647	    1.873960	    2.529183	    2.135500	    2.318608	    0.164950	    0.124056	    0.117037	    1.221485	    0.919051	    1.256275	    2.658885	    2.057374	    1.939574	    1.813230	    1.341421	    1.298085
    13.640	0	0	    0	    0.616617	    0.592508	    0.628824	    1.759213	    1.350271	    1.860227	    2.478218	    2.116884	    2.285039	    0.163119	    0.122225	    0.115511	    1.215381	    0.909285	    1.244373	    2.617075	    2.040284	    1.953918	    1.792477	    1.332570	    1.281910
    13.695	0	0	    0	    0.612955	    0.593118	    0.625162	    1.751278	    1.339284	    1.853513	    2.467231	    2.088502	    2.241093	    0.161593	    0.122530	    0.114900	    1.204700	    0.901656	    1.238270	    2.621347	    2.029297	    1.934081	    1.778439	    1.319753	    1.277333
    13.750	0	0	    0	    0.613565	    0.590066	    0.623941	    1.747311	    1.338674	    1.847715	    2.473640	    2.100099	    2.252995	    0.161898	    0.121309	    0.113375	    1.203479	    0.901350	    1.235828	    2.608835	    2.005493	    1.909667	    1.779660	    1.306325	    1.264210
    13.805	0	0	    0	    0.612650	    0.589761	    0.622110	    1.746700	    1.334096	    1.837034	    2.451972	    2.113832	    2.259403	    0.162203	    0.121614	    0.113985	    1.202258	    0.897078	    1.225452	    2.583200	    2.014649	    1.919738	    1.770504	    1.311513	    1.264820
    13.860	0	0	    0	    0.611429	    0.588846	    0.624857	    1.746700	    1.337453	    1.843137	    2.469978	    2.084535	    2.253605	    0.162203	    0.121614	    0.113985	    1.202564	    0.901961	    1.229725	    2.605783	    2.006409	    1.923400	    1.775387	    1.312734	    1.269703
    13.915	0	0	    0	    0.616922	    0.589151	    0.621500	    1.744869	    1.339895	    1.844663	    2.476997	    2.085756	    2.250858	    0.161593	    0.121920	    0.114900	    1.202869	    0.904097	    1.235523	    2.610666	    2.018311	    1.917296	    1.775692	    1.312123	    1.265126
    13.970	0	0	    0	    0.614481	    0.590372	    0.623636	    1.748531	    1.332570	    1.848631	    2.476387	    2.098878	    2.242313	    0.162203	    0.121614	    0.114900	    1.208362	    0.901350	    1.238270	    2.612497	    2.033265	    1.911803	    1.770504	    1.314565	    1.268177
    14.025	0	0	    0	    0.616007	    0.590982	    0.625162	    1.750057	    1.334401	    1.848325	    2.478828	    2.109865	    2.273442	    0.162814	    0.122530	    0.115206	    1.208972	    0.905013	    1.237354	    2.613107	    2.005798	    1.926146	    1.779660	    1.320974	    1.273060
    14.080	0	0	    0	    0.617227	    0.591592	    0.630961	    1.755245	    1.342947	    1.855039	    2.502327	    2.098878	    2.292363	    0.162509	    0.121920	    0.115511	    1.208667	    0.908064	    1.241627	    2.625620	    2.034485	    1.938964	    1.779049	    1.323720	    1.276417
    14.135	0	0	    0	    0.617838	    0.596475	    0.629740	    1.754635	    1.347524	    1.857176	    2.495613	    2.115053	    2.285039	    0.162814	    0.122835	    0.115816	    1.210193	    0.912642	    1.242847	    2.629892	    2.037232	    1.963989	    1.788510	    1.320668	    1.286793
    14.190	0	0	    0	    0.619974	    0.598001	    0.632486	    1.754025	    1.347219	    1.862058	    2.509957	    2.116884	    2.290837	    0.163729	    0.123140	    0.115816	    1.208972	    0.909590	    1.248646	    2.646067	    2.043946	    1.941100	    1.792782	    1.333486	    1.290455
    14.245	0	0	    0	    0.619669	    0.598306	    0.634928	    1.766232	    1.350271	    1.859922	    2.515145	    2.135805	    2.299687	    0.163119	    0.122835	    0.116121	    1.217212	    0.914473	    1.247120	    2.653086	    2.055543	    1.958495	    1.795834	    1.335317	    1.296254
    14.300	0	0	    0	    0.623636	    0.599527	    0.635843	    1.764706	    1.356985	    1.869993	    2.515450	    2.131533	    2.308843	    0.163424	    0.124056	    0.117037	    1.217823	    0.918441	    1.249256	    2.665904	    2.061646	    1.972839	    1.801022	    1.342641	    1.305104
    14.355	0	0	    0	    0.624857	    0.600137	    0.639200	    1.768673	    1.352712	    1.876707	    2.538949	    2.136110	    2.324102	    0.164034	    0.123445	    0.117037	    1.220264	    0.915999	    1.252308	    2.665904	    2.060731	    1.977417	    1.811093	    1.347524	    1.302968
    14.410	0	0	    0	    0.626078	    0.605325	    0.638285	    1.770809	    1.358816	    1.880980	    2.527962	    2.145266	    2.316777	    0.164950	    0.124971	    0.116732	    1.219654	    0.918441	    1.260853	    2.671397	    2.079652	    1.979858	    1.816892	    1.350576	    1.307851
    14.465	0	0	    0	    0.617838	    0.594339	    0.630045	    1.772946	    1.355764	    1.871519	    2.504158	    2.097658	    2.292058	    0.163119	    0.123140	    0.116121	    1.213855	    0.912032	    1.248035	    2.663462	    2.044251	    1.944152	    1.801022	    1.334401	    1.288930
    14.520	0	0	    0	    0.614481	    0.589456	    0.625467	    1.758297	    1.346914	    1.855039	    2.490120	    2.094911	    2.268254	    0.161288	    0.121920	    0.114900	    1.205615	    0.904707	    1.236133	    2.614633	    2.016480	    1.931640	    1.777829	    1.320668	    1.278553
    14.575	0	0	    0	    0.611734	    0.588846	    0.621500	    1.748226	    1.339590	    1.848325	    2.472114	    2.098573	    2.248722	    0.160983	    0.121920	    0.114595	    1.199207	    0.900130	    1.229419	    2.611887	    2.016785	    1.942016	    1.776303	    1.316091	    1.275196
    14.630	0	0	    0	    0.611734	    0.587625	    0.618753	    1.745480	    1.333791	    1.842222	    2.470588	    2.096437	    2.242618	    0.161288	    0.121309	    0.113985	    1.194934	    0.897383	    1.225757	    2.602426	    2.005493	    1.910582	    1.774472	    1.310292	    1.259632
    14.685	0	0	    0	    0.612039	    0.586404	    0.624857	    1.742428	    1.335622	    1.840696	    2.458381	    2.096132	    2.266117	    0.161288	    0.121309	    0.113985	    1.194018	    0.897993	    1.227893	    2.600900	    2.011292	    1.906920	    1.768063	    1.312734	    1.266041
    14.740	0	0	    0	    0.613260	    0.589456	    0.619974	    1.740291	    1.339284	    1.836118	    2.457771	    2.084840	    2.262760	    0.161288	    0.121614	    0.114595	    1.197375	    0.902571	    1.228809	    2.602731	    2.014038	    1.925536	    1.768978	    1.315175	    1.272755
    14.795	0	0	    0	    0.613870	    0.588540	    0.622110	    1.739986	    1.333486	    1.844358	    2.491341	    2.098268	    2.246281	    0.160983	    0.121614	    0.115206	    1.197986	    0.900740	    1.232166	    2.612497	    2.013428	    1.919738	    1.774166	    1.317617	    1.270619
    14.850	0	0	    0	    0.615396	    0.590982	    0.623026	    1.745174	    1.336233	    1.847410	    2.486458	    2.110475	    2.258488	    0.161898	    0.121920	    0.114595	    1.205921	    0.905013	    1.240711	    2.617380	    2.011597	    1.921263	    1.784543	    1.317617	    1.275807
    14.905	0	0	    0	    0.615702	    0.592508	    0.628214	    1.747921	    1.339895	    1.844663	    2.483406	    2.111086	    2.269780	    0.161898	    0.121920	    0.114595	    1.202258	    0.905928	    1.234302	    2.628367	    2.030823	    1.927672	    1.790341	    1.327382	    1.279164
    14.960	0	0	    0	    0.615396	    0.593729	    0.628824	    1.748531	    1.346914	    1.847715	    2.492256	    2.107729	    2.281682	    0.162203	    0.122530	    0.115511	    1.205310	    0.907759	    1.239796	    2.623484	    2.030518	    1.938659	    1.792172	    1.328298	    1.290150
    15.015	0	0	    0	    0.618753	    0.594339	    0.628824	    1.748531	    1.349050	    1.860227	    2.491951	    2.104677	    2.281987	    0.162509	    0.122530	    0.114900	    1.208667	    0.909590	    1.248341	    2.640269	    2.036316	    1.944457	    1.795529	    1.333791	    1.286183
    15.070	0	0	    0	    0.620584	    0.598001	    0.633707	    1.754025	    1.349966	    1.864500	    2.508125	    2.124514	    2.291752	    0.163424	    0.123140	    0.116121	    1.208972	    0.913252	    1.251392	    2.656443	    2.046387	    1.948119	    1.796750	    1.338064	    1.292287
    15.125	0	0	    0	    0.620279	    0.599832	    0.634012	    1.760433	    1.350271	    1.861753	    2.498665	    2.146181	    2.283207	    0.162814	    0.123140	    0.115816	    1.212634	    0.913252	    1.250477	    2.674144	    2.071107	    1.971008	    1.811398	    1.345998	    1.299611
    15.180	0	0	    0	    0.621500	    0.599832	    0.637675	    1.763180	    1.356374	    1.864805	    2.509041	    2.132448	    2.304570	    0.163729	    0.124056	    0.116426	    1.215686	    0.917220	    1.247730	    2.675669	    2.053101	    1.968261	    1.818418	    1.351186	    1.303273
    15.235	0	0	    0	    0.626688	    0.601968	    0.638590	    1.769589	    1.360037	    1.880064	    2.532845	    2.134279	    2.308843	    0.164645	    0.123751	    0.117647	    1.217517	    0.916304	    1.255360	    2.674754	    2.050050	    1.993286	    1.822385	    1.351186	    1.318837
    15.290	0	0	    0	    0.620279	    0.598001	    0.630961	    1.770809	    1.360647	    1.869078	    2.518502	    2.126040	    2.286259	    0.164950	    0.122835	    0.116426	    1.214771	    0.917830	    1.252003	    2.665293	    2.038453	    1.959411	    1.816587	    1.341421	    1.298085
    15.345	0	0	    0	    0.611734	    0.590372	    0.627909	    1.752193	    1.344167	    1.852598	    2.483711	    2.098573	    2.265202	    0.162509	    0.122835	    0.114900	    1.205310	    0.909590	    1.234913	    2.640574	    2.057374	    1.932860	    1.795224	    1.332265	    1.280995
    15.400	0	0	    0	    0.613565	    0.588846	    0.623941	    1.747921	    1.344472	    1.844358	    2.478218	    2.109560	    2.266728	    0.162203	    0.121309	    0.114900	    1.193713	    0.903182	    1.230030	    2.621958	    2.036316	    1.935607	    1.785153	    1.325856	    1.279774
    15.455	0	0	    0	    0.612039	    0.588235	    0.620584	    1.741512	    1.341421	    1.844053	    2.479744	    2.095216	    2.245060	    0.161593	    0.122225	    0.114900	    1.191577	    0.901045	    1.227283	    2.603952	    2.012512	    1.922789	    1.780575	    1.321279	    1.273060
    15.510	0	0	    0	    0.613565	    0.589151	    0.619974	    1.741512	    1.334096	    1.841611	    2.480354	    2.098573	    2.239872	    0.161898	    0.122225	    0.115206	    1.189441	    0.896468	    1.227893	    2.621042	    2.026856	    1.925536	    1.775387	    1.320058	    1.275807
    15.565	0	0	    0	    0.610513	    0.590066	    0.623026	    1.749447	    1.332265	    1.845579	    2.455940	    2.110475	    2.258488	    0.161898	    0.121920	    0.114595	    1.197681	    0.893721	    1.230335	    2.603952	    2.021057	    1.929198	    1.786374	    1.323720	    1.277638
    15.620	0	0	    0	    0.612955	    0.590066	    0.624857	    1.747921	    1.336843	    1.841611	    2.480049	    2.086671	    2.266423	    0.161593	    0.121309	    0.115206	    1.199817	    0.900740	    1.231250	    2.633860	    2.015259	    1.937133	    1.783627	    1.321279	    1.275502
    15.675	0	0	    0	    0.613260	    0.590372	    0.624247	    1.739681	    1.341115	    1.843748	    2.480354	    2.090639	    2.263981	    0.161898	    0.121920	    0.115206	    1.198901	    0.900740	    1.236439	    2.640879	    2.022583	    1.947509	    1.783932	    1.318227	    1.275502
    15.730	0	0	    0	    0.614176	    0.591897	    0.628519	    1.743343	    1.341421	    1.845274	    2.489204	    2.111086	    2.255741	    0.162814	    0.122835	    0.114290	    1.198596	    0.903792	    1.237049	    2.645457	    2.036927	    1.953613	    1.794308	    1.322805	    1.282826
    15.785	0	0	    0	    0.616312	    0.592813	    0.630045	    1.754025	    1.342031	    1.851987	    2.502022	    2.114748	    2.265812	    0.162509	    0.122530	    0.115511	    1.206226	    0.908064	    1.239490	    2.642710	    2.042420	    1.949035	    1.797055	    1.328298	    1.284352
    15.840	0	0	    0	    0.617533	    0.597391	    0.632792	    1.755245	    1.343862	    1.856870	    2.479744	    2.122683	    2.280156	    0.162509	    0.122225	    0.116426	    1.207752	    0.908064	    1.244373	    2.642100	    2.057374	    1.971008	    1.800412	    1.335622	    1.292287
    15.895	0	0	    0	    0.619669	    0.598001	    0.629740	    1.757076	    1.351797	    1.865415	    2.508125	    2.119326	    2.297246	    0.163424	    0.123445	    0.115816	    1.205310	    0.910201	    1.247120	    2.658579	    2.057374	    1.968261	    1.800717	    1.336843	    1.296254
    15.950	0	0	    0	    0.619364	    0.600443	    0.633707	    1.758602	    1.351797	    1.868162	    2.502327	    2.135805	    2.296025	    0.163424	    0.123751	    0.115816	    1.209583	    0.915389	    1.253529	    2.657664	    2.063783	    1.970397	    1.814145	    1.346609	    1.295644
    16.005	0	0	    0	    0.624247	    0.601968	    0.638895	    1.765316	    1.354849	    1.863890	    2.518196	    2.135195	    2.312505	    0.164034	    0.124056	    0.116732	    1.213550	    0.911727	    1.251087	    2.673228	    2.065309	    1.978943	    1.820249	    1.352712	    1.298390
    16.060	0	0	    0	    0.622416	    0.603494	    0.641337	    1.767453	    1.361257	    1.877317	    2.504768	    2.163577	    2.320439	    0.164340	    0.124361	    0.117037	    1.212940	    0.921798	    1.257496	    2.678111	    2.082399	    1.979553	    1.825742	    1.360952	    1.313039
    16.115	0	0	    0	    0.619364	    0.595560	    0.631571	    1.767147	    1.360342	    1.870298	    2.530404	    2.143435	    2.285649	    0.163424	    0.122835	    0.116426	    1.216907	    0.916609	    1.248951	    2.674144	    2.041505	    1.979248	    1.809262	    1.337453	    1.299916
    16.170	0	0	    0	    0.616007	    0.589761	    0.627909	    1.754025	    1.345388	    1.858091	    2.500191	    2.117800	    2.270390	    0.163424	    0.121920	    0.114900	    1.203784	    0.908675	    1.245899	    2.642100	    2.032044	    1.956359	    1.794003	    1.329824	    1.284047
    16.225	0	0	    0	    0.612955	    0.589456	    0.625772	    1.751278	    1.338064	    1.851072	    2.469978	    2.110170	    2.281682	    0.162203	    0.122225	    0.114595	    1.200427	    0.898909	    1.235218	    2.619211	    2.022583	    1.933776	    1.785763	    1.325246	    1.271839
    16.280	0	0	    0	    0.610819	    0.591287	    0.623331	    1.744869	    1.334096	    1.844663	    2.455024	    2.119020	    2.267643	    0.161593	    0.121920	    0.114900	    1.203174	    0.902876	    1.234302	    2.625620	    2.018921	    1.927367	    1.782101	    1.323720	    1.274891
    16.335	0	0	    0	    0.616007	    0.593423	    0.624857	    1.745480	    1.334401	    1.847410	    2.467231	    2.086671	    2.238041	    0.160983	    0.121920	    0.115206	    1.195850	    0.901350	    1.235218	    2.624094	    2.020142	    1.953002	    1.780880	    1.321584	    1.278248
    16.390	0	0	    0	    0.613260	    0.593118	    0.626383	    1.744869	    1.336538	    1.840391	    2.460517	    2.106203	    2.259403	    0.161898	    0.122530	    0.115816	    1.198596	    0.903182	    1.234913	    2.617990	    2.002747	    1.932250	    1.781491	    1.320668	    1.274281
    16.445	0	0	    0	    0.614786	    0.593118	    0.626383	    1.740291	    1.336538	    1.838865	    2.476692	    2.109865	    2.270085	    0.161593	    0.121920	    0.115511	    1.200122	    0.905318	    1.233997	    2.634165	    2.027466	    1.925841	    1.785458	    1.318837	    1.277943
    16.500	0	0	    0	    0.616312	    0.594339	    0.626688	    1.742733	    1.342641	    1.848325	    2.491035	    2.071412	    2.078126	    0.162509	    0.122225	    0.116121	    1.201343	    0.909285	    1.239490	    2.636912	    2.029908	    1.940795	    1.785153	    1.328908	    1.283742
    16.555	0	0	    0	    0.608988	    0.583047	    0.621805	    1.739071	    1.335622	    1.844358	    1.792782	    1.402152	    1.572747	    0.151827	    0.111543	    0.105135	    1.140307	    0.836347	    1.163806	    1.924926	    1.324636	    1.235218	    1.700923	    1.237354	    1.199817
    16.610	0	0	    0	    0.608377	    0.587015	    0.619669	    1.739986	    1.330434	    1.848020	    1.776608	    1.416190	    1.566644	    0.152132	    0.111238	    0.105135	    1.118944	    0.819257	    1.158618	    1.925536	    1.336843	    1.235523	    1.704891	    1.241016	    1.198901
    16.665	0	0	    0	    0.608682	    0.588540	    0.623636	    1.743648	    1.333791	    1.844663	    1.774166	    1.403677	    1.595331	    0.151827	    0.111849	    0.105135	    1.119554	    0.820478	    1.158618	    1.940795	    1.341726	    1.244984	    1.714046	    1.248341	    1.203479
    16.720	0	0	    0	    0.611429	    0.589151	    0.625162	    1.746700	    1.340200	    1.853513	    1.794308	    1.416190	    1.588312	    0.151522	    0.112459	    0.105440	    1.119860	    0.825360	    1.162585	    1.927367	    1.337453	    1.256886	    1.710079	    1.248951	    1.209888
    16.775	0	0	    0	    0.612650	    0.589456	    0.626383	    1.747005	    1.341421	    1.857481	    1.803159	    1.424735	    1.599603	    0.152438	    0.112459	    0.106355	    1.127184	    0.825055	    1.164111	    1.946899	    1.350881	    1.260548	    1.717708	    1.258106	    1.211414
    16.830	0	0	    0	    0.614786	    0.594644	    0.629740	    1.747311	    1.344778	    1.859922	    1.802853	    1.429313	    1.604791	    0.153048	    0.113375	    0.106661	    1.121996	    0.828412	    1.167163	    1.953002	    1.340810	    1.256275	    1.727779	    1.262379	    1.218433
    16.885	0	0	    0	    0.607156	    0.588846	    0.621195	    1.747921	    1.338674	    1.858091	    1.786374	    1.421378	    1.590143	    0.152438	    0.113069	    0.105745	    1.123827	    0.825971	    1.168383	    1.952697	    1.344472	    1.233997	    1.712825	    1.246815	    1.199207
    16.940	0	0	    0	    0.605020	    0.582132	    0.618753	    1.739071	    1.333486	    1.840696	    1.777829	    1.391775	    1.567864	    0.151522	    0.112154	    0.105135	    1.114977	    0.819867	    1.151598	    1.913939	    1.312734	    1.235523	    1.690242	    1.235218	    1.194934
    16.995	0	0	    0	    0.604715	    0.583352	    0.616312	    1.727779	    1.327382	    1.838560	    1.770809	    1.411612	    1.556878	    0.151217	    0.111238	    0.104829	    1.109178	    0.813764	    1.148852	    1.904173	    1.314260	    1.221180	    1.691157	    1.232166	    1.188525
    17.050	0	0	    0	    0.604715	    0.583352	    0.616617	    1.724422	    1.320974	    1.832761	    1.757076	    1.416495	    1.569696	    0.150607	    0.111238	    0.103914	    1.102770	    0.811933	    1.147936	    1.897154	    1.309071	    1.219654	    1.682612	    1.226673	    1.183032
    17.105	0	0	    0	    0.602579	    0.584268	    0.618448	    1.731746	    1.326162	    1.831846	    1.759823	    1.403372	    1.556573	    0.151217	    0.111543	    0.104219	    1.108568	    0.814679	    1.147021	    1.909056	    1.321889	    1.229114	    1.684443	    1.225452	    1.186084
    17.160	0	0	    0	    0.605936	    0.584573	    0.617227	    1.730831	    1.325856	    1.834592	    1.759518	    1.399100	    1.557794	    0.150301	    0.112154	    0.104524	    1.109789	    0.817121	    1.147326	    1.902647	    1.320058	    1.221180	    1.683528	    1.231250	    1.184558
    17.215	0	0	    0	    0.606851	    0.583963	    0.618753	    1.729610	    1.329213	    1.833371	    1.784543	    1.409171	    1.566644	    0.150912	    0.111543	    0.104524	    1.111009	    0.816510	    1.150072	    1.892271	    1.310292	    1.228199	    1.687495	    1.232471	    1.187610
    17.270	0	0	    0	    0.609293	    0.585489	    0.620584	    1.730526	    1.327077	    1.842222	    1.766842	    1.404898	    1.574578	    0.151217	    0.111543	    0.104219	    1.110094	    0.819867	    1.157092	    1.914244	    1.327382	    1.215991	    1.696651	    1.237049	    1.190051
    17.325	0	0	    0	    0.608072	    0.588846	    0.623026	    1.737545	    1.326467	    1.836728	    1.790951	    1.405814	    1.582208	    0.151217	    0.112459	    0.104829	    1.116503	    0.819257	    1.156481	    1.916686	    1.331960	    1.244068	    1.694820	    1.244984	    1.197070
    17.380	0	0	    0	    0.608988	    0.589761	    0.626993	    1.740291	    1.338064	    1.844663	    1.792782	    1.410697	    1.598383	    0.151827	    0.112154	    0.105440	    1.121386	    0.825055	    1.160143	    1.928283	    1.323110	    1.243153	    1.692378	    1.243153	    1.201953
    17.435	0	0	    0	    0.610208	    0.589151	    0.627298	    1.741207	    1.338064	    1.854124	    1.778439	    1.417105	    1.598383	    0.151522	    0.112764	    0.105745	    1.120470	    0.825666	    1.163806	    1.929808	    1.329824	    1.244984	    1.703975	    1.247425	    1.205921
    17.490	0	0	    0	    0.612345	    0.594644	    0.628519	    1.748531	    1.338674	    1.858396	    1.793393	    1.423209	    1.614557	    0.152438	    0.112154	    0.105745	    1.122911	    0.826581	    1.169909	    1.926757	    1.337453	    1.244373	    1.708553	    1.248646	    1.212024
    17.545	0	0	    0	    0.615702	    0.596475	    0.632181	    1.751278	    1.344778	    1.854734	    1.799802	    1.449454	    1.609369	    0.153353	    0.113375	    0.106050	    1.121996	    0.828717	    1.166247	    1.948730	    1.362173	    1.253834	    1.715267	    1.258106	    1.211414
    17.600	0	0	    0	    0.616007	    0.595560	    0.632792	    1.754330	    1.348135	    1.866636	    1.794308	    1.411917	    1.608759	    0.153658	    0.113985	    0.106966	    1.130236	    0.830243	    1.171435	    1.956359	    1.343252	    1.255360	    1.726253	    1.262989	    1.219654
    17.655	0	0	    0	    0.612039	    0.588846	    0.625467	    1.743954	    1.347829	    1.859922	    1.793393	    1.409476	    1.588617	    0.152438	    0.113069	    0.106050	    1.118944	    0.825971	    1.163806	    1.929808	    1.340810	    1.264210	    1.711299	    1.249866	    1.203479
    17.710	0	0	    0	    0.606851	    0.588540	    0.621805	    1.737240	    1.331044	    1.844663	    1.774166	    1.404593	    1.564508	    0.151827	    0.111849	    0.104829	    1.112840	    0.818036	    1.158312	    1.910887	    1.310903	    1.220264	    1.690242	    1.241016	    1.193713
    17.765	0	0	    0	    0.602274	    0.584268	    0.618753	    1.733577	    1.330434	    1.838865	    1.755856	    1.405814	    1.572137	    0.150912	    0.110628	    0.104829	    1.106126	    0.815900	    1.149157	    1.917296	    1.317922	    1.222095	    1.693904	    1.232471	    1.192187
    17.820	0	0	    0	    0.601663	    0.583963	    0.614786	    1.727474	    1.322194	    1.834592	    1.759213	    1.396353	    1.562371	    0.151217	    0.111238	    0.104829	    1.107347	    0.812848	    1.147021	    1.897459	    1.302358	    1.207141	    1.686275	    1.233082	    1.187610
    17.875	0	0	    0	    0.605936	    0.586099	    0.619059	    1.728389	    1.324331	    1.837339	    1.777218	    1.395743	    1.558099	    0.149996	    0.110628	    0.104219	    1.106737	    0.813764	    1.143969	    1.881895	    1.306020	    1.216907	    1.686275	    1.228504	    1.192798
    17.930	0	0	    0	    0.604105	    0.586404	    0.619669	    1.726864	    1.324025	    1.831540	    1.774777	    1.411002	    1.558709	    0.151217	    0.110933	    0.104219	    1.108263	    0.814679	    1.150378	    1.916381	    1.305409	    1.221180	    1.688716	    1.227893	    1.193103
    17.985	0	0	    0	    0.605020	    0.587625	    0.619364	    1.729610	    1.325246	    1.835508	    1.774166	    1.415579	    1.570916	    0.151217	    0.110933	    0.104219	    1.108873	    0.817731	    1.147021	    1.904173	    1.315480	    1.227283	    1.695430	    1.233692	    1.198291
    18.040	0	0	    0	    0.606241	    0.584268	    0.623026	    1.732662	    1.329213	    1.837949	    1.779965	    1.391165	    1.583429	    0.150607	    0.111543	    0.104829	    1.110399	    0.817121	    1.148852	    1.893797	    1.323720	    1.224842	    1.690852	    1.239490	    1.197375
    18.095	0	0	    0	    0.608988	    0.588235	    0.623026	    1.730526	    1.329519	    1.846494	    1.793393	    1.415274	    1.576410	    0.151522	    0.111543	    0.105135	    1.113451	    0.818952	    1.159533	    1.909056	    1.315175	    1.234607	    1.703670	    1.247120	    1.202869
    18.150	0	0	    0	    0.610208	    0.592508	    0.626383	    1.734798	    1.331960	    1.850767	    1.787289	    1.425040	    1.583734	    0.151522	    0.112154	    0.105440	    1.117418	    0.819867	    1.164721	    1.931029	    1.337758	    1.252918	    1.700008	    1.250782	    1.207141
    18.205	0	0	    0	    0.611429	    0.591897	    0.625772	    1.743648	    1.335012	    1.852903	    1.800412	    1.423209	    1.592584	    0.151827	    0.112459	    0.106050	    1.120165	    0.824140	    1.159838	    1.934386	    1.348440	    1.250172	    1.714046	    1.258412	    1.215991
    18.260	0	0	    0	    0.610208	    0.592813	    0.630350	    1.747311	    1.342641	    1.849851	    1.811093	    1.417411	    1.608148	    0.152438	    0.112764	    0.105440	    1.118029	    0.825971	    1.161059	    1.949340	    1.340505	    1.257496	    1.718318	    1.259632	    1.215686
    18.315	0	0	    0	    0.613870	    0.593729	    0.628519	    1.747005	    1.346914	    1.858091	    1.802853	    1.436027	    1.603571	    0.152438	    0.113375	    0.106661	    1.122301	    0.829023	    1.164416	    1.941405	    1.335317	    1.257496	    1.723812	    1.258717	    1.227893
    18.370	0	0	    0	    0.616922	    0.597696	    0.634623	    1.747005	    1.347524	    1.869688	    1.814145	    1.437552	    1.608148	    0.153048	    0.113375	    0.106966	    1.117723	    0.829633	    1.169604	    1.944152	    1.350576	    1.255970	    1.729610	    1.267567	    1.226978
    18.425	0	0	    0	    0.615091	    0.597391	    0.635233	    1.756771	    1.353933	    1.871214	    1.802548	    1.429313	    1.596857	    0.153048	    0.113985	    0.107271	    1.121691	    0.831769	    1.174182	    1.941711	    1.360952	    1.276417	    1.729915	    1.274586	    1.232166
    18.480	0	0	    0	    0.611124	    0.590066	    0.627604	    1.754330	    1.346304	    1.863279	    1.781491	    1.421683	    1.588312	    0.151827	    0.113069	    0.106050	    1.119860	    0.828717	    1.171435	    1.936217	    1.344472	    1.248035	    1.709773	    1.264820	    1.217517
    18.535	0	0	    0	    0.608072	    0.587320	    0.619974	    1.739986	    1.331960	    1.853208	    1.783627	    1.403677	    1.570916	    0.151217	    0.112764	    0.105135	    1.110704	    0.819257	    1.157397	    1.910887	    1.320974	    1.245594	    1.694820	    1.248035	    1.205310
    18.590	0	0	    0	    0.605325	    0.586099	    0.619059	    1.730831	    1.331044	    1.842222	    1.767453	    1.397269	    1.553826	    0.149996	    0.110933	    0.104829	    1.106737	    0.814069	    1.152819	    1.897765	    1.306630	    1.241016	    1.696345	    1.233692	    1.203784
    18.645	0	0	    0	    0.602274	    0.584878	    0.620279	    1.731441	    1.326772	    1.834592	    1.756161	    1.401236	    1.572137	    0.150301	    0.110933	    0.103914	    1.099107	    0.809186	    1.143053	    1.892882	    1.299611	    1.223011	    1.691157	    1.232471	    1.190661
    18.700	0	0	    0	    0.605020	    0.584573	    0.621195	    1.726558	    1.327382	    1.835813	    1.759213	    1.404593	    1.563287	    0.149996	    0.111543	    0.104524	    1.098802	    0.810712	    1.144579	    1.896544	    1.312123	    1.212024	    1.691157	    1.237964	    1.196460
    18.755	0	0	    0	    0.605936	    0.586404	    0.619974	    1.729915	    1.329519	    1.833066	    1.781186	    1.405509	    1.563897	    0.149691	    0.111849	    0.104829	    1.103075	    0.814679	    1.146105	    1.895018	    1.310903	    1.218738	    1.685969	    1.241932	    1.199207
    18.810	0	0	    0	    0.607156	    0.586709	    0.622416	    1.729000	    1.329824	    1.839475	    1.787594	    1.406729	    1.592889	    0.149691	    0.111849	    0.104524	    1.103990	    0.812543	    1.150683	    1.888609	    1.311208	    1.218433	    1.689021	    1.242847	    1.200732
    18.865	0	0	    0	    0.605936	    0.589151	    0.623331	    1.734188	    1.327077	    1.843137	    1.772335	    1.416190	    1.579461	    0.150607	    0.112154	    0.104829	    1.107042	    0.814069	    1.149157	    1.911498	    1.322499	    1.230335	    1.699397	    1.246509	    1.205921
    18.920	0	0	    0	    0.608072	    0.588235	    0.626688	    1.738766	    1.331044	    1.847105	    1.784848	    1.415274	    1.583734	    0.150301	    0.112459	    0.104219	    1.111620	    0.815900	    1.151293	    1.905699	    1.326162	    1.243763	    1.701839	    1.254139	    1.208667
    18.975	0	0	    0	    0.610513	    0.590982	    0.625467	    1.736934	    1.335317	    1.851987	    1.783322	    1.409171	    1.584955	    0.150912	    0.112154	    0.105745	    1.110399	    0.817426	    1.159838	    1.902647	    1.335317	    1.248951	    1.702754	    1.249866	    1.215686
    19.030	0	0	    0	    0.613870	    0.592813	    0.627298	    1.738766	    1.337758	    1.853513	    1.804074	    1.412222	    1.597467	    0.151217	    0.112154	    0.106355	    1.111315	    0.820172	    1.153124	    1.940185	    1.319448	    1.258412	    1.715572	    1.255360	    1.223926
    19.085	0	0	    0	    0.613870	    0.594339	    0.630350	    1.748531	    1.341421	    1.853208	    1.805295	    1.432975	    1.611200	    0.152743	    0.112764	    0.105745	    1.116197	    0.821393	    1.160449	    1.928893	    1.347829	    1.238575	    1.721370	    1.266041	    1.222095
    19.140	0	0	    0	    0.614176	    0.594644	    0.635843	    1.745480	    1.347219	    1.864195	    1.797665	    1.416800	    1.600824	    0.151827	    0.112764	    0.106661	    1.115892	    0.825971	    1.166247	    1.930114	    1.337758	    1.273365	    1.727474	    1.273671	    1.226978
    19.195	0	0	    0	    0.616617	    0.598001	    0.635233	    1.752499	    1.350881	    1.867857	    1.796445	    1.421988	    1.613642	    0.152438	    0.113375	    0.106966	    1.120165	    0.828107	    1.165637	    1.953613	    1.366140	    1.271839	    1.729305	    1.276112	    1.241932
    19.250	0	0	    0	    0.617533	    0.600748	    0.637675	    1.753719	    1.352102	    1.876402	    1.799496	    1.444572	    1.620966	    0.153048	    0.114290	    0.106661	    1.118334	    0.827497	    1.172045	    1.969482	    1.369192	    1.281910	    1.738766	    1.281605	    1.242237
    19.305	0	0	    0	    0.615702	    0.600137	    0.637675	    1.759213	    1.353933	    1.882506	    1.808652	    1.439994	    1.602350	    0.153658	    0.114290	    0.107881	    1.124437	    0.827497	    1.174792	    1.972534	    1.377127	    1.268482	    1.741817	    1.285573	    1.241932
    19.360	0	0	    0	    0.610513	    0.589151	    0.626688	    1.754940	    1.354849	    1.867247	    1.778439	    1.404288	    1.588617	    0.151522	    0.112154	    0.106050	    1.118944	    0.825055	    1.161975	    1.936522	    1.338369	    1.257496	    1.721065	    1.266041	    1.226673
    19.415	0	0	    0	    0.607767	    0.587625	    0.622110	    1.741207	    1.342641	    1.848020	    1.772946	    1.393912	    1.572747	    0.150301	    0.112154	    0.105135	    1.104295	    0.814984	    1.148547	    1.914244	    1.324636	    1.242847	    1.703975	    1.251087	    1.217823
    19.470	0	0	    0	    0.608377	    0.585794	    0.620584	    1.728695	    1.335317	    1.845579	    1.767147	    1.390555	    1.557488	    0.150912	    0.111849	    0.104829	    1.098497	    0.813153	    1.144579	    1.905394	    1.327687	    1.228199	    1.701534	    1.247730	    1.204700
    19.525	0	0	    0	    0.603494	    0.587015	    0.620584	    1.726864	    1.331350	    1.842832	    1.763180	    1.392386	    1.561456	    0.150301	    0.111543	    0.103914	    1.095445	    0.809186	    1.145495	    1.914855	    1.327993	    1.226062	    1.697261	    1.242542	    1.200732
    19.580	0	0	    0	    0.605936	    0.586099	    0.622416	    1.729000	    1.327993	    1.835813	    1.750973	    1.395438	    1.568170	    0.149691	    0.112154	    0.104829	    1.100938	    0.810407	    1.143053	    1.902953	    1.323110	    1.228504	    1.692378	    1.250782	    1.205310
    19.635	0	0	    0	    0.606241	    0.585183	    0.618753	    1.730831	    1.334401	    1.845274	    1.765316	    1.392386	    1.566033	    0.150301	    0.111238	    0.105440	    1.102770	    0.813153	    1.147326	    1.901732	    1.311513	    1.237354	    1.695125	    1.248035	    1.213550
    19.690	0	0	    0	    0.606851	    0.587015	    0.621500	    1.729915	    1.329213	    1.844968	    1.757687	    1.405509	    1.561456	    0.150607	    0.111849	    0.104219	    1.102159	    0.815595	    1.150988	    1.911803	    1.335012	    1.243153	    1.700618	    1.252003	    1.210498
    19.745	0	0	    0	    0.608072	    0.587625	    0.624247	    1.736934	    1.335012	    1.850156	    1.783932	    1.398489	    1.584039	    0.149996	    0.112154	    0.105440	    1.109178	    0.814069	    1.155871	    1.919738	    1.328298	    1.237659	    1.703975	    1.253834	    1.217823
    19.800	0	0	    0	    0.607767	    0.587930	    0.625772	    1.737545	    1.339590	    1.850156	    1.775387	    1.411612	    1.582513	    0.151522	    0.112459	    0.105745	    1.107652	    0.820172	    1.156481	    1.929198	    1.342947	    1.247730	    1.717098	    1.258717	    1.224537
    19.855	0	0	    0	    0.620890	    0.600443	    0.639506	    1.747921	    1.346304	    1.863279	    2.424506	    2.076295	    2.252995	    0.160067	    0.121614	    0.116426	    1.158618	    0.878157	    1.224537	    2.475471	    1.921569	    1.868772	    1.790036	    1.340200	    1.303578
    19.910	0	0	    0	    0.624857	    0.602579	    0.641947	    1.746395	    1.354543	    1.876402	    2.529488	    2.150759	    2.318303	    0.162509	    0.124666	    0.117037	    1.200732	    0.915694	    1.261158	    2.662547	    2.054932	    2.000305	    1.816892	    1.365225	    1.325551
    19.965	0	0	    0	    0.623941	    0.607156	    0.644694	    1.759518	    1.354849	    1.877317	    2.526436	    2.172732	    2.350958	    0.164034	    0.125582	    0.118563	    1.210803	    0.917525	    1.260853	    2.689097	    2.098268	    1.999695	    1.826352	    1.377127	    1.329519
    20.020	0	0	    0	    0.626078	    0.607462	    0.644388	    1.764706	    1.364004	    1.876097	    2.566415	    2.160525	    2.350652	    0.163729	    0.126192	    0.119478	    1.217823	    0.922713	    1.262074	    2.705272	    2.114137	    2.026856	    1.829099	    1.381094	    1.336843
    20.075	0	0	    0	    0.627604	    0.605936	    0.639811	    1.770504	    1.369192	    1.888914	    2.413825	    1.891356	    1.941711	    0.164645	    0.125582	    0.118868	    1.215076	    0.926070	    1.268177	    2.705577	    2.116579	    2.024414	    1.841001	    1.385367	    1.345998
    20.130	0	0	    0	    0.616922	    0.601358	    0.637369	    1.759823	    1.357900	    1.878233	    1.807431	    1.454948	    1.621271	    0.153658	    0.114290	    0.107881	    1.132372	    0.834211	    1.171740	    1.968566	    1.374990	    1.296864	    1.749447	    1.292897	    1.257191
    20.185	0	0	    0	    0.616007	    0.598611	    0.632792	    1.757992	    1.356069	    1.887388	    1.804990	    1.432059	    1.613642	    0.153658	    0.114595	    0.106966	    1.120470	    0.828717	    1.172045	    1.984741	    1.355764	    1.280995	    1.750668	    1.286488	    1.247730
    20.240	0	0	    0	    0.611124	    0.590066	    0.625162	    1.749142	    1.352102	    1.865415	    1.779355	    1.409781	    1.588922	    0.152438	    0.113680	    0.106050	    1.111620	    0.822309	    1.164111	    1.940185	    1.360952	    1.269703	    1.724117	    1.271534	    1.226978
    20.295	0	0	    0	    0.607767	    0.585794	    0.623941	    1.740597	    1.343557	    1.850767	    1.772030	    1.410391	    1.585565	    0.150912	    0.112764	    0.106050	    1.104906	    0.817121	    1.149767	    1.921874	    1.342336	    1.245594	    1.710384	    1.265736	    1.225452
    20.350	0	0	    0	    0.605631	    0.585794	    0.620584	    1.739681	    1.339590	    1.855344	    1.761349	    1.421073	    1.559319	    0.150607	    0.111849	    0.104829	    1.100938	    0.814069	    1.154955	    1.917601	    1.338064	    1.241627	    1.707942	    1.262074	    1.219348
    20.405	0	0	    0	    0.605325	    0.584878	    0.619974	    1.734798	    1.333791	    1.848020	    1.777218	    1.404898	    1.564202	    0.149691	    0.112154	    0.104829	    1.103990	    0.814069	    1.143969	    1.940185	    1.337148	    1.248646	    1.707637	    1.259022	    1.216602
    20.460	0	0	    0	    0.604410	    0.586709	    0.623026	    1.738460	    1.337453	    1.847715	    1.766232	    1.403372	    1.580682	    0.150607	    0.112459	    0.105745	    1.107958	    0.815900	    1.151293	    1.906615	    1.333486	    1.244068	    1.710384	    1.263294	    1.220264
    20.515	0	0	    0	    0.604105	    0.586709	    0.621195	    1.737850	    1.338674	    1.850156	    1.766232	    1.392996	    1.586786	    0.150301	    0.112459	    0.106050	    1.103075	    0.814679	    1.153429	    1.925841	    1.335317	    1.256580	    1.710079	    1.262074	    1.225452
    20.570	0	0	    0	    0.607156	    0.588235	    0.621805	    1.732357	    1.332265	    1.852293	    1.784543	    1.414054	    1.571527	    0.151217	    0.112154	    0.106050	    1.103075	    0.816205	    1.157702	    1.927367	    1.353323	    1.262684	    1.718624	    1.267262	    1.224231
    20.625	0	0	    0	    0.608988	    0.587625	    0.624857	    1.735103	    1.338369	    1.854429	    1.780575	    1.422904	    1.584649	    0.151522	    0.112764	    0.105745	    1.102159	    0.822309	    1.156786	    1.942321	    1.338064	    1.257191	    1.721370	    1.265431	    1.225147
    20.680	0	0	    0	    0.609598	    0.588846	    0.627604	    1.747616	    1.345693	    1.859007	    1.804685	    1.412833	    1.602960	    0.150912	    0.113375	    0.106966	    1.115282	    0.821088	    1.160754	    1.940795	    1.348440	    1.263294	    1.716793	    1.275807	    1.233082
    20.735	0	0	    0	    0.612039	    0.593118	    0.628824	    1.743954	    1.343862	    1.867552	    1.790341	    1.421378	    1.609674	    0.152438	    0.112764	    0.106966	    1.116503	    0.823835	    1.166247	    1.958495	    1.360037	    1.283436	    1.722896	    1.281300	    1.239490
    20.790	0	0	    0	    0.613565	    0.592508	    0.630655	    1.749447	    1.345998	    1.869078	    1.801328	    1.423209	    1.594110	    0.152438	    0.113069	    0.106966	    1.117418	    0.824140	    1.168688	    1.957580	    1.368276	    1.277943	    1.730831	    1.282826	    1.243763
    20.845	0	0	    0	    0.623636	    0.605020	    0.640726	    1.754940	    1.346914	    1.876707	    2.367742	    2.021363	    2.195315	    0.158236	    0.121309	    0.114290	    1.122301	    0.832990	    1.200427	    2.292363	    1.791867	    1.779049	    1.780575	    1.344167	    1.311818
    20.900	0	0	    0	    0.626993	    0.609598	    0.647135	    1.770809	    1.366445	    1.883421	    2.512703	    2.170291	    2.352483	    0.163424	    0.125582	    0.117952	    1.208362	    0.920882	    1.255970	    2.676890	    2.103456	    2.016175	    1.830930	    1.385977	    1.348440
    20.955	0	0	    0	    0.623636	    0.603189	    0.639811	    1.769284	    1.373159	    1.898680	    2.266117	    1.794614	    1.836118	    0.165255	    0.126192	    0.117342	    1.214160	    0.930648	    1.273365	    2.731212	    2.117189	    1.914244	    1.844053	    1.394827	    1.340505
    21.010	0	0	    0	    0.610208	    0.590982	    0.627298	    1.753719	    1.354543	    1.883116	    1.785153	    1.409476	    1.586175	    0.151827	    0.113375	    0.106661	    1.118029	    0.829633	    1.173877	    1.965209	    1.382010	    1.273976	    1.730831	    1.283436	    1.237964
    21.065	0	0	    0	    0.607156	    0.587625	    0.626383	    1.745174	    1.346304	    1.864805	    1.782101	    1.405203	    1.581598	    0.151522	    0.112459	    0.105745	    1.108263	    0.820172	    1.162585	    1.946593	    1.356374	    1.263294	    1.713130	    1.270924	    1.228504
    21.120	0	0	    0	    0.606241	    0.587625	    0.624552	    1.739681	    1.339590	    1.856260	    1.778439	    1.401236	    1.571527	    0.151217	    0.113375	    0.106050	    1.103380	    0.818036	    1.153429	    1.923705	    1.353323	    1.268788	    1.706111	    1.273671	    1.227893
    21.175	0	0	    0	    0.604410	    0.587320	    0.620279	    1.736324	    1.338979	    1.856565	    1.770199	    1.403677	    1.571832	    0.150912	    0.111543	    0.105135	    1.099413	    0.816205	    1.155261	    1.938048	    1.353933	    1.266651	    1.711910	    1.266346	    1.227283
    21.230	0	0	    0	    0.605020	    0.588540	    0.622721	    1.740291	    1.334707	    1.855039	    1.766842	    1.415579	    1.575494	    0.150912	    0.112154	    0.106050	    1.106432	    0.817731	    1.151904	    1.956664	    1.348440	    1.273671	    1.715267	    1.267262	    1.225757
    21.285	0	0	    0	    0.606241	    0.589456	    0.623941	    1.743038	    1.340810	    1.852598	    1.774166	    1.416190	    1.582513	    0.150912	    0.112154	    0.105745	    1.108568	    0.818647	    1.156176	    1.946899	    1.348135	    1.267872	    1.721065	    1.270314	    1.230335
    21.340	0	0	    0	    0.607156	    0.589151	    0.625162	    1.743343	    1.343252	    1.853513	    1.772946	    1.421378	    1.591669	    0.150912	    0.112459	    0.106355	    1.110704	    0.819257	    1.160143	    1.943847	    1.356374	    1.270619	    1.718929	    1.272755	    1.234302
    21.395	0	0	    0	    0.610513	    0.588235	    0.626078	    1.736934	    1.346914	    1.863890	    1.787900	    1.411002	    1.587396	    0.151827	    0.113069	    0.106355	    1.107652	    0.826276	    1.161975	    1.955444	    1.374075	    1.276417	    1.721675	    1.279164	    1.234302
    21.450	0	0	    0	    0.610819	    0.590372	    0.627604	    1.743038	    1.343557	    1.866636	    1.805295	    1.433585	    1.584344	    0.151522	    0.113375	    0.106966	    1.109178	    0.823529	    1.168383	    1.983520	    1.376516	    1.295033	    1.728084	    1.274281	    1.242237
    21.505	0	0	    0	    0.611429	    0.594034	    0.631571	    1.753719	    1.345998	    1.870298	    1.795529	    1.431754	    1.600824	    0.151827	    0.113985	    0.107271	    1.116503	    0.824445	    1.168688	    1.979553	    1.387808	    1.277638	    1.727779	    1.288014	    1.245594
    21.560	0	0	    0	    0.622721	    0.605936	    0.642557	    1.760128	    1.357290	    1.882200	    2.409552	    2.068666	    2.287480	    0.159152	    0.122530	    0.116426	    1.145495	    0.872663	    1.223316	    2.461128	    1.918517	    1.874571	    1.793393	    1.364614	    1.329824
    21.615	0	0	    0	    0.624857	    0.606851	    0.645914	    1.767453	    1.365835	    1.891661	    2.525216	    2.174868	    2.360418	    0.163729	    0.124971	    0.118868	    1.207752	    0.922103	    1.268482	    2.673228	    2.106203	    2.021668	    1.825742	    1.384756	    1.352102
    21.670	0	0	    0	    0.629435	    0.611429	    0.648661	    1.772946	    1.372549	    1.898680	    2.572213	    2.188602	    2.367437	    0.165866	    0.125582	    0.119173	    1.214771	    0.927901	    1.275196	    2.721447	    2.132753	    2.068971	    1.846799	    1.395438	    1.360952
    21.725	0	0	    0	    0.629740	    0.610208	    0.646220	    1.776913	    1.376211	    1.897765	    2.574960	    2.180667	    2.353399	    0.165866	    0.126497	    0.119783	    1.217823	    0.928511	    1.272755	    2.760815	    2.147097	    2.050050	    1.851987	    1.402762	    1.361868
    21.780	0	0	    0	    0.622416	    0.600137	    0.637369	    1.774777	    1.372244	    1.897459	    2.518196	    2.020752	    2.039368	    0.164645	    0.125887	    0.118563	    1.212634	    0.929122	    1.272450	    2.714122	    2.125734	    2.013733	    1.831235	    1.384756	    1.338369
    21.835	0	0	    0	    0.608682	    0.588846	    0.624857	    1.752804	    1.350576	    1.869688	    1.794919	    1.411612	    1.591363	    0.151217	    0.112764	    0.106050	    1.132067	    0.834821	    1.165332	    1.948730	    1.379568	    1.278553	    1.718318	    1.277943	    1.233387
    21.890	0	0	    0	    0.606851	    0.589151	    0.622110	    1.746090	    1.344472	    1.865415	    1.778439	    1.403677	    1.578241	    0.150912	    0.113375	    0.106050	    1.105821	    0.821698	    1.161059	    1.926452	    1.362173	    1.270619	    1.713741	    1.275502	    1.234607
    21.945	0	0	    0	    0.605936	    0.587320	    0.621805	    1.744564	    1.336538	    1.856870	    1.769894	    1.419547	    1.583124	    0.151217	    0.112764	    0.106355	    1.103685	    0.814679	    1.155566	    1.942931	    1.354238	    1.263600	    1.716793	    1.271534	    1.231556
    22.000	0	0	    0	    0.605020	    0.586709	    0.624247	    1.741817	    1.342947	    1.856870	    1.755245	    1.413748	    1.576410	    0.151217	    0.113069	    0.105745	    1.107652	    0.818952	    1.155261	    1.931640	    1.372549	    1.279164	    1.713130	    1.276112	    1.235828
    22.055	0	0	    0	    0.608377	    0.587015	    0.623026	    1.735103	    1.344778	    1.860533	    1.792782	    1.411307	    1.595331	    0.150912	    0.112764	    0.106050	    1.104295	    0.819257	    1.160754	    1.939574	    1.366445	    1.282521	    1.712520	    1.269093	    1.236439
    22.110	0	0	    0	    0.608072	    0.585794	    0.622721	    1.737850	    1.342641	    1.854734	    1.786374	    1.411307	    1.570916	    0.151827	    0.112764	    0.105745	    1.105821	    0.820783	    1.156481	    1.958801	    1.359731	    1.273060	    1.722896	    1.275807	    1.238880
    22.165	0	0	    0	    0.609598	    0.592203	    0.625772	    1.745785	    1.341115	    1.856870	    1.786984	    1.433280	    1.596246	    0.151522	    0.113069	    0.106661	    1.111620	    0.820783	    1.160754	    1.964599	    1.370413	    1.277028	    1.728695	    1.280079	    1.243458
    22.220	0	0	    0	    0.611429	    0.591897	    0.627909	    1.753109	    1.345083	    1.867552	    1.808652	    1.419852	    1.595941	    0.151522	    0.113680	    0.106661	    1.116808	    0.822309	    1.166247	    1.959411	    1.383536	    1.280995	    1.735409	    1.287404	    1.241932
    22.275	0	0	    0	    0.612650	    0.593118	    0.628214	    1.750973	    1.351492	    1.873045	    1.809262	    1.428092	    1.581903	    0.152132	    0.113985	    0.107881	    1.113146	    0.825666	    1.170520	    1.954833	    1.382315	    1.290455	    1.729000	    1.287098	    1.251698
    22.330	0	0	    0	    0.622416	    0.602884	    0.642252	    1.759518	    1.359426	    1.885557	    2.459907	    2.109560	    2.291142	    0.160983	    0.122835	    0.117037	    1.150988	    0.878767	    1.236744	    2.533455	    1.968872	    1.917601	    1.811704	    1.365530	    1.328908
    22.385	0	0	    0	    0.621195	    0.604105	    0.637675	    1.770199	    1.364004	    1.885252	    2.377203	    1.859922	    1.922484	    0.163729	    0.125582	    0.118257	    1.206226	    0.923629	    1.262684	    2.737926	    2.135805	    2.020752	    1.841611	    1.391775	    1.347524
