     0.000	0	0	    0	    0.768292	    0.694743	    0.680705	    1.844968	    1.335927	    1.794003	    1.263905	    0.970932	    1.049668	    0.318761	    0.245518	    0.229343	    1.310597	    1.051804	    1.138170	    1.466239	    1.008469	    0.925154	    1.644160	    1.216297	    1.129320
     0.055	0	0	    0	    0.769818	    0.695659	    0.685588	    1.846799	    1.336843	    1.793698	    1.271839	    0.969100	    1.053025	    0.319982	    0.248569	    0.230259	    1.315785	    1.055772	    1.136034	    1.461357	    1.019150	    0.931563	    1.649653	    1.224231	    1.133288
     0.110	0	0	    0	    0.772564	    0.695048	    0.687114	    1.856260	    1.340200	    1.801938	    1.273060	    0.977646	    1.049668	    0.321813	    0.248569	    0.230259	    1.318227	    1.060960	    1.147326	    1.471427	    1.019150	    0.931563	    1.656672	    1.222400	    1.134203
     0.165	0	0	    0	    0.772564	    0.698711	    0.690166	    1.863279	    1.343557	    1.798886	    1.276722	    0.980087	    1.060044	    0.322118	    0.250095	    0.230869	    1.324941	    1.065232	    1.148547	    1.490043	    1.019760	    0.936141	    1.659113	    1.233692	    1.143664
     0.220	0	0	    0	    0.774701	    0.699321	    0.691997	    1.871214	    1.349355	    1.812619	    1.293507	    0.990768	    1.068894	    0.323339	    0.251621	    0.231785	    1.329213	    1.067063	    1.154040	    1.488823	    1.041123	    0.948348	    1.667048	    1.235828	    1.149462
     0.275	0	0	    0	    0.778973	    0.703593	    0.693523	    1.869688	    1.352712	    1.818418	    1.288319	    0.989853	    1.070115	    0.321202	    0.249485	    0.233616	    1.329824	    1.068589	    1.156176	    1.480888	    1.028916	    0.952621	    1.665522	    1.241321	    1.155566
     0.330	0	0	    0	    0.779278	    0.709392	    0.695659	    1.875181	    1.353628	    1.818723	    1.291371	    0.999924	    1.075303	    0.324559	    0.251926	    0.234226	    1.330434	    1.072557	    1.156786	    1.508659	    1.033799	    0.952621	    1.675898	    1.246509	    1.163195
     0.385	0	0	    0	    0.782025	    0.711528	    0.695048	    1.872435	    1.358206	    1.819638	    1.302052	    0.996567	    1.076524	    0.326696	    0.252537	    0.234531	    1.332265	    1.076524	    1.162585	    1.512932	    1.045090	    0.962081	    1.692988	    1.257191	    1.166857
     0.440	0	0	    0	    0.773785	    0.698405	    0.688945	    1.878233	    1.353017	    1.813230	    1.279164	    0.986801	    1.055772	    0.322728	    0.249485	    0.232090	    1.332876	    1.070726	    1.152819	    1.495842	    1.031968	    0.937362	    1.674983	    1.242237	    1.149157
     0.495	0	0	    0	    0.767376	    0.691386	    0.683757	    1.856565	    1.337453	    1.794003	    1.269093	    0.966659	    1.042039	    0.319677	    0.248264	    0.229038	    1.316701	    1.050889	    1.136645	    1.460746	    1.020371	    0.930648	    1.642634	    1.218738	    1.132677
     0.550	0	0	    0	    0.767987	    0.691386	    0.677653	    1.852293	    1.330129	    1.789731	    1.266957	    0.962997	    1.048447	    0.316930	    0.247044	    0.227817	    1.312123	    1.047227	    1.134813	    1.460441	    0.998703	    0.917525	    1.639582	    1.214160	    1.124743
     0.605	0	0	    0	    0.764630	    0.691997	    0.680400	    1.851377	    1.329824	    1.784848	    1.252308	    0.961776	    1.048753	    0.317235	    0.246433	    0.227817	    1.309987	    1.047227	    1.127489	    1.464103	    1.007858	    0.915694	    1.644465	    1.211414	    1.123827
     0.660	0	0	    0	    0.765240	    0.693523	    0.680705	    1.855650	    1.332876	    1.788510	    1.258412	    0.966354	    1.048447	    0.320592	    0.246128	    0.229648	    1.313649	    1.047837	    1.129931	    1.458000	    1.002060	    0.922103	    1.646296	    1.216602	    1.126879
     0.715	0	0	    0	    0.768902	    0.694133	    0.680095	    1.852293	    1.335012	    1.787900	    1.263294	    0.965438	    1.038682	    0.319677	    0.246128	    0.229953	    1.318532	    1.052720	    1.125658	    1.461357	    1.006943	    0.925765	    1.639277	    1.211414	    1.125353
     0.770	0	0	    0	    0.768292	    0.695048	    0.678569	    1.850156	    1.336843	    1.792172	    1.266041	    0.963912	    1.039292	    0.320592	    0.246433	    0.228733	    1.313649	    1.055772	    1.134508	    1.481498	    1.008469	    0.930648	    1.650874	    1.212940	    1.130846
     0.825	0	0	    0	    0.771344	    0.695659	    0.681010	    1.858091	    1.339284	    1.799496	    1.280690	    0.973068	    1.054551	    0.322118	    0.249485	    0.229648	    1.318227	    1.058213	    1.141527	    1.476310	    1.008469	    0.926375	    1.653620	    1.223621	    1.138170
     0.880	0	0	    0	    0.771649	    0.696269	    0.687724	    1.866636	    1.340810	    1.804685	    1.280995	    0.976425	    1.058518	    0.322728	    0.249180	    0.230259	    1.330129	    1.061875	    1.143359	    1.479362	    1.021897	    0.933700	    1.660029	    1.231556	    1.142748
     0.935	0	0	    0	    0.772564	    0.698711	    0.689555	    1.859922	    1.343557	    1.808347	    1.284352	    0.983139	    1.062486	    0.322728	    0.250401	    0.231479	    1.327687	    1.061570	    1.148547	    1.491264	    1.024949	    0.950484	    1.671015	    1.235218	    1.145495
     0.990	0	0	    0	    0.772564	    0.700542	    0.691386	    1.869383	    1.349050	    1.814755	    1.282521	    0.991073	    1.062181	    0.324865	    0.250706	    0.232090	    1.331044	    1.067979	    1.152819	    1.495232	    1.035019	    0.951095	    1.679255	    1.242542	    1.150378
     1.045	0	0	    0	    0.776837	    0.706645	    0.690471	    1.878233	    1.353933	    1.814755	    1.296864	    0.991073	    1.068894	    0.324559	    0.251621	    0.233005	    1.341421	    1.069200	    1.158312	    1.516594	    1.034409	    0.952621	    1.682307	    1.247425	    1.159533
     1.100	0	0	    0	    0.774701	    0.700847	    0.690776	    1.881895	    1.354849	    1.821469	    1.291066	    0.975814	    1.061265	    0.323644	    0.251316	    0.232395	    1.343252	    1.073472	    1.155871	    1.511406	    1.028611	    0.963607	    1.684443	    1.247425	    1.157092
     1.155	0	0	    0	    0.769207	    0.691386	    0.682231	    1.854734	    1.344778	    1.799191	    1.290150	    0.969406	    1.049668	    0.322728	    0.247959	    0.229953	    1.324331	    1.063401	    1.142443	    1.476616	    1.014572	    0.931258	    1.657893	    1.223926	    1.136950
     1.210	0	0	    0	    0.765240	    0.691997	    0.680400	    1.848325	    1.332876	    1.794614	    1.270008	    0.963912	    1.039902	    0.319982	    0.245823	    0.227817	    1.315785	    1.051194	    1.138170	    1.486687	    1.011826	    0.928206	    1.652705	    1.217517	    1.130236
     1.265	0	0	    0	    0.766461	    0.692302	    0.680705	    1.853513	    1.331960	    1.785458	    1.266346	    0.970932	    1.038376	    0.318761	    0.247349	    0.227512	    1.318532	    1.049058	    1.134813	    1.471733	    1.015488	    0.931258	    1.642023	    1.219959	    1.125658
     1.320	0	0	    0	    0.767376	    0.692607	    0.680095	    1.850462	    1.334096	    1.786679	    1.268788	    0.966659	    1.042649	    0.319371	    0.246433	    0.229648	    1.318837	    1.052720	    1.133898	    1.472648	    1.009384	    0.927901	    1.652094	    1.220264	    1.128099
     1.375	0	0	    0	    0.766155	    0.693523	    0.681621	    1.856260	    1.331044	    1.792477	    1.267567	    0.954757	    1.029526	    0.321508	    0.246738	    0.229038	    1.321889	    1.055772	    1.132982	    1.473869	    1.011215	    0.924239	    1.650263	    1.219348	    1.126879
     1.430	0	0	    0	    0.769207	    0.694438	    0.680400	    1.853819	    1.331960	    1.792782	    1.271534	    0.966354	    1.038987	    0.321202	    0.247044	    0.229343	    1.320668	    1.055467	    1.134813	    1.493400	    1.011826	    0.929732	    1.657893	    1.216602	    1.130846
     1.485	0	0	    0	    0.770428	    0.695354	    0.682536	    1.862364	    1.338369	    1.787594	    1.278248	    0.975509	    1.046311	    0.322423	    0.250095	    0.229038	    1.324941	    1.056382	    1.134203	    1.495842	    1.023728	    0.929732	    1.656367	    1.228504	    1.132982
     1.540	0	0	    0	    0.769512	    0.696880	    0.689555	    1.863584	    1.346304	    1.796445	    1.280995	    0.964523	    1.058213	    0.324559	    0.249790	    0.230564	    1.334401	    1.062181	    1.138170	    1.497978	    1.026169	    0.943465	    1.669795	    1.233692	    1.148241
     1.595	0	0	    0	    0.774701	    0.698100	    0.688334	    1.867857	    1.345083	    1.808957	    1.297169	    0.983139	    1.055161	    0.325170	    0.250401	    0.230869	    1.338979	    1.065843	    1.147326	    1.508354	    1.023423	    0.942550	    1.677119	    1.233082	    1.147936
     1.650	0	0	    0	    0.774701	    0.702983	    0.690471	    1.869993	    1.345693	    1.808957	    1.305104	    0.987716	    1.067063	    0.323949	    0.250401	    0.232395	    1.334401	    1.060044	    1.149157	    1.513542	    1.035325	    0.951400	    1.685969	    1.242542	    1.154040
     1.705	0	0	    0	    0.778668	    0.704204	    0.690471	    1.877317	    1.351186	    1.814755	    1.287709	    0.992905	    1.070420	    0.325170	    0.251621	    0.232700	    1.344778	    1.069505	    1.155871	    1.514153	    1.040208	    0.953231	    1.688411	    1.249561	    1.161059
     1.760	0	0	    0	    0.767681	    0.694743	    0.682536	    1.874266	    1.346609	    1.802243	    1.274281	    0.969711	    1.051194	    0.323949	    0.248569	    0.229343	    1.336233	    1.061265	    1.145495	    1.497978	    1.027390	    0.935531	    1.667964	    1.232166	    1.140307
     1.815	0	0	    0	    0.765240	    0.689860	    0.678569	    1.855344	    1.332265	    1.791562	    1.274281	    0.966659	    1.036851	    0.319982	    0.245823	    0.228122	    1.322499	    1.051499	    1.132677	    1.472343	    1.002670	    0.922408	    1.653620	    1.212024	    1.121386
     1.870	0	0	    0	    0.766766	    0.689250	    0.677348	    1.848020	    1.330129	    1.782101	    1.267872	    0.958114	    1.032273	    0.319677	    0.245518	    0.226902	    1.317311	    1.050278	    1.125353	    1.499809	    1.005722	    0.924239	    1.653620	    1.207141	    1.121386
     1.925	0	0	    0	    0.766766	    0.689860	    0.679179	    1.851072	    1.327382	    1.776608	    1.271229	    0.956283	    1.027390	    0.319677	    0.244907	    0.229038	    1.312123	    1.049363	    1.122301	    1.479362	    1.010300	    0.924239	    1.652705	    1.212940	    1.127184
     1.980	0	0	    0	    0.767681	    0.690776	    0.679179	    1.856870	    1.333181	    1.785153	    1.262989	    0.965438	    1.032578	    0.322118	    0.246738	    0.229648	    1.322805	    1.053941	    1.131151	    1.475395	    1.005722	    0.928206	    1.651179	    1.216602	    1.127794
     2.035	0	0	    0	    0.767071	    0.691997	    0.678569	    1.850462	    1.334707	    1.790036	    1.270008	    0.956588	    1.040513	    0.322118	    0.247654	    0.228122	    1.323720	    1.051194	    1.132677	    1.483024	    1.011826	    0.917830	    1.661250	    1.217517	    1.125353
     2.090	0	0	    0	    0.768902	    0.692912	    0.680705	    1.857786	    1.328603	    1.790341	    1.281910	    0.965743	    1.039902	    0.321508	    0.246128	    0.228122	    1.323720	    1.050278	    1.131762	    1.490959	    1.022507	    0.922713	    1.660945	    1.221180	    1.135119
     2.145	0	0	    0	    0.769207	    0.695659	    0.683757	    1.859922	    1.339284	    1.795224	    1.269398	    0.965438	    1.041733	    0.321813	    0.248264	    0.230564	    1.332570	    1.055161	    1.139696	    1.498283	    1.009384	    0.933089	    1.667048	    1.231250	    1.143359
     2.200	0	0	    0	    0.773175	    0.694743	    0.685283	    1.867552	    1.338979	    1.800717	    1.282216	    0.982223	    1.052720	    0.323949	    0.249180	    0.231785	    1.332876	    1.063096	    1.136339	    1.496757	    1.027695	    0.938582	    1.674678	    1.232166	    1.147631
     2.255	0	0	    0	    0.777142	    0.698711	    0.688334	    1.867857	    1.346914	    1.806516	    1.290150	    0.984360	    1.060349	    0.326085	    0.248875	    0.232090	    1.335317	    1.063096	    1.150683	    1.511711	    1.030137	    0.941329	    1.685359	    1.234302	    1.152819
     2.310	0	0	    0	    0.779889	    0.702983	    0.692302	    1.876707	    1.345693	    1.810788	    1.386282	    1.104295	    1.182422	    0.326390	    0.252537	    0.233921	    1.337453	    1.066453	    1.167468	    1.572137	    1.108873	    1.042039	    1.723201	    1.290761	    1.210193
     2.365	0	0	    0	    0.782330	    0.704509	    0.692302	    1.881895	    1.357290	    1.820249	    1.437552	    1.132677	    1.219959	    0.328222	    0.253758	    0.235752	    1.407340	    1.137560	    1.223316	    1.675898	    1.193103	    1.108873	    1.777829	    1.331655	    1.241321
     2.420	0	0	    0	    0.783551	    0.708782	    0.694133	    1.890135	    1.360342	    1.817807	    1.450980	    1.142748	    1.225452	    0.328527	    0.255283	    0.236057	    1.422904	    1.152209	    1.233387	    1.677119	    1.203174	    1.113146	    1.779355	    1.340810	    1.246815
     2.475	0	0	    0	    0.777447	    0.701762	    0.683146	    1.881895	    1.350881	    1.824521	    1.453117	    1.129320	    1.196460	    0.328222	    0.251011	    0.234836	    1.415885	    1.138781	    1.227283	    1.663996	    1.174487	    1.096056	    1.760128	    1.316701	    1.227893
     2.530	0	0	    0	    0.767987	    0.695354	    0.677348	    1.865721	    1.332570	    1.793088	    1.410086	    1.103380	    1.178149	    0.325170	    0.247654	    0.228733	    1.395743	    1.119554	    1.203479	    1.638361	    1.170520	    1.076219	    1.738155	    1.296559	    1.201953
     2.585	0	0	    0	    0.761273	    0.690166	    0.677043	    1.852903	    1.332876	    1.785763	    1.246204	    0.942855	    1.024949	    0.320592	    0.246433	    0.226291	    1.348135	    1.064012	    1.139086	    1.494621	    1.011215	    0.916609	    1.663081	    1.219959	    1.125963
     2.640	0	0	    0	    0.765240	    0.685893	    0.672465	    1.841917	    1.329519	    1.783322	    1.266041	    0.945602	    1.024949	    0.318456	    0.243381	    0.226902	    1.308766	    1.044480	    1.121080	    1.459831	    0.993210	    0.908980	    1.648737	    1.208362	    1.117113
     2.695	0	0	    0	    0.765240	    0.686809	    0.674601	    1.843748	    1.326772	    1.771115	    1.265126	    0.953231	    1.029831	    0.318151	    0.243992	    0.225376	    1.309377	    1.042039	    1.115587	    1.472648	    0.997482	    0.909590	    1.645075	    1.210803	    1.122301
     2.750	0	0	    0	    0.759747	    0.688029	    0.677348	    1.850462	    1.329824	    1.783932	    1.252613	    0.958419	    1.032273	    0.319371	    0.244602	    0.225681	    1.317006	    1.047837	    1.122606	    1.487297	    0.999619	    0.912947	    1.650874	    1.212634	    1.116503
     2.805	0	0	    0	    0.766461	    0.686809	    0.676432	    1.852293	    1.331044	    1.781491	    1.263905	    0.960861	    1.031968	    0.319371	    0.245823	    0.226902	    1.316701	    1.048142	    1.124437	    1.470817	    1.003586	    0.913863	    1.642023	    1.213245	    1.124132
     2.860	0	0	    0	    0.767376	    0.688334	    0.676127	    1.849546	    1.338674	    1.784543	    1.262989	    0.953536	    1.028000	    0.319677	    0.246738	    0.228122	    1.315480	    1.047837	    1.125963	    1.479362	    1.008774	    0.929427	    1.651789	    1.220569	    1.130236
     2.915	0	0	    0	    0.769818	    0.695659	    0.679484	    1.854124	    1.331350	    1.793088	    1.268788	    0.961166	    1.033494	    0.321508	    0.246128	    0.227512	    1.325856	    1.049058	    1.135119	    1.493706	    1.013352	    0.917830	    1.666133	    1.225452	    1.133898
     2.970	0	0	    0	    0.768902	    0.695048	    0.682231	    1.866026	    1.340200	    1.798581	    1.266041	    0.971847	    1.049973	    0.322118	    0.248569	    0.227512	    1.330129	    1.055772	    1.138170	    1.495537	    1.029831	    0.927291	    1.668879	    1.232471	    1.144579
     3.025	0	0	    0	    0.770428	    0.696269	    0.685588	    1.861143	    1.344472	    1.800717	    1.284657	    0.977646	    1.045701	    0.323644	    0.247044	    0.229648	    1.331960	    1.058213	    1.133288	    1.505913	    1.028916	    0.933089	    1.680171	    1.234607	    1.148852
     3.080	0	0	    0	    0.773480	    0.699016	    0.686503	    1.867247	    1.343557	    1.809567	    1.288014	    0.980087	    1.041428	    0.322423	    0.247959	    0.229648	    1.331044	    1.061875	    1.143053	    1.499199	    1.032273	    0.944381	    1.689631	    1.244373	    1.154040
     3.135	0	0	    0	    0.778363	    0.702068	    0.690166	    1.872740	    1.352102	    1.815366	    1.290455	    0.979171	    1.053941	    0.324559	    0.250706	    0.231785	    1.337758	    1.069810	    1.146715	    1.526360	    1.034409	    0.949264	    1.695430	    1.252003	    1.163195
     3.190	0	0	    0	    0.778973	    0.702373	    0.691081	    1.883116	    1.355764	    1.817807	    1.296254	    0.979171	    1.059739	    0.325780	    0.250095	    0.230259	    1.343252	    1.067063	    1.148852	    1.535210	    1.047532	    0.944381	    1.707332	    1.266346	    1.168994
     3.245	0	0	    0	    0.778973	    0.699626	    0.687724	    1.885557	    1.359121	    1.825132	    1.296254	    0.972152	    1.047227	    0.324865	    0.249485	    0.232090	    1.348440	    1.071946	    1.150988	    1.519646	    1.038376	    0.951705	    1.703365	    1.256886	    1.168383
     3.300	0	0	    0	    0.768292	    0.688945	    0.675822	    1.859922	    1.342947	    1.797360	    1.269093	    0.952926	    1.026169	    0.320592	    0.245823	    0.227207	    1.321889	    1.051804	    1.138781	    1.481498	    1.003281	    0.926375	    1.669184	    1.229725	    1.139696
     3.355	0	0	    0	    0.764935	    0.690166	    0.670634	    1.851377	    1.328298	    1.782101	    1.258106	    0.955062	    1.018845	    0.319677	    0.244297	    0.224460	    1.314260	    1.045396	    1.117418	    1.478447	    1.002365	    0.912947	    1.656672	    1.214160	    1.122606
     3.410	0	0	    0	    0.762493	    0.685893	    0.675822	    1.842832	    1.325246	    1.779049	    1.252918	    0.950179	    1.013046	    0.318151	    0.243381	    0.224155	    1.309071	    1.037461	    1.117113	    1.462577	    0.997787	    0.902571	    1.647517	    1.211109	    1.115587
     3.465	0	0	    0	    0.760052	    0.683146	    0.671855	    1.839170	    1.326467	    1.779049	    1.245899	    0.938582	    1.012436	    0.314794	    0.241550	    0.225071	    1.306935	    1.036240	    1.112535	    1.455253	    0.991379	    0.899825	    1.645075	    1.202869	    1.121386
     3.520	0	0	    0	    0.761883	    0.684367	    0.672770	    1.847410	    1.323110	    1.784848	    1.261158	    0.942245	    1.019150	    0.317845	    0.242466	    0.225376	    1.309987	    1.036851	    1.119860	    1.459831	    1.000839	    0.906844	    1.642634	    1.208972	    1.122606
     3.575	0	0	    0	    0.764935	    0.688945	    0.676432	    1.847105	    1.323110	    1.781186	    1.329824	    1.028611	    1.115282	    0.318151	    0.243687	    0.225681	    1.315175	    1.035019	    1.118029	    1.468070	    1.027390	    0.955367	    1.650263	    1.229419	    1.153124
     3.630	0	0	    0	    0.766461	    0.692607	    0.680095	    1.851072	    1.335317	    1.785458	    1.393606	    1.092699	    1.170520	    0.322728	    0.248569	    0.228733	    1.374075	    1.104295	    1.188220	    1.593500	    1.132677	    1.051194	    1.721981	    1.283131	    1.191882
     3.685	0	0	    0	    0.767681	    0.692607	    0.682536	    1.859312	    1.337453	    1.797971	    1.403372	    1.099413	    1.174792	    0.323033	    0.249485	    0.230259	    1.394217	    1.121386	    1.201648	    1.633478	    1.144274	    1.060044	    1.734798	    1.291371	    1.204700
     3.740	0	0	    0	    0.771038	    0.696269	    0.683452	    1.861448	    1.342336	    1.797360	    1.409171	    1.109178	    1.180285	    0.322728	    0.248875	    0.230564	    1.392996	    1.122606	    1.197375	    1.630121	    1.147326	    1.062486	    1.732357	    1.293507	    1.205615
     3.795	0	0	    0	    0.771954	    0.698711	    0.684062	    1.861448	    1.343252	    1.803769	    1.427787	    1.102770	    1.187915	    0.323339	    0.248569	    0.230259	    1.394827	    1.124132	    1.201953	    1.642023	    1.164721	    1.067369	    1.749142	    1.303578	    1.209583
     3.850	0	0	    0	    0.771038	    0.696574	    0.684977	    1.866636	    1.347524	    1.807126	    1.284657	    0.967269	    1.046006	    0.322423	    0.248264	    0.229343	    1.368582	    1.087205	    1.154955	    1.511406	    1.034104	    0.929732	    1.695735	    1.247730	    1.149462
     3.905	0	0	    0	    0.774395	    0.698405	    0.688640	    1.868772	    1.351186	    1.812009	    1.280995	    0.973678	    1.054551	    0.321813	    0.246738	    0.229038	    1.334096	    1.063096	    1.139391	    1.488518	    1.013657	    0.929732	    1.687800	    1.243153	    1.156481
     3.960	0	0	    0	    0.778363	    0.702678	    0.687419	    1.872435	    1.346914	    1.819944	    1.288014	    0.986191	    1.053635	    0.323644	    0.247349	    0.229953	    1.334707	    1.058518	    1.144884	    1.504082	    1.030137	    0.941024	    1.702754	    1.249256	    1.162585
     4.015	0	0	    0	    0.776226	    0.705425	    0.693523	    1.883116	    1.350576	    1.826658	    1.294423	    0.983444	    1.063096	    0.323949	    0.250706	    0.230564	    1.338369	    1.067369	    1.147326	    1.519646	    1.029221	    0.941329	    1.711910	    1.260853	    1.170520
     4.070	0	0	    0	    0.774701	    0.702983	    0.688029	    1.885252	    1.359121	    1.822995	    1.284657	    0.973068	    1.058824	    0.323033	    0.248875	    0.231785	    1.339590	    1.066453	    1.149157	    1.515373	    1.024033	    0.945296	    1.706722	    1.252308	    1.162280
     4.125	0	0	    0	    0.767071	    0.692912	    0.681621	    1.862364	    1.344472	    1.802853	    1.265126	    0.958114	    1.028000	    0.320287	    0.245518	    0.226596	    1.325856	    1.052110	    1.124743	    1.481804	    1.001144	    0.916304	    1.672847	    1.231250	    1.140307
     4.180	0	0	    0	    0.764324	    0.693217	    0.675822	    1.851072	    1.332876	    1.788205	    1.266041	    0.956588	    1.020676	    0.318456	    0.244297	    0.223850	    1.313954	    1.042039	    1.119249	    1.475395	    1.001144	    0.912337	    1.669795	    1.217517	    1.131456
     4.235	0	0	    0	    0.762799	    0.686198	    0.675212	    1.851377	    1.327993	    1.780880	    1.254749	    0.953231	    1.025864	    0.317845	    0.241855	    0.223850	    1.309071	    1.036240	    1.115587	    1.462272	    0.986496	    0.902876	    1.659724	    1.212024	    1.126268
     4.290	0	0	    0	    0.764019	    0.688029	    0.677653	    1.848631	    1.325246	    1.786374	    1.259022	    0.950484	    1.017319	    0.316625	    0.242771	    0.224155	    1.306935	    1.034409	    1.108873	    1.458000	    0.993515	    0.901961	    1.658198	    1.219654	    1.124132
     4.345	0	0	    0	    0.766766	    0.685588	    0.673991	    1.846799	    1.333486	    1.790036	    1.262379	    0.939803	    1.014267	    0.317235	    0.241855	    0.225071	    1.311208	    1.040208	    1.114672	    1.461357	    0.991379	    0.906233	    1.653620	    1.215686	    1.129015
     4.400	0	0	    0	    0.762493	    0.687114	    0.677653	    1.851987	    1.328603	    1.792172	    1.253834	    0.957198	    1.024643	    0.318151	    0.241550	    0.225986	    1.312123	    1.037156	    1.118029	    1.465629	    0.988632	    0.906538	    1.662470	    1.219959	    1.133898
     4.455	0	0	    0	    0.763104	    0.688945	    0.678874	    1.859312	    1.329213	    1.794614	    1.267567	    0.945296	    1.026169	    0.317235	    0.242771	    0.226902	    1.315175	    1.036240	    1.117418	    1.474174	    0.997787	    0.912947	    1.664912	    1.225452	    1.131456
     4.510	0	0	    0	    0.770123	    0.693217	    0.681621	    1.863584	    1.339590	    1.791562	    1.278859	    0.953536	    1.035630	    0.319371	    0.242771	    0.225681	    1.316396	    1.042954	    1.122911	    1.478752	    1.006332	    0.915999	    1.673457	    1.227283	    1.143969
     4.565	0	0	    0	    0.771038	    0.693828	    0.678874	    1.859312	    1.343557	    1.806210	    1.278553	    0.957198	    1.035935	    0.320287	    0.244602	    0.226902	    1.318837	    1.046616	    1.128099	    1.494926	    1.013657	    0.928206	    1.682307	    1.241321	    1.147021
     4.620	0	0	    0	    0.772564	    0.699016	    0.686198	    1.864195	    1.343252	    1.804074	    1.286183	    0.963912	    1.038682	    0.318151	    0.245212	    0.226291	    1.323720	    1.052110	    1.129015	    1.504997	    1.021592	    0.929427	    1.688411	    1.245594	    1.154040
     4.675	0	0	    0	    0.774395	    0.699626	    0.688640	    1.870603	    1.349050	    1.812619	    1.285878	    0.978256	    1.056992	    0.320897	    0.247959	    0.228122	    1.325856	    1.053635	    1.133288	    1.511101	    1.025559	    0.933700	    1.691463	    1.254139	    1.154955
     4.730	0	0	    0	    0.778058	    0.702373	    0.689860	    1.875792	    1.353323	    1.820249	    1.294118	    0.975204	    1.061875	    0.320592	    0.247349	    0.229953	    1.332876	    1.057298	    1.140002	    1.500114	    1.020371	    0.945602	    1.703670	    1.256886	    1.169909
     4.785	0	0	    0	    0.782635	    0.704814	    0.690776	    1.872740	    1.354543	    1.828489	    1.295949	    0.982223	    1.061875	    0.323949	    0.248264	    0.230869	    1.334096	    1.062181	    1.147631	    1.519036	    1.029526	    0.947433	    1.713436	    1.270314	    1.178759
     4.840	0	0	    0	    0.775311	    0.703593	    0.688945	    1.876402	    1.358206	    1.824216	    1.286183	    0.977951	    1.052720	    0.322728	    0.248875	    0.229648	    1.335012	    1.061875	    1.143359	    1.512627	    1.030137	    0.946517	    1.703975	    1.259022	    1.162280
     4.895	0	0	    0	    0.767071	    0.693217	    0.681315	    1.869383	    1.339895	    1.802853	    1.264820	    0.966354	    1.039597	    0.319982	    0.245212	    0.227512	    1.321279	    1.045396	    1.125353	    1.483330	    1.016403	    0.920577	    1.682612	    1.239490	    1.150378
     4.950	0	0	    0	    0.768597	    0.691691	    0.679179	    1.851987	    1.336233	    1.790036	    1.262684	    0.957504	    1.024033	    0.319066	    0.243687	    0.225681	    1.315175	    1.041733	    1.112535	    1.474479	    1.004501	    0.912947	    1.668879	    1.228199	    1.139696
     5.005	0	0	    0	    0.764935	    0.692607	    0.676432	    1.845579	    1.335317	    1.795224	    1.259632	    0.954147	    1.012131	    0.319066	    0.243687	    0.225376	    1.306935	    1.041733	    1.117113	    1.474479	    1.001450	    0.912337	    1.667353	    1.219959	    1.136645
     5.060	0	0	    0	    0.768292	    0.693217	    0.675822	    1.856565	    1.335317	    1.785763	    1.267567	    0.956893	    1.032883	    0.317540	    0.242771	    0.225376	    1.309987	    1.038987	    1.113756	    1.473259	    1.001450	    0.906233	    1.666438	    1.226978	    1.134813
     5.115	0	0	    0	    0.765850	    0.687724	    0.677348	    1.849851	    1.334096	    1.791257	    1.256580	    0.962081	    1.030137	    0.316930	    0.242771	    0.225986	    1.302968	    1.038682	    1.114672	    1.479057	    1.004807	    0.906538	    1.664912	    1.223621	    1.138476
     5.170	0	0	    0	    0.766461	    0.692912	    0.676738	    1.853819	    1.336843	    1.794614	    1.262379	    0.956893	    1.017929	    0.316625	    0.244602	    0.226291	    1.309682	    1.040513	    1.119249	    1.477226	    1.001144	    0.911727	    1.670100	    1.225452	    1.139391
     5.225	0	0	    0	    0.769512	    0.696269	    0.683757	    1.855039	    1.337148	    1.800717	    1.270924	    0.964218	    1.037461	    0.319066	    0.243992	    0.225681	    1.313344	    1.044785	    1.124132	    1.480583	    1.000229	    0.922713	    1.674983	    1.227893	    1.147021
     5.280	0	0	    0	    0.769512	    0.698711	    0.685893	    1.862974	    1.341115	    1.802853	    1.274891	    0.971542	    1.045090	    0.321813	    0.245212	    0.228428	    1.321584	    1.050889	    1.129931	    1.491569	    1.009995	    0.921798	    1.681086	    1.236439	    1.150378
     5.335	0	0	    0	    0.773785	    0.696574	    0.688945	    1.866636	    1.345693	    1.801328	    1.283436	    0.962997	    1.050584	    0.319371	    0.247349	    0.226902	    1.327993	    1.052720	    1.130236	    1.496452	    1.012741	    0.928206	    1.680476	    1.244068	    1.152819
     5.390	0	0	    0	    0.774090	    0.699016	    0.694133	    1.867552	    1.353933	    1.816587	    1.287709	    0.970932	    1.058824	    0.323339	    0.246433	    0.229343	    1.326772	    1.060349	    1.136034	    1.507134	    1.016098	    0.931258	    1.692378	    1.248341	    1.159838
     5.445	0	0	    0	    0.777447	    0.702983	    0.690776	    1.869383	    1.352712	    1.824826	    1.299916	    0.990158	    1.067369	    0.321202	    0.247959	    0.229038	    1.324941	    1.061875	    1.143359	    1.506218	    1.030442	    0.939193	    1.704585	    1.257191	    1.164416
     5.500	0	0	    0	    0.776226	    0.707866	    0.691386	    1.879149	    1.354238	    1.820554	    1.286488	    0.983139	    1.058213	    0.322118	    0.248264	    0.229343	    1.331044	    1.060655	    1.141222	    1.518730	    1.036545	    0.939803	    1.709773	    1.257191	    1.167773
     5.555	0	0	    0	    0.771038	    0.694133	    0.683452	    1.874266	    1.351797	    1.812314	    1.270619	    0.969711	    1.043565	    0.322118	    0.245823	    0.227817	    1.332265	    1.050889	    1.134508	    1.486076	    1.014878	    0.922103	    1.689021	    1.239796	    1.145190
     5.610	0	0	    0	    0.766155	    0.692607	    0.682536	    1.853513	    1.340810	    1.798581	    1.270008	    0.957809	    1.035935	    0.318761	    0.242466	    0.226902	    1.311208	    1.043870	    1.117723	    1.473869	    0.997787	    0.920272	    1.664302	    1.219043	    1.138476
     5.665	0	0	    0	    0.764324	    0.693217	    0.677653	    1.853513	    1.336233	    1.790951	    1.265736	    0.959945	    1.023728	    0.318456	    0.243687	    0.224460	    1.308766	    1.039292	    1.113451	    1.466239	    0.995346	    0.908370	    1.662776	    1.225147	    1.132067
     5.720	0	0	    0	    0.765850	    0.691691	    0.681010	    1.855650	    1.334096	    1.792782	    1.261158	    0.959945	    1.039597	    0.317540	    0.243381	    0.224765	    1.310903	    1.040208	    1.117113	    1.467155	    0.991073	    0.903487	    1.666743	    1.225147	    1.136339
     5.775	0	0	    0	    0.765240	    0.691997	    0.681315	    1.853819	    1.338064	    1.789425	    1.264210	    0.961471	    1.034714	    0.316625	    0.243992	    0.225376	    1.312123	    1.041733	    1.117113	    1.476310	    1.006332	    0.911421	    1.669795	    1.227893	    1.131151
     5.830	0	0	    0	    0.768902	    0.691081	    0.683146	    1.853208	    1.334707	    1.795529	    1.271229	    0.962387	    1.041428	    0.316625	    0.242161	    0.225376	    1.307851	    1.040208	    1.121691	    1.469596	    1.000534	    0.919356	    1.666438	    1.224231	    1.133593
     5.885	0	0	    0	    0.767987	    0.699626	    0.681926	    1.857176	    1.341726	    1.802243	    1.283436	    0.961471	    1.042344	    0.318456	    0.244602	    0.225376	    1.311513	    1.046311	    1.129015	    1.484245	    1.007248	    0.919051	    1.666438	    1.226978	    1.142138
     5.940	0	0	    0	    0.767987	    0.697490	    0.686503	    1.860533	    1.344167	    1.807736	    1.275502	    0.980697	    1.047532	    0.319371	    0.245212	    0.225681	    1.318532	    1.049668	    1.125658	    1.489433	    1.014267	    0.927596	    1.682002	    1.239185	    1.143664
     5.995	0	0	    0	    0.774395	    0.699626	    0.691081	    1.867247	    1.348745	    1.816892	    1.281300	    0.975814	    1.053635	    0.319371	    0.246128	    0.228122	    1.322805	    1.054246	    1.136339	    1.481498	    1.018540	    0.931868	    1.685664	    1.243153	    1.156481
     6.050	0	0	    0	    0.775311	    0.705425	    0.687724	    1.864195	    1.350271	    1.820859	    1.286488	    0.980697	    1.058213	    0.322118	    0.246433	    0.229648	    1.323720	    1.056992	    1.140612	    1.497673	    1.020981	    0.933089	    1.695735	    1.248035	    1.160143
     6.105	0	0	    0	    0.779889	    0.704814	    0.694133	    1.875792	    1.354238	    1.821469	    1.301747	    0.992599	    1.072862	    0.323033	    0.247349	    0.229343	    1.329824	    1.060960	    1.140002	    1.507744	    1.028611	    0.940414	    1.710689	    1.258717	    1.170520
     6.160	0	0	    0	    0.777447	    0.705425	    0.695354	    1.882811	    1.363394	    1.830930	    1.293812	    0.991073	    1.076524	    0.324559	    0.249180	    0.231174	    1.334096	    1.066758	    1.147936	    1.524529	    1.038071	    0.953231	    1.713741	    1.267872	    1.176928
     6.215	0	0	    0	    0.784771	    0.707866	    0.700237	    1.887694	    1.366445	    1.837949	    1.371328	    1.072862	    1.172045	    0.325475	    0.251316	    0.232395	    1.337148	    1.070115	    1.154955	    1.538872	    1.072251	    0.999924	    1.727474	    1.288319	    1.213855
     6.270	0	0	    0	    0.782635	    0.706340	    0.691386	    1.878843	    1.364004	    1.832456	    1.417716	    1.109789	    1.173877	    0.324254	    0.252232	    0.232700	    1.389639	    1.129625	    1.214160	    1.628901	    1.151598	    1.067979	    1.773861	    1.324025	    1.235218
     6.325	0	0	    0	    0.772259	    0.697490	    0.685893	    1.864805	    1.345998	    1.808042	    1.404593	    1.099718	    1.173877	    0.323339	    0.246738	    0.229648	    1.386282	    1.118334	    1.198291	    1.619440	    1.139086	    1.050278	    1.750362	    1.305409	    1.213245
     6.380	0	0	    0	    0.768597	    0.697795	    0.686198	    1.857481	    1.341421	    1.799496	    1.389639	    1.086595	    1.154650	    0.320592	    0.246128	    0.228733	    1.378958	    1.112535	    1.190661	    1.619135	    1.148852	    1.050278	    1.741207	    1.298695	    1.206531
     6.435	0	0	    0	    0.761578	    0.689250	    0.678569	    1.845274	    1.334707	    1.791257	    1.256580	    0.948043	    1.036545	    0.315709	    0.242161	    0.224460	    1.345693	    1.070115	    1.134508	    1.486076	    1.006027	    0.912337	    1.673762	    1.229114	    1.136950
     6.490	0	0	    0	    0.763104	    0.690471	    0.677043	    1.842832	    1.331655	    1.788510	    1.249256	    0.956893	    1.030442	    0.315404	    0.242161	    0.225071	    1.298390	    1.034409	    1.113756	    1.477226	    0.984360	    0.904402	    1.663081	    1.217212	    1.134508
     6.545	0	0	    0	    0.763714	    0.691997	    0.678569	    1.847715	    1.332876	    1.789425	    1.248951	    0.963302	    1.037156	    0.316625	    0.244297	    0.225071	    1.305409	    1.038071	    1.116503	    1.473564	    0.998703	    0.914778	    1.659419	    1.221790	    1.132067
     6.600	0	0	    0	    0.764935	    0.691997	    0.681315	    1.851987	    1.333181	    1.792782	    1.255970	    0.959335	    1.040818	    0.316930	    0.242771	    0.224460	    1.305104	    1.039292	    1.118944	    1.465629	    1.003891	    0.918135	    1.661250	    1.221790	    1.132372
     6.655	0	0	    0	    0.767376	    0.695048	    0.682841	    1.850767	    1.335317	    1.797971	    1.273060	    0.963912	    1.044175	    0.318761	    0.242771	    0.225986	    1.312123	    1.046006	    1.128405	    1.480278	    1.000839	    0.924849	    1.667048	    1.229114	    1.143359
     6.710	0	0	    0	    0.768597	    0.698711	    0.684672	    1.855039	    1.338979	    1.804990	    1.267567	    0.970321	    1.052110	    0.320287	    0.244602	    0.226596	    1.314565	    1.051804	    1.131762	    1.496757	    1.014572	    0.928817	    1.676509	    1.236439	    1.148547
     6.765	0	0	    0	    0.772869	    0.700237	    0.688029	    1.861448	    1.342947	    1.801633	    1.279774	    0.972457	    1.056382	    0.321202	    0.245823	    0.229343	    1.321889	    1.053330	    1.131151	    1.496452	    1.026169	    0.932479	    1.688106	    1.243458	    1.155871
     6.820	0	0	    0	    0.771954	    0.698711	    0.689250	    1.860227	    1.351797	    1.810483	    1.285878	    0.975204	    1.060044	    0.320897	    0.247349	    0.229343	    1.323110	    1.055467	    1.132982	    1.497673	    1.035630	    0.943160	    1.696345	    1.250782	    1.162890
     6.875	0	0	    0	    0.775006	    0.704814	    0.691997	    1.867552	    1.353017	    1.819944	    1.290455	    0.987411	    1.071031	    0.321202	    0.246738	    0.230259	    1.326162	    1.066148	    1.145495	    1.511101	    1.031662	    0.942245	    1.697261	    1.257496	    1.167468
     6.930	0	0	    0	    0.777752	    0.704814	    0.694743	    1.874571	    1.351186	    1.829404	    1.303578	    0.994430	    1.078050	    0.323339	    0.247959	    0.230259	    1.329824	    1.064927	    1.149767	    1.519646	    1.035325	    0.945296	    1.718013	    1.267262	    1.176013
     6.985	0	0	    0	    0.781720	    0.710002	    0.699626	    1.882811	    1.355764	    1.828794	    1.309682	    0.999619	    1.085679	    0.323644	    0.249485	    0.231479	    1.332570	    1.066453	    1.149767	    1.532158	    1.049058	    0.952316	    1.721675	    1.276112	    1.185473
     7.040	0	0	    0	    0.775921	    0.696880	    0.688945	    1.880064	    1.354238	    1.821164	    1.293202	    0.969100	    1.055467	    0.323339	    0.249180	    0.228733	    1.327687	    1.060655	    1.147631	    1.506218	    1.027085	    0.938888	    1.702754	    1.255665	    1.160754
     7.095	0	0	    0	    0.765545	    0.691386	    0.678569	    1.856260	    1.339284	    1.803464	    1.277333	    0.958114	    1.042954	    0.318456	    0.244602	    0.228122	    1.309987	    1.046006	    1.125048	    1.486381	    1.004807	    0.921187	    1.676509	    1.231556	    1.142138
     7.150	0	0	    0	    0.763104	    0.692302	    0.678569	    1.850462	    1.332265	    1.786679	    1.260243	    0.960250	    1.035325	    0.317235	    0.243381	    0.225376	    1.301747	    1.041428	    1.116503	    1.477226	    1.000534	    0.909285	    1.664912	    1.220874	    1.133593
     7.205	0	0	    0	    0.763409	    0.686198	    0.673991	    1.842832	    1.325856	    1.776913	    1.253223	    0.952010	    1.028611	    0.316625	    0.241245	    0.224155	    1.298085	    1.029831	    1.111009	    1.466239	    0.995041	    0.905318	    1.652094	    1.216907	    1.127794
     7.260	0	0	    0	    0.760357	    0.687419	    0.678264	    1.838865	    1.330434	    1.778439	    1.257801	    0.955978	    1.036545	    0.315404	    0.241245	    0.224460	    1.295033	    1.037766	    1.114366	    1.476005	    0.994736	    0.909285	    1.656062	    1.215381	    1.122911
     7.315	0	0	    0	    0.769512	    0.691691	    0.680705	    1.844663	    1.335317	    1.791867	    1.376211	    1.071641	    1.143664	    0.318761	    0.243992	    0.225986	    1.335317	    1.082933	    1.173571	    1.558099	    1.102159	    1.020676	    1.710689	    1.277638	    1.185168
     7.370	0	0	    0	    0.768292	    0.695659	    0.679789	    1.846189	    1.330434	    1.783932	    1.399100	    1.099107	    1.164416	    0.317540	    0.244907	    0.227207	    1.369497	    1.106126	    1.183642	    1.602655	    1.130541	    1.036545	    1.727779	    1.288014	    1.201953
     7.425	0	0	    0	    0.769512	    0.695048	    0.685893	    1.856260	    1.332570	    1.794614	    1.397574	    1.108568	    1.185779	    0.320897	    0.246433	    0.227817	    1.377432	    1.111620	    1.194629	    1.603876	    1.134813	    1.059129	    1.733577	    1.288624	    1.206226
     7.480	0	0	    0	    0.772564	    0.698405	    0.684367	    1.856870	    1.340505	    1.795224	    1.428092	    1.111925	    1.194934	    0.320287	    0.246128	    0.229038	    1.383230	    1.120470	    1.199512	    1.620050	    1.144884	    1.055772	    1.744259	    1.297475	    1.211414
     7.535	0	0	    0	    0.774701	    0.702373	    0.687724	    1.862364	    1.343252	    1.801022	    1.427787	    1.099718	    1.144884	    0.323033	    0.247959	    0.229343	    1.383536	    1.123217	    1.205921	    1.632563	    1.159533	    1.055772	    1.751888	    1.306325	    1.216297
     7.590	0	0	    0	    0.774090	    0.698711	    0.690471	    1.858701	    1.343557	    1.807126	    1.286488	    0.984970	    1.068894	    0.321508	    0.245518	    0.228428	    1.332570	    1.066758	    1.141833	    1.506523	    1.020981	    0.931868	    1.693294	    1.248951	    1.154650
     7.645	0	0	    0	    0.773480	    0.701762	    0.688945	    1.861753	    1.351797	    1.808347	    1.284352	    0.981308	    1.073167	    0.323949	    0.246433	    0.229648	    1.323110	    1.059434	    1.141222	    1.498894	    1.030137	    0.931868	    1.700923	    1.255360	    1.159533
     7.700	0	0	    0	    0.778973	    0.702068	    0.694438	    1.871519	    1.352712	    1.819028	    1.293812	    0.996262	    1.070420	    0.320897	    0.246433	    0.229648	    1.326467	    1.064317	    1.147021	    1.514458	    1.042039	    0.948653	    1.704280	    1.260853	    1.167773
     7.755	0	0	    0	    0.779583	    0.706340	    0.697185	    1.865415	    1.349966	    1.821164	    1.309682	    0.997482	    1.077134	    0.322118	    0.248875	    0.230869	    1.331350	    1.065537	    1.148547	    1.523919	    1.041428	    0.957809	    1.714046	    1.270619	    1.178454
     7.810	0	0	    0	    0.774701	    0.708782	    0.693217	    1.883421	    1.356985	    1.827573	    1.300832	    1.002365	    1.074083	    0.324254	    0.248875	    0.230564	    1.335927	    1.064012	    1.150072	    1.526665	    1.039902	    0.955978	    1.719539	    1.268177	    1.175708
     7.865	0	0	    0	    0.765850	    0.695048	    0.681010	    1.866331	    1.342336	    1.807126	    1.274586	    0.980697	    1.059434	    0.319982	    0.245518	    0.227512	    1.317617	    1.053025	    1.135119	    1.498589	    1.022202	    0.931868	    1.688106	    1.238880	    1.147326
     7.920	0	0	    0	    0.765850	    0.692302	    0.679484	    1.852293	    1.329519	    1.789120	    1.272145	    0.965743	    1.043565	    0.318151	    0.242466	    0.226596	    1.305104	    1.042649	    1.121691	    1.478141	    1.002976	    0.923018	    1.675593	    1.227893	    1.139391
     7.975	0	0	    0	    0.766155	    0.689555	    0.674601	    1.844358	    1.324941	    1.780880	    1.266957	    0.972763	    1.039597	    0.315404	    0.242161	    0.223545	    1.302358	    1.036545	    1.116503	    1.478141	    0.992905	    0.913558	    1.663081	    1.224537	    1.135729
     8.030	0	0	    0	    0.762493	    0.690471	    0.681621	    1.848325	    1.331044	    1.782712	    1.256275	    0.961166	    1.038376	    0.316320	    0.241855	    0.223850	    1.297780	    1.041123	    1.111620	    1.475700	    1.009079	    0.906844	    1.665522	    1.223926	    1.127489
     8.085	0	0	    0	    0.761578	    0.691386	    0.684672	    1.846494	    1.331655	    1.785763	    1.312428	    1.028916	    1.130846	    0.315404	    0.243992	    0.224765	    1.299916	    1.042039	    1.117418	    1.471122	    1.017014	    0.945602	    1.661555	    1.230945	    1.158007
     8.140	0	0	    0	    0.769207	    0.694438	    0.683146	    1.842832	    1.334401	    1.791257	    1.385977	    1.085985	    1.165637	    0.316930	    0.245823	    0.227512	    1.354849	    1.101244	    1.185168	    1.590143	    1.122301	    1.041733	    1.732662	    1.300221	    1.207141
     8.195	0	0	    0	    0.769207	    0.696880	    0.684367	    1.844053	    1.332876	    1.795224	    1.407645	    1.100938	    1.180896	    0.321813	    0.246433	    0.227817	    1.375601	    1.116503	    1.196155	    1.620661	    1.132372	    1.058213	    1.751888	    1.298695	    1.214160
     8.250	0	0	    0	    0.774395	    0.698711	    0.687419	    1.861143	    1.338674	    1.797360	    1.399405	    1.105821	    1.193713	    0.322118	    0.247959	    0.229648	    1.380484	    1.121080	    1.199512	    1.624018	    1.144274	    1.065537	    1.757687	    1.309071	    1.219959
     8.305	0	0	    0	    0.775006	    0.699321	    0.690166	    1.867552	    1.347524	    1.806210	    1.404898	    1.105821	    1.192493	    0.323339	    0.247654	    0.229343	    1.386893	    1.125353	    1.204700	    1.628290	    1.152209	    1.072251	    1.758297	    1.316396	    1.229725
     8.360	0	0	    0	    0.779583	    0.700542	    0.692912	    1.868467	    1.348135	    1.808347	    1.417716	    1.109178	    1.191882	    0.323339	    0.250095	    0.230564	    1.387198	    1.133593	    1.210193	    1.642939	    1.161669	    1.076219	    1.767758	    1.328603	    1.237964
     8.415	0	0	    0	    0.778058	    0.704204	    0.691997	    1.867552	    1.352712	    1.818112	    1.332265	    1.000534	    1.076524	    0.324559	    0.249485	    0.229343	    1.392081	    1.130846	    1.210803	    1.602960	    1.098497	    0.992294	    1.762570	    1.293812	    1.197070
     8.470	0	0	    0	    0.778058	    0.706035	    0.695659	    1.881285	    1.353323	    1.816892	    1.298695	    0.991684	    1.082933	    0.322423	    0.248264	    0.229343	    1.327382	    1.063706	    1.146105	    1.513542	    1.051499	    0.953841	    1.719539	    1.269093	    1.179980
     8.525	0	0	    0	    0.779583	    0.705425	    0.697490	    1.880369	    1.360342	    1.829404	    1.308766	    0.998093	    1.095445	    0.321813	    0.250401	    0.232700	    1.332570	    1.074083	    1.154345	    1.537957	    1.053635	    0.968795	    1.722896	    1.278553	    1.189746
     8.580	0	0	    0	    0.782940	    0.710307	    0.695354	    1.880369	    1.363394	    1.836423	    1.304799	    0.999313	    1.083238	    0.323949	    0.250095	    0.232700	    1.330434	    1.076524	    1.162890	    1.548333	    1.046311	    0.964828	    1.734798	    1.276112	    1.189746
     8.635	0	0	    0	    0.771649	    0.702678	    0.688334	    1.877317	    1.354849	    1.820249	    1.290761	    0.999008	    1.058824	    0.322423	    0.247349	    0.229953	    1.327993	    1.060044	    1.144884	    1.524224	    1.032578	    0.951095	    1.711910	    1.255665	    1.163195
     8.690	0	0	    0	    0.768292	    0.695354	    0.684977	    1.855650	    1.340810	    1.794919	    1.270619	    0.976730	    1.068284	    0.319677	    0.246128	    0.226902	    1.307851	    1.049363	    1.130236	    1.492790	    1.026780	    0.932479	    1.689326	    1.240101	    1.155261
     8.745	0	0	    0	    0.765240	    0.691081	    0.683146	    1.848936	    1.337148	    1.787289	    1.265431	    0.972763	    1.050278	    0.317235	    0.244602	    0.225986	    1.303578	    1.044175	    1.120775	    1.488212	    1.020981	    0.923629	    1.682002	    1.235523	    1.146715
     8.800	0	0	    0	    0.768292	    0.695048	    0.680705	    1.850462	    1.332570	    1.793088	    1.274891	    0.971542	    1.056687	    0.318456	    0.243992	    0.225071	    1.299916	    1.047532	    1.123827	    1.497368	    1.017929	    0.932784	    1.681086	    1.234607	    1.147021
     8.855	0	0	    0	    0.767987	    0.695659	    0.684977	    1.856260	    1.338674	    1.793393	    1.277638	    0.978256	    1.053941	    0.317845	    0.245212	    0.225681	    1.310597	    1.047532	    1.129625	    1.486687	    1.013046	    0.920882	    1.682612	    1.241016	    1.143053
     8.910	0	0	    0	    0.768292	    0.693217	    0.683146	    1.859007	    1.338064	    1.792782	    1.271229	    0.976425	    1.059129	    0.317235	    0.245518	    0.225986	    1.308461	    1.049668	    1.127794	    1.482719	    1.023117	    0.934920	    1.673762	    1.240711	    1.144884
     8.965	0	0	    0	    0.767071	    0.694743	    0.685283	    1.853819	    1.339284	    1.800107	    1.269703	    0.982834	    1.061875	    0.319371	    0.244297	    0.226902	    1.309987	    1.053330	    1.131762	    1.508659	    1.024338	    0.927596	    1.681392	    1.242542	    1.154955
     9.020	0	0	    0	    0.776226	    0.696880	    0.684062	    1.859312	    1.342336	    1.799496	    1.283131	    0.978866	    1.064622	    0.319677	    0.245212	    0.227512	    1.313649	    1.053941	    1.136339	    1.508965	    1.031357	    0.937972	    1.693294	    1.250477	    1.158923
     9.075	0	0	    0	    0.774701	    0.702678	    0.695048	    1.868467	    1.346304	    1.808347	    1.363394	    1.079271	    1.171740	    0.321508	    0.246738	    0.230259	    1.320058	    1.058824	    1.147936	    1.541619	    1.091173	    1.014572	    1.716793	    1.282521	    1.206836
     9.130	0	0	    0	    0.779278	    0.703899	    0.694133	    1.869993	    1.357900	    1.810788	    1.413748	    1.114061	    1.198596	    0.324559	    0.250401	    0.232700	    1.385367	    1.132067	    1.208667	    1.628901	    1.162890	    1.076219	    1.779049	    1.333181	    1.243153
     9.185	0	0	    0	    0.781720	    0.707561	    0.693523	    1.875181	    1.357290	    1.815976	    1.430533	    1.129320	    1.194934	    0.325475	    0.250706	    0.234226	    1.397269	    1.141527	    1.220874	    1.644465	    1.176928	    1.090562	    1.784543	    1.338369	    1.251087
     9.240	0	0	    0	    0.784161	    0.711223	    0.696269	    1.882200	    1.356680	    1.830625	    1.437858	    1.138781	    1.223316	    0.326390	    0.252842	    0.234836	    1.398184	    1.137865	    1.231250	    1.673457	    1.174792	    1.090257	    1.791562	    1.345998	    1.257191
     9.295	0	0	    0	    0.779889	    0.707866	    0.694133	    1.891661	    1.359121	    1.828489	    1.421073	    1.123522	    1.206226	    0.325780	    0.252537	    0.232700	    1.401541	    1.138170	    1.225757	    1.654536	    1.176623	    1.079576	    1.789425	    1.342336	    1.251087
     9.350	0	0	    0	    0.769512	    0.698405	    0.689555	    1.869383	    1.347219	    1.809567	    1.403067	    1.107958	    1.192187	    0.323339	    0.249485	    0.230564	    1.385977	    1.128405	    1.210193	    1.627070	    1.154650	    1.060044	    1.761044	    1.322805	    1.227893
     9.405	0	0	    0	    0.770428	    0.699016	    0.688029	    1.856565	    1.338979	    1.794308	    1.405509	    1.100633	    1.183642	    0.321508	    0.247959	    0.230259	    1.380484	    1.118334	    1.196460	    1.618830	    1.146105	    1.060044	    1.749752	    1.307240	    1.223316
     9.460	0	0	    0	    0.768597	    0.698711	    0.685283	    1.858396	    1.339590	    1.796445	    1.386282	    1.094835	    1.184558	    0.322423	    0.244907	    0.228122	    1.375601	    1.115587	    1.200122	    1.615473	    1.136645	    1.061265	    1.751278	    1.306020	    1.222095
     9.515	0	0	    0	    0.769818	    0.695659	    0.684367	    1.858396	    1.340505	    1.795834	    1.382315	    1.107347	    1.194934	    0.321508	    0.247349	    0.229343	    1.378958	    1.115892	    1.201648	    1.627070	    1.153429	    1.061570	    1.752499	    1.310597	    1.219654
     9.570	0	0	    0	    0.771649	    0.696269	    0.686198	    1.857176	    1.342641	    1.802548	    1.398795	    1.094530	    1.192187	    0.322423	    0.247654	    0.229953	    1.381704	    1.122911	    1.198596	    1.622492	    1.144884	    1.060655	    1.752499	    1.312123	    1.219654
     9.625	0	0	    0	    0.775616	    0.698405	    0.688029	    1.857176	    1.338064	    1.802853	    1.411307	    1.101854	    1.186999	    0.322118	    0.245823	    0.229343	    1.381399	    1.120775	    1.206226	    1.627985	    1.145495	    1.060044	    1.755856	    1.307240	    1.218433
     9.680	0	0	    0	    0.774090	    0.702983	    0.690776	    1.862058	    1.342336	    1.803464	    1.403067	    1.103380	    1.200122	    0.321202	    0.248264	    0.230869	    1.382010	    1.121996	    1.205310	    1.626459	    1.162280	    1.059129	    1.757687	    1.315175	    1.228809
     9.735	0	0	    0	    0.777447	    0.704204	    0.692607	    1.868467	    1.349660	    1.807736	    1.414054	    1.112840	    1.201038	    0.323033	    0.249180	    0.231479	    1.388113	    1.129931	    1.212940	    1.645991	    1.167773	    1.065537	    1.773251	    1.330739	    1.236439
     9.790	0	0	    0	    0.780194	    0.707256	    0.694133	    1.874266	    1.353017	    1.811704	    1.413748	    1.124437	    1.206531	    0.324559	    0.249790	    0.232090	    1.390860	    1.133288	    1.218433	    1.637446	    1.163806	    1.081407	    1.778439	    1.331350	    1.246509
     9.845	0	0	    0	    0.780499	    0.709087	    0.693828	    1.869383	    1.355459	    1.822995	    1.436942	    1.124437	    1.208972	    0.325780	    0.250095	    0.232395	    1.390249	    1.139391	    1.221790	    1.645686	    1.163806	    1.085374	    1.783627	    1.331655	    1.250172
     9.900	0	0	    0	    0.785382	    0.708171	    0.699626	    1.880980	    1.361257	    1.829099	    1.431754	    1.127794	    1.219654	    0.326390	    0.251926	    0.235447	    1.393606	    1.138476	    1.232471	    1.670710	    1.169909	    1.094835	    1.794919	    1.346304	    1.259632
     9.955	0	0	    0	    0.785077	    0.710613	    0.704509	    1.889525	    1.366445	    1.829709	    1.435721	    1.125963	    1.224842	    0.325170	    0.252232	    0.233616	    1.400931	    1.147631	    1.233692	    1.665217	    1.187304	    1.102464	    1.804685	    1.354849	    1.267567
    10.010	0	0	    0	    0.782330	    0.707256	    0.698100	    1.890440	    1.367361	    1.831235	    1.428092	    1.129931	    1.215381	    0.327306	    0.252842	    0.236057	    1.405814	    1.145190	    1.239185	    1.670100	    1.186999	    1.089647	    1.794308	    1.347524	    1.254749
    10.065	0	0	    0	    0.776226	    0.699626	    0.685893	    1.869078	    1.346304	    1.810178	    1.406424	    1.110704	    1.191272	    0.324559	    0.248875	    0.230869	    1.390249	    1.128099	    1.211719	    1.630426	    1.155871	    1.071641	    1.765011	    1.320974	    1.232471
    10.120	0	0	    0	    0.771344	    0.696574	    0.684672	    1.860227	    1.336233	    1.792477	    1.403067	    1.101854	    1.190661	    0.320897	    0.248264	    0.230564	    1.373159	    1.119554	    1.201648	    1.613031	    1.146715	    1.056077	    1.748836	    1.309071	    1.219959
    10.175	0	0	    0	    0.765850	    0.695048	    0.683452	    1.854734	    1.332876	    1.788510	    1.379873	    1.095140	    1.183948	    0.317845	    0.245823	    0.229038	    1.372854	    1.116808	    1.196460	    1.618524	    1.139696	    1.052720	    1.747921	    1.306935	    1.217823
    10.230	0	0	    0	    0.767376	    0.693523	    0.680400	    1.843748	    1.333486	    1.790341	    1.389334	    1.109789	    1.178149	    0.319677	    0.245518	    0.228428	    1.363088	    1.118944	    1.194934	    1.605402	    1.148547	    1.049668	    1.744564	    1.302968	    1.216907
    10.285	0	0	    0	    0.771038	    0.694438	    0.683146	    1.847715	    1.335317	    1.790646	    1.389944	    1.103685	    1.172351	    0.320287	    0.244602	    0.228428	    1.365530	    1.114672	    1.200427	    1.616083	    1.143664	    1.055467	    1.750057	    1.309377	    1.208972
    10.340	0	0	    0	    0.770733	    0.695659	    0.684367	    1.854429	    1.337758	    1.797360	    1.399710	    1.094530	    1.177844	    0.320897	    0.246128	    0.227512	    1.373465	    1.115587	    1.199207	    1.614252	    1.134813	    1.042954	    1.747616	    1.303578	    1.211414
    10.395	0	0	    0	    0.772869	    0.693828	    0.688334	    1.859007	    1.337148	    1.792477	    1.393912	    1.111009	    1.194629	    0.319371	    0.247349	    0.229343	    1.380179	    1.117418	    1.201343	    1.611810	    1.146105	    1.069200	    1.748226	    1.308766	    1.219654
    10.450	0	0	    0	    0.776532	    0.700542	    0.687114	    1.860533	    1.341421	    1.805600	    1.412833	    1.102464	    1.188525	    0.322118	    0.248569	    0.229953	    1.380484	    1.128405	    1.205615	    1.621576	    1.151598	    1.067369	    1.757076	    1.313344	    1.229114
    10.505	0	0	    0	    0.775616	    0.703288	    0.688640	    1.868467	    1.348135	    1.813230	    1.417411	    1.113146	    1.194934	    0.321508	    0.248875	    0.230564	    1.381094	    1.132067	    1.218738	    1.637751	    1.150988	    1.073472	    1.769894	    1.316091	    1.231250
    10.560	0	0	    0	    0.776837	    0.705730	    0.692912	    1.877317	    1.351186	    1.813840	    1.409476	    1.115892	    1.199817	    0.323033	    0.249180	    0.232700	    1.390860	    1.130846	    1.219654	    1.645686	    1.162280	    1.078050	    1.773251	    1.328603	    1.237964
    10.615	0	0	    0	    0.775921	    0.706645	    0.695964	    1.873655	    1.350881	    1.815671	    1.411307	    1.132067	    1.208362	    0.323033	    0.249180	    0.233310	    1.385977	    1.133898	    1.214771	    1.646296	    1.174792	    1.085679	    1.775387	    1.327993	    1.241321
    10.670	0	0	    0	    0.785382	    0.709087	    0.696574	    1.870298	    1.360342	    1.826963	    1.430838	    1.129015	    1.216907	    0.324865	    0.252232	    0.233921	    1.389639	    1.144579	    1.227283	    1.642939	    1.176928	    1.094835	    1.789731	    1.341726	    1.256275
    10.725	0	0	    0	    0.783856	    0.708476	    0.699626	    1.882811	    1.361868	    1.831846	    1.422599	    1.134813	    1.210498	    0.325170	    0.252842	    0.236362	    1.397879	    1.147326	    1.233082	    1.666743	    1.181506	    1.095140	    1.798886	    1.350271	    1.259327
    10.780	0	0	    0	    0.775616	    0.699931	    0.691997	    1.880674	    1.353628	    1.820249	    1.409476	    1.116503	    1.200122	    0.324254	    0.251011	    0.232090	    1.393301	    1.131456	    1.223621	    1.632258	    1.167163	    1.082322	    1.769894	    1.331350	    1.233082
    10.835	0	0	    0	    0.770428	    0.692607	    0.680705	    1.860227	    1.341115	    1.794003	    1.388113	    1.092699	    1.186694	    0.321508	    0.247959	    0.229343	    1.376822	    1.121386	    1.203174	    1.619745	    1.155871	    1.056992	    1.749752	    1.311818	    1.217823
    10.890	0	0	    0	    0.767987	    0.690776	    0.678569	    1.847105	    1.336538	    1.794003	    1.392081	    1.100023	    1.175402	    0.318456	    0.245212	    0.227207	    1.364614	    1.115282	    1.199512	    1.602960	    1.134508	    1.046616	    1.735409	    1.294423	    1.210498
    10.945	0	0	    0	    0.762493	    0.689250	    0.678569	    1.846494	    1.333486	    1.781186	    1.369192	    1.094835	    1.166552	    0.318151	    0.243381	    0.226902	    1.364614	    1.109483	    1.187610	    1.590753	    1.125048	    1.052110	    1.726558	    1.288930	    1.204700
    11.000	0	0	    0	    0.765240	    0.690166	    0.681010	    1.851377	    1.329824	    1.776608	    1.379873	    1.093614	    1.171130	    0.317235	    0.242771	    0.225681	    1.365530	    1.111009	    1.190051	    1.607843	    1.130846	    1.050278	    1.732052	    1.291981	    1.205615
    11.055	0	0	    0	    0.765240	    0.689555	    0.680705	    1.846799	    1.333791	    1.784848	    1.387198	    1.100023	    1.174487	    0.316930	    0.243687	    0.226596	    1.369802	    1.113146	    1.191272	    1.595636	    1.140002	    1.047837	    1.731441	    1.296864	    1.204089
    11.110	0	0	    0	    0.767681	    0.693523	    0.682536	    1.847410	    1.331960	    1.788510	    1.387198	    1.104906	    1.177234	    0.319677	    0.244602	    0.226291	    1.369497	    1.114672	    1.198901	    1.604486	    1.135729	    1.044480	    1.738460	    1.299306	    1.207141
    11.165	0	0	    0	    0.769207	    0.694438	    0.679789	    1.846494	    1.331350	    1.789120	    1.391165	    1.106432	    1.179065	    0.319371	    0.246738	    0.227207	    1.370718	    1.115587	    1.202258	    1.612726	    1.137865	    1.055161	    1.746090	    1.305104	    1.215991
    11.220	0	0	    0	    0.769207	    0.698100	    0.684062	    1.854734	    1.339284	    1.798886	    1.396353	    1.109483	    1.191577	    0.319371	    0.245823	    0.229343	    1.378042	    1.124437	    1.208057	    1.619745	    1.146410	    1.059434	    1.759518	    1.313344	    1.218128
    11.275	0	0	    0	    0.774090	    0.699016	    0.686809	    1.862974	    1.346914	    1.807736	    1.408560	    1.111620	    1.203174	    0.320287	    0.246128	    0.229648	    1.384146	    1.125353	    1.213245	    1.623102	    1.149767	    1.080797	    1.759518	    1.307851	    1.227283
    11.330	0	0	    0	    0.775311	    0.701152	    0.687114	    1.864805	    1.344472	    1.813840	    1.414969	    1.126879	    1.197986	    0.321508	    0.246433	    0.230564	    1.382925	    1.129931	    1.218433	    1.644465	    1.157397	    1.078355	    1.769894	    1.318227	    1.235828
    11.385	0	0	    0	    0.778058	    0.703593	    0.692607	    1.867857	    1.349355	    1.812009	    1.422599	    1.123827	    1.217212	    0.324865	    0.251316	    0.230564	    1.389334	    1.135424	    1.221180	    1.648737	    1.176318	    1.089952	    1.780880	    1.332876	    1.240406
    11.440	0	0	    0	    0.778973	    0.704509	    0.693217	    1.873655	    1.359121	    1.817502	    1.429313	    1.131456	    1.225757	    0.323339	    0.250095	    0.231785	    1.390860	    1.139391	    1.225757	    1.657588	    1.191577	    1.100023	    1.794308	    1.339895	    1.246509
    11.495	0	0	    0	    0.783246	    0.707561	    0.699321	    1.880369	    1.359121	    1.819638	    1.437247	    1.142138	    1.231556	    0.326085	    0.251316	    0.233005	    1.398184	    1.147021	    1.227893	    1.681697	    1.196765	    1.116808	    1.791867	    1.343557	    1.261158
    11.550	0	0	    0	    0.780499	    0.704814	    0.692302	    1.884337	    1.362783	    1.832151	    1.429007	    1.129625	    1.214160	    0.324559	    0.250095	    0.232395	    1.398489	    1.142748	    1.230945	    1.677119	    1.194324	    1.105821	    1.789120	    1.338979	    1.244678
    11.605	0	0	    0	    0.770428	    0.696880	    0.683146	    1.870603	    1.340810	    1.802243	    1.406119	    1.125048	    1.194018	    0.321813	    0.247349	    0.229648	    1.381094	    1.122301	    1.208972	    1.660334	    1.175097	    1.081102	    1.765927	    1.318227	    1.226368
    11.660	0	0	    0	    0.767681	    0.693217	    0.682231	    1.857176	    1.337758	    1.791562	    1.399710	    1.099107	    1.192187	    0.317235	    0.244907	    0.227512	    1.371023	    1.116808	    1.198596	    1.644465	    1.156176	    1.077134	    1.752193	    1.308156	    1.217823
    11.715	0	0	    0	    0.769512	    0.688945	    0.677958	    1.854734	    1.327687	    1.786984	    1.391470	    1.108263	    1.189136	    0.317235	    0.243992	    0.225986	    1.367361	    1.111315	    1.195544	    1.626459	    1.155871	    1.070420	    1.746700	    1.298390	    1.216297
    11.770	0	0	    0	    0.768597	    0.691081	    0.679789	    1.841917	    1.323720	    1.779660	    1.400320	    1.119249	    1.193713	    0.315404	    0.243687	    0.227512	    1.364920	    1.107958	    1.196765	    1.632258	    1.156786	    1.073167	    1.737545	    1.298390	    1.212024
    11.825	0	0	    0	    0.767987	    0.691081	    0.681621	    1.861143	    1.331350	    1.785763	    1.417105	    1.130541	    1.208362	    0.319066	    0.244907	    0.227817	    1.372244	    1.115892	    1.197070	    1.646906	    1.178454	    1.078355	    1.749142	    1.304799	    1.212940
    11.880	0	0	    0	    0.768597	    0.694438	    0.683452	    1.847410	    1.331044	    1.786984	    1.411307	    1.120470	    1.207141	    0.317845	    0.245823	    0.226902	    1.362173	    1.112535	    1.196765	    1.634089	    1.163195	    1.080491	    1.740291	    1.302052	    1.214160
    11.935	0	0	    0	    0.770123	    0.696269	    0.684367	    1.857176	    1.333486	    1.792172	    1.422904	    1.135119	    1.204089	    0.318456	    0.244907	    0.228733	    1.372854	    1.114672	    1.202869	    1.639582	    1.178149	    1.100938	    1.743038	    1.307546	    1.220569
    11.990	0	0	    0	    0.767987	    0.696574	    0.685893	    1.856565	    1.338979	    1.797665	    1.427176	    1.136950	    1.218128	    0.320897	    0.247349	    0.228733	    1.374685	    1.118944	    1.201343	    1.675898	    1.189136	    1.092393	    1.761044	    1.313954	    1.215991
    12.045	0	0	    0	    0.770123	    0.697795	    0.686503	    1.867247	    1.342641	    1.801938	    1.434501	    1.135119	    1.238270	    0.323033	    0.247044	    0.230259	    1.381704	    1.124743	    1.203479	    1.661555	    1.185473	    1.115587	    1.768063	    1.316396	    1.232776
    12.100	0	0	    0	    0.778058	    0.698100	    0.690776	    1.868162	    1.339590	    1.807126	    1.444266	    1.157702	    1.239185	    0.321813	    0.246433	    0.229038	    1.389334	    1.123827	    1.215076	    1.669795	    1.192493	    1.115892	    1.768368	    1.324636	    1.237354
    12.155	0	0	    0	    0.776837	    0.699321	    0.692912	    1.869993	    1.343862	    1.810178	    1.443656	    1.152819	    1.243458	    0.323949	    0.248569	    0.230564	    1.389334	    1.132067	    1.216602	    1.685054	    1.204089	    1.121691	    1.784543	    1.332570	    1.246509
    12.210	0	0	    0	    0.781415	    0.704814	    0.694133	    1.876707	    1.353628	    1.815671	    1.456779	    1.166552	    1.254444	    0.325170	    0.250095	    0.232700	    1.390249	    1.138170	    1.222400	    1.705501	    1.208667	    1.122606	    1.794308	    1.353628	    1.254444
    12.265	0	0	    0	    0.775311	    0.701762	    0.691691	    1.883726	    1.351186	    1.818723	    1.444572	    1.150988	    1.234607	    0.324559	    0.250706	    0.232090	    1.399405	    1.138476	    1.217517	    1.686885	    1.204395	    1.111620	    1.790951	    1.336233	    1.239185
    12.320	0	0	    0	    0.770733	    0.694438	    0.682536	    1.864500	    1.340505	    1.798276	    1.428397	    1.134508	    1.216297	    0.319677	    0.247959	    0.228733	    1.382315	    1.127489	    1.207752	    1.655146	    1.194018	    1.097276	    1.754025	    1.320363	    1.226368
    12.375	0	0	    0	    0.766766	    0.694133	    0.680095	    1.860838	    1.332570	    1.795529	    1.414054	    1.129015	    1.209888	    0.320897	    0.245518	    0.227512	    1.374990	    1.119860	    1.204700	    1.658808	    1.186084	    1.090867	    1.757076	    1.310903	    1.224537
    12.430	0	0	    0	    0.770123	    0.697185	    0.683452	    1.859007	    1.332876	    1.788205	    1.410086	    1.127184	    1.213550	    0.320897	    0.246433	    0.229038	    1.372854	    1.121996	    1.201648	    1.647517	    1.166247	    1.085374	    1.759823	    1.311513	    1.224231
    12.485	0	0	    0	    0.770428	    0.695048	    0.686503	    1.856870	    1.338979	    1.786679	    1.411612	    1.123217	    1.202258	    0.321508	    0.247044	    0.229343	    1.377127	    1.122911	    1.204089	    1.649958	    1.161669	    1.091783	    1.757076	    1.312734	    1.226368
    12.540	0	0	    0	    0.770123	    0.693828	    0.682231	    1.859922	    1.341421	    1.797971	    1.410391	    1.107958	    1.203479	    0.321508	    0.247654	    0.229038	    1.378653	    1.126574	    1.205615	    1.629816	    1.170214	    1.083848	    1.761654	    1.317311	    1.231250
    12.595	0	0	    0	    0.775006	    0.697490	    0.685283	    1.858091	    1.342336	    1.795834	    1.417411	    1.120775	    1.206531	    0.321813	    0.246738	    0.228428	    1.381094	    1.127794	    1.208057	    1.652094	    1.169604	    1.077440	    1.771725	    1.318532	    1.227283
    12.650	0	0	    0	    0.773785	    0.700542	    0.688945	    1.862669	    1.338674	    1.797360	    1.429007	    1.129625	    1.206226	    0.322728	    0.247654	    0.229038	    1.380484	    1.126574	    1.206836	    1.659113	    1.176623	    1.083543	    1.779049	    1.331655	    1.233082
    12.705	0	0	    0	    0.776837	    0.702678	    0.691386	    1.867857	    1.346914	    1.806821	    1.431144	    1.133288	    1.218128	    0.322728	    0.249485	    0.231785	    1.392691	    1.132372	    1.217823	    1.667353	    1.200122	    1.090867	    1.780575	    1.334707	    1.240101
    12.760	0	0	    0	    0.778668	    0.702983	    0.692302	    1.877317	    1.354543	    1.814145	    1.429618	    1.140612	    1.216602	    0.322118	    0.251316	    0.232395	    1.394827	    1.137255	    1.220569	    1.667659	    1.190051	    1.105821	    1.789120	    1.334401	    1.249256
    12.815	0	0	    0	    0.781415	    0.708782	    0.694133	    1.880064	    1.352407	    1.819944	    1.431144	    1.139086	    1.234913	    0.326085	    0.251621	    0.232395	    1.399710	    1.138476	    1.228504	    1.688716	    1.188830	    1.104601	    1.797665	    1.347829	    1.252003
    12.870	0	0	    0	    0.785382	    0.712139	    0.699016	    1.882200	    1.354238	    1.816281	    1.428397	    1.150988	    1.235828	    0.326390	    0.251011	    0.233005	    1.396658	    1.142443	    1.230335	    1.692988	    1.197681	    1.095750	    1.806821	    1.354849	    1.266041
    12.925	0	0	    0	    0.776532	    0.699016	    0.688334	    1.887083	    1.361563	    1.818112	    1.428092	    1.126574	    1.213550	    0.324865	    0.250401	    0.233310	    1.403067	    1.143359	    1.226368	    1.674067	    1.190356	    1.099718	    1.784543	    1.337148	    1.252308
    12.980	0	0	    0	    0.773480	    0.692302	    0.686809	    1.860227	    1.342641	    1.796445	    1.404898	    1.115892	    1.199512	    0.320592	    0.247349	    0.230259	    1.383841	    1.130541	    1.204089	    1.636225	    1.162585	    1.080797	    1.752193	    1.317006	    1.223621
    13.035	0	0	    0	    0.770123	    0.694438	    0.680705	    1.857786	    1.336843	    1.788815	    1.387808	    1.105821	    1.194324	    0.319677	    0.245518	    0.227512	    1.378042	    1.119860	    1.201343	    1.633173	    1.153429	    1.063706	    1.743038	    1.298085	    1.208362
    13.090	0	0	    0	    0.767376	    0.693217	    0.680705	    1.852903	    1.333791	    1.783017	    1.404898	    1.109789	    1.186389	    0.320287	    0.245823	    0.226902	    1.374990	    1.114366	    1.192798	    1.607538	    1.154345	    1.056077	    1.735409	    1.295338	    1.205921
    13.145	0	0	    0	    0.769207	    0.693217	    0.678569	    1.856565	    1.336233	    1.786069	    1.396963	    1.103075	    1.177539	    0.317845	    0.245823	    0.226902	    1.374380	    1.119860	    1.196155	    1.609979	    1.138781	    1.057298	    1.735103	    1.292592	    1.202564
    13.200	0	0	    0	    0.769512	    0.694133	    0.681315	    1.855650	    1.335622	    1.790036	    1.407950	    1.110399	    1.189136	    0.319677	    0.244602	    0.226596	    1.378958	    1.122606	    1.202869	    1.619135	    1.145190	    1.060044	    1.733272	    1.291981	    1.201343
    13.255	0	0	    0	    0.771038	    0.699626	    0.680705	    1.852293	    1.332570	    1.788205	    1.407034	    1.108873	    1.183337	    0.320592	    0.246128	    0.226902	    1.369802	    1.122301	    1.202869	    1.616693	    1.144274	    1.065232	    1.738766	    1.292287	    1.206531
    13.310	0	0	    0	    0.772869	    0.696574	    0.686503	    1.858091	    1.336538	    1.787900	    1.405814	    1.107958	    1.197070	    0.320897	    0.247044	    0.227207	    1.381094	    1.125658	    1.204700	    1.617304	    1.156481	    1.061570	    1.740291	    1.295949	    1.212634
    13.365	0	0	    0	    0.778363	    0.697795	    0.687114	    1.866026	    1.349050	    1.798276	    1.414664	    1.121996	    1.214160	    0.322118	    0.248264	    0.230259	    1.389029	    1.132677	    1.212940	    1.625238	    1.152819	    1.060960	    1.742733	    1.304494	    1.212940
    13.420	0	0	    0	    0.778668	    0.703899	    0.688945	    1.870298	    1.346609	    1.807126	    1.425345	    1.126879	    1.211109	    0.323949	    0.247654	    0.229343	    1.388724	    1.132677	    1.215381	    1.638056	    1.164111	    1.072557	    1.754635	    1.313954	    1.223011
    13.475	0	0	    0	    0.783551	    0.706340	    0.691691	    1.876402	    1.348745	    1.811398	    1.425040	    1.129320	    1.208362	    0.323033	    0.249485	    0.230869	    1.395438	    1.134508	    1.222095	    1.651484	    1.163195	    1.076829	    1.757076	    1.315480	    1.227588
    13.530	0	0	    0	    0.778973	    0.708782	    0.694133	    1.885252	    1.355459	    1.814145	    1.434501	    1.143359	    1.220569	    0.324559	    0.250095	    0.232090	    1.401541	    1.144274	    1.223011	    1.664912	    1.168383	    1.085985	    1.769284	    1.323110	    1.234913
    13.585	0	0	    0	    0.784161	    0.709392	    0.698711	    1.885252	    1.361563	    1.818112	    1.440604	    1.136645	    1.225757	    0.326390	    0.250706	    0.233310	    1.404288	    1.150683	    1.232471	    1.654841	    1.176318	    1.097276	    1.776608	    1.335622	    1.245594
    13.640	0	0	    0	    0.781415	    0.705730	    0.690166	    1.885252	    1.356985	    1.819944	    1.426871	    1.127794	    1.209277	    0.324254	    0.249790	    0.232395	    1.406424	    1.145495	    1.225452	    1.650263	    1.162585	    1.076219	    1.764706	    1.321889	    1.228504
    13.695	0	0	    0	    0.772564	    0.697185	    0.685283	    1.865110	    1.342336	    1.792782	    1.398489	    1.108263	    1.185779	    0.320592	    0.246128	    0.228733	    1.382925	    1.125353	    1.207446	    1.616388	    1.143664	    1.049668	    1.734493	    1.290761	    1.198596
    13.750	0	0	    0	    0.766461	    0.691081	    0.682536	    1.856870	    1.338979	    1.782101	    1.387808	    1.096971	    1.177234	    0.318456	    0.245823	    0.227817	    1.377432	    1.118944	    1.197986	    1.594720	    1.127794	    1.046006	    1.721065	    1.283131	    1.189441
    13.805	0	0	    0	    0.770733	    0.691997	    0.679789	    1.845274	    1.330434	    1.776303	    1.388113	    1.097581	    1.176928	    0.318151	    0.242771	    0.226902	    1.365835	    1.110399	    1.189441	    1.577325	    1.121386	    1.039597	    1.712520	    1.273365	    1.187915
    13.860	0	0	    0	    0.770123	    0.691386	    0.679789	    1.844358	    1.323110	    1.785763	    1.372854	    1.096971	    1.166552	    0.317845	    0.243687	    0.225071	    1.366140	    1.111925	    1.195544	    1.584955	    1.112535	    1.027695	    1.704891	    1.272755	    1.186084
    13.915	0	0	    0	    0.767071	    0.693217	    0.683146	    1.847715	    1.330129	    1.781796	    1.369802	    1.097887	    1.167773	    0.316930	    0.243381	    0.225986	    1.371939	    1.114977	    1.195544	    1.591363	    1.116808	    1.037766	    1.707942	    1.268788	    1.183948
    13.970	0	0	    0	    0.767681	    0.691997	    0.681926	    1.853513	    1.332570	    1.777523	    1.388724	    1.094224	    1.172656	    0.318151	    0.243992	    0.227207	    1.375906	    1.116197	    1.197986	    1.589837	    1.130846	    1.033188	    1.702754	    1.279774	    1.184253
    14.025	0	0	    0	    0.774090	    0.694133	    0.685283	    1.856565	    1.335317	    1.788510	    1.392081	    1.093919	    1.182422	    0.318151	    0.246128	    0.225681	    1.378042	    1.118029	    1.201953	    1.583429	    1.122911	    1.042344	    1.708248	    1.282826	    1.192493
    14.080	0	0	    0	    0.774090	    0.699321	    0.685893	    1.860838	    1.338369	    1.795529	    1.402152	    1.102770	    1.177234	    0.318456	    0.247654	    0.228428	    1.379873	    1.122606	    1.208972	    1.599603	    1.136645	    1.045396	    1.718318	    1.286793	    1.202258
    14.135	0	0	    0	    0.773785	    0.702373	    0.689250	    1.861143	    1.345083	    1.794919	    1.396963	    1.103075	    1.191882	    0.321813	    0.247349	    0.229343	    1.383841	    1.130541	    1.208057	    1.604486	    1.138170	    1.047837	    1.729000	    1.297780	    1.207446
    14.190	0	0	    0	    0.778973	    0.701762	    0.690471	    1.871519	    1.351492	    1.802243	    1.414969	    1.118334	    1.201038	    0.323339	    0.249180	    0.231479	    1.387808	    1.132067	    1.216297	    1.605402	    1.150378	    1.060960	    1.738155	    1.305104	    1.217823
    14.245	0	0	    0	    0.777142	    0.707561	    0.693828	    1.872435	    1.349660	    1.813535	    1.419242	    1.121080	    1.199512	    0.323644	    0.250095	    0.231479	    1.396963	    1.136950	    1.224231	    1.602960	    1.157092	    1.068589	    1.747311	    1.310292	    1.221180
    14.300	0	0	    0	    0.782940	    0.707256	    0.697185	    1.879759	    1.354543	    1.815671	    1.419242	    1.125048	    1.208972	    0.323949	    0.248569	    0.232090	    1.396963	    1.140612	    1.223316	    1.636530	    1.159838	    1.074388	    1.753719	    1.312734	    1.227893
    14.355	0	0	    0	    0.784771	    0.709697	    0.701762	    1.883726	    1.357900	    1.823606	    1.435721	    1.141527	    1.232776	    0.325475	    0.251011	    0.232700	    1.402457	    1.140917	    1.230640	    1.640497	    1.175708	    1.085985	    1.766232	    1.321889	    1.235828
    14.410	0	0	    0	    0.785992	    0.706035	    0.697490	    1.882506	    1.365225	    1.817197	    1.432670	    1.117723	    1.212940	    0.324254	    0.249790	    0.233921	    1.397269	    1.148241	    1.227283	    1.626154	    1.173266	    1.074693	    1.763180	    1.320668	    1.235218
    14.465	0	0	    0	    0.773175	    0.698100	    0.687114	    1.872740	    1.344167	    1.804074	    1.401846	    1.098192	    1.190051	    0.320287	    0.248569	    0.229953	    1.389334	    1.127184	    1.212024	    1.602350	    1.151904	    1.053635	    1.734188	    1.302968	    1.210193
    14.520	0	0	    0	    0.769207	    0.697185	    0.685283	    1.856565	    1.336538	    1.792477	    1.393912	    1.094530	    1.175402	    0.319677	    0.244907	    0.227512	    1.376211	    1.121691	    1.200122	    1.586481	    1.136950	    1.050584	    1.718929	    1.293812	    1.201648
    14.575	0	0	    0	    0.770123	    0.695354	    0.683452	    1.847105	    1.327993	    1.783627	    1.380484	    1.075608	    1.177234	    0.319371	    0.244907	    0.227512	    1.366140	    1.108568	    1.192493	    1.594720	    1.139391	    1.049058	    1.720455	    1.283742	    1.194934
    14.630	0	0	    0	    0.768902	    0.695659	    0.685893	    1.844968	    1.328908	    1.780270	    1.384451	    1.091478	    1.169604	    0.317235	    0.245823	    0.228122	    1.367971	    1.110704	    1.192493	    1.577020	    1.127184	    1.049668	    1.711299	    1.280690	    1.195850
    14.685	0	0	    0	    0.768292	    0.694743	    0.686198	    1.852598	    1.330434	    1.786679	    1.377127	    1.093004	    1.165942	    0.317845	    0.245212	    0.228122	    1.371023	    1.114977	    1.196765	    1.588006	    1.125353	    1.042344	    1.717708	    1.275807	    1.195239
    14.740	0	0	    0	    0.771344	    0.695354	    0.685893	    1.850767	    1.327382	    1.776303	    1.390249	    1.096971	    1.180285	    0.319066	    0.245518	    0.227817	    1.373159	    1.116197	    1.197070	    1.592279	    1.129931	    1.038987	    1.716182	    1.285573	    1.194018
    14.795	0	0	    0	    0.768902	    0.699016	    0.688334	    1.859312	    1.333486	    1.786069	    1.392386	    1.098497	    1.188220	    0.320897	    0.247654	    0.228122	    1.383230	    1.114977	    1.196155	    1.599908	    1.133288	    1.049668	    1.725032	    1.287709	    1.199817
    14.850	0	0	    0	    0.774090	    0.699016	    0.691386	    1.856565	    1.342947	    1.800412	    1.389029	    1.107958	    1.186084	    0.321508	    0.247044	    0.229038	    1.378347	    1.130236	    1.207446	    1.600214	    1.145800	    1.058518	    1.725948	    1.294423	    1.209583
    14.905	0	0	    0	    0.781109	    0.705119	    0.693523	    1.859312	    1.344472	    1.797360	    1.411002	    1.112840	    1.199512	    0.320287	    0.247044	    0.230564	    1.387198	    1.128405	    1.209277	    1.598383	    1.151293	    1.062486	    1.735409	    1.302358	    1.213245
    14.960	0	0	    0	    0.779278	    0.705425	    0.694133	    1.873350	    1.348440	    1.805295	    1.417716	    1.120775	    1.205310	    0.322423	    0.248875	    0.230869	    1.393912	    1.133593	    1.212634	    1.629816	    1.169299	    1.070726	    1.745480	    1.313954	    1.222400
    15.015	0	0	    0	    0.781109	    0.708782	    0.699321	    1.876402	    1.352102	    1.815671	    1.422293	    1.125048	    1.221180	    0.323033	    0.250095	    0.231785	    1.400015	    1.137560	    1.221180	    1.630121	    1.166552	    1.075303	    1.754025	    1.320058	    1.225452
    15.070	0	0	    0	    0.783246	    0.710613	    0.698405	    1.879149	    1.360647	    1.816281	    1.426566	    1.135119	    1.220264	    0.324559	    0.250706	    0.233005	    1.405203	    1.143359	    1.223926	    1.633173	    1.159838	    1.087205	    1.765011	    1.324331	    1.241321
    15.125	0	0	    0	    0.786908	    0.715801	    0.699321	    1.881895	    1.358816	    1.828489	    1.439994	    1.140307	    1.218738	    0.326390	    0.252232	    0.233616	    1.408560	    1.144579	    1.233997	    1.643244	    1.176318	    1.097276	    1.775387	    1.336233	    1.249866
    15.180	0	0	    0	    0.785077	    0.714885	    0.704204	    1.894408	    1.367056	    1.825437	    1.432059	    1.138476	    1.230030	    0.327001	    0.252537	    0.235142	    1.408560	    1.150072	    1.232471	    1.650263	    1.191577	    1.107042	    1.782101	    1.338674	    1.247120
    15.235	0	0	    0	    0.777752	    0.704204	    0.694438	    1.886473	    1.354849	    1.816281	    1.412833	    1.120470	    1.201953	    0.323949	    0.250095	    0.231785	    1.399405	    1.142443	    1.221485	    1.635309	    1.171740	    1.080797	    1.758907	    1.315785	    1.227588
    15.290	0	0	    0	    0.773480	    0.700847	    0.688640	    1.858091	    1.343252	    1.798276	    1.408255	    1.111925	    1.193408	    0.319982	    0.248264	    0.231174	    1.379873	    1.126879	    1.208667	    1.603876	    1.150072	    1.059129	    1.734798	    1.299916	    1.212634
    15.345	0	0	    0	    0.774395	    0.701152	    0.686503	    1.861143	    1.339590	    1.788205	    1.401236	    1.110704	    1.182422	    0.320592	    0.246738	    0.229343	    1.378347	    1.124743	    1.203174	    1.598077	    1.148852	    1.056687	    1.729610	    1.291676	    1.207141
    15.400	0	0	    0	    0.769207	    0.702678	    0.686198	    1.859617	    1.331044	    1.787289	    1.385977	    1.109483	    1.178149	    0.319677	    0.247044	    0.229343	    1.375601	    1.114366	    1.198596	    1.587396	    1.143359	    1.068589	    1.721065	    1.294423	    1.204700
    15.455	0	0	    0	    0.769512	    0.700542	    0.691386	    1.860533	    1.340810	    1.790036	    1.399100	    1.103075	    1.197375	    0.318151	    0.246128	    0.229648	    1.378653	    1.121691	    1.201648	    1.577630	    1.150378	    1.066758	    1.723507	    1.295338	    1.215076
    15.510	0	0	    0	    0.771344	    0.699321	    0.689555	    1.858396	    1.340810	    1.793393	    1.394827	    1.099413	    1.183642	    0.319371	    0.244602	    0.230259	    1.382925	    1.124743	    1.205921	    1.592584	    1.145800	    1.066758	    1.731746	    1.299916	    1.213855
    15.565	0	0	    0	    0.778058	    0.704509	    0.692607	    1.862364	    1.342947	    1.791867	    1.397574	    1.105516	    1.200122	    0.321813	    0.247044	    0.228428	    1.381094	    1.123522	    1.203784	    1.618219	    1.148547	    1.065843	    1.734188	    1.306935	    1.213245
    15.620	0	0	    0	    0.777447	    0.704814	    0.697185	    1.869993	    1.345083	    1.795224	    1.407034	    1.120165	    1.208057	    0.322118	    0.249485	    0.229953	    1.387808	    1.128099	    1.208362	    1.607233	    1.161975	    1.075608	    1.739986	    1.309377	    1.222400
    15.675	0	0	    0	    0.781109	    0.708782	    0.697490	    1.875486	    1.348440	    1.809262	    1.407950	    1.121691	    1.205005	    0.323033	    0.249180	    0.231174	    1.393301	    1.132677	    1.217212	    1.615473	    1.166552	    1.083543	    1.749447	    1.314565	    1.228199
    15.730	0	0	    0	    0.780804	    0.712749	    0.697185	    1.873960	    1.354238	    1.822690	    1.431754	    1.130541	    1.219959	    0.323033	    0.251316	    0.232395	    1.394522	    1.138170	    1.226062	    1.634394	    1.175402	    1.078965	    1.759518	    1.325551	    1.233692
    15.785	0	0	    0	    0.782025	    0.713054	    0.704204	    1.883116	    1.356985	    1.822385	    1.423514	    1.143664	    1.229114	    0.326390	    0.251621	    0.233310	    1.403677	    1.140307	    1.227893	    1.647211	    1.186389	    1.088426	    1.775998	    1.333791	    1.244984
    15.840	0	0	    0	    0.784771	    0.715801	    0.707256	    1.888609	    1.363394	    1.829709	    1.431449	    1.145800	    1.229114	    0.327001	    0.253147	    0.235447	    1.409781	    1.147326	    1.229419	    1.651789	    1.196155	    1.109178	    1.781491	    1.341726	    1.259937
    15.895	0	0	    0	    0.789044	    0.719463	    0.710613	    1.890745	    1.372549	    1.839170	    1.447318	    1.144579	    1.242542	    0.327306	    0.253147	    0.236973	    1.408865	    1.153429	    1.238880	    1.647211	    1.194629	    1.114977	    1.787289	    1.354238	    1.270924
    15.950	0	0	    0	    0.785992	    0.715801	    0.701457	    1.896239	    1.370413	    1.839170	    1.439384	    1.148241	    1.219654	    0.327306	    0.252537	    0.235447	    1.407950	    1.155566	    1.238270	    1.647211	    1.189136	    1.111620	    1.789120	    1.338369	    1.254749
    16.005	0	0	    0	    0.775616	    0.707866	    0.696880	    1.875181	    1.356680	    1.817807	    1.415885	    1.119860	    1.203174	    0.324865	    0.249790	    0.233005	    1.396658	    1.132982	    1.215381	    1.628595	    1.173877	    1.090867	    1.758297	    1.322499	    1.235218
    16.060	0	0	    0	    0.775921	    0.705119	    0.697490	    1.869383	    1.340200	    1.803159	    1.403983	    1.119249	    1.201648	    0.323033	    0.250095	    0.231479	    1.390249	    1.125963	    1.208667	    1.614557	    1.169299	    1.074693	    1.750973	    1.321584	    1.229725
    16.115	0	0	    0	    0.776837	    0.703593	    0.696574	    1.861448	    1.348745	    1.805600	    1.419852	    1.117723	    1.206531	    0.321508	    0.250706	    0.232700	    1.385367	    1.129015	    1.207446	    1.610590	    1.168383	    1.082933	    1.741207	    1.313649	    1.228809
    16.170	0	0	    0	    0.778668	    0.707561	    0.691997	    1.855344	    1.344472	    1.803159	    1.417411	    1.117418	    1.209277	    0.321813	    0.250095	    0.232090	    1.380789	    1.129015	    1.210803	    1.610590	    1.146715	    1.081407	    1.753719	    1.310597	    1.231556
    16.225	0	0	    0	    0.775311	    0.708171	    0.696880	    1.866941	    1.344472	    1.801022	    1.418021	    1.127794	    1.200427	    0.323644	    0.250706	    0.231479	    1.387808	    1.128405	    1.207141	    1.619440	    1.172961	    1.075914	    1.757076	    1.320974	    1.231556
    16.280	0	0	    0	    0.774395	    0.706645	    0.699016	    1.865110	    1.347524	    1.801022	    1.407034	    1.127489	    1.203479	    0.323033	    0.250095	    0.232700	    1.387503	    1.131456	    1.207446	    1.622492	    1.172656	    1.098802	    1.755245	    1.325551	    1.235523
    16.335	0	0	    0	    0.780499	    0.707561	    0.699321	    1.866026	    1.353323	    1.817807	    1.421073	    1.126879	    1.213550	    0.324559	    0.249790	    0.234836	    1.393606	    1.137865	    1.222095	    1.630732	    1.174487	    1.099718	    1.763180	    1.324331	    1.248646
    16.390	0	0	    0	    0.785077	    0.713664	    0.702373	    1.872740	    1.356374	    1.822995	    1.430228	    1.139391	    1.230640	    0.326390	    0.251926	    0.233310	    1.397879	    1.139391	    1.223926	    1.639582	    1.181506	    1.097887	    1.773251	    1.336843	    1.245289
    16.445	0	0	    0	    0.787518	    0.715801	    0.707866	    1.885252	    1.356985	    1.826047	    1.436637	    1.134813	    1.229725	    0.326390	    0.254368	    0.234226	    1.406424	    1.145495	    1.230640	    1.642329	    1.195544	    1.109789	    1.777523	    1.350576	    1.253223
    16.500	0	0	    0	    0.785992	    0.716106	    0.707866	    1.887694	    1.366140	    1.831540	    1.439994	    1.140917	    1.236744	    0.326390	    0.256199	    0.237278	    1.411002	    1.147936	    1.231861	    1.651484	    1.197986	    1.119554	    1.789731	    1.353323	    1.267262
    16.555	0	0	    0	    0.787213	    0.719463	    0.709392	    1.894713	    1.371633	    1.841611	    1.446098	    1.150988	    1.237659	    0.328527	    0.254673	    0.239109	    1.406729	    1.158312	    1.241627	    1.661555	    1.195850	    1.121080	    1.791562	    1.357900	    1.275196
    16.610	0	0	    0	    0.791485	    0.725261	    0.713664	    1.898375	    1.374685	    1.844358	    1.445182	    1.164721	    1.243763	    0.330053	    0.255589	    0.238499	    1.419852	    1.158618	    1.251392	    1.660945	    1.212329	    1.126574	    1.810178	    1.365225	    1.284962
    16.665	0	0	    0	    0.788128	    0.721294	    0.712444	    1.896544	    1.377127	    1.841917	    1.443656	    1.144884	    1.237659	    0.330663	    0.258030	    0.238499	    1.418021	    1.161669	    1.249256	    1.670405	    1.205921	    1.132677	    1.808347	    1.365530	    1.273060
    16.720	0	0	    0	    0.781109	    0.711223	    0.699626	    1.884642	    1.365225	    1.827268	    1.425650	    1.134203	    1.215686	    0.325780	    0.254673	    0.236973	    1.402152	    1.142138	    1.230640	    1.638972	    1.193713	    1.103685	    1.778439	    1.344167	    1.256886
    16.775	0	0	    0	    0.781720	    0.708171	    0.700542	    1.871824	    1.356680	    1.819638	    1.423209	    1.130236	    1.206836	    0.323033	    0.252232	    0.234836	    1.392081	    1.137560	    1.223926	    1.628595	    1.180896	    1.105211	    1.762264	    1.338064	    1.252003
    16.830	0	0	    0	    0.779583	    0.710002	    0.698405	    1.868467	    1.348745	    1.814755	    1.425956	    1.130236	    1.219043	    0.324865	    0.251316	    0.233005	    1.394827	    1.131151	    1.223926	    1.630121	    1.184558	    1.098192	    1.766232	    1.335012	    1.249561
    16.885	0	0	    0	    0.780804	    0.712139	    0.701457	    1.872740	    1.350881	    1.813535	    1.415579	    1.127184	    1.222095	    0.327001	    0.252537	    0.236362	    1.395743	    1.132372	    1.216297	    1.644160	    1.185779	    1.099413	    1.768673	    1.337758	    1.249256
    16.940	0	0	    0	    0.779583	    0.710307	    0.701457	    1.872129	    1.356069	    1.814450	    1.421073	    1.127794	    1.219959	    0.323644	    0.254368	    0.236362	    1.395132	    1.139391	    1.218433	    1.625849	    1.181811	    1.103990	    1.768673	    1.340200	    1.255970
    16.995	0	0	    0	    0.778058	    0.711223	    0.702373	    1.867857	    1.356680	    1.814755	    1.421683	    1.136034	    1.219348	    0.323949	    0.252232	    0.235752	    1.386282	    1.140002	    1.223316	    1.634089	    1.179065	    1.111315	    1.767758	    1.340200	    1.254444
    17.050	0	0	    0	    0.782025	    0.715801	    0.708171	    1.871214	    1.353017	    1.815671	    1.432059	    1.133898	    1.220569	    0.325780	    0.254063	    0.236057	    1.392996	    1.140002	    1.225757	    1.641108	    1.187304	    1.109483	    1.779355	    1.345083	    1.266041
    17.105	0	0	    0	    0.785382	    0.718853	    0.709392	    1.874571	    1.365530	    1.828489	    1.436332	    1.138476	    1.232471	    0.327001	    0.256504	    0.236667	    1.397879	    1.149462	    1.233997	    1.647517	    1.200427	    1.113451	    1.786069	    1.351797	    1.262379
    17.160	0	0	    0	    0.788128	    0.719158	    0.711833	    1.884947	    1.369802	    1.838560	    1.445792	    1.149157	    1.242542	    0.326390	    0.256199	    0.239109	    1.404898	    1.154040	    1.243153	    1.651179	    1.205921	    1.115892	    1.783322	    1.360952	    1.273365
    17.215	0	0	    0	    0.790265	    0.723735	    0.712444	    1.890135	    1.368582	    1.849546	    1.454643	    1.150378	    1.248341	    0.327001	    0.255283	    0.239109	    1.410697	    1.157397	    1.247120	    1.670405	    1.197375	    1.120165	    1.801328	    1.364614	    1.277943
    17.270	0	0	    0	    0.791180	    0.726482	    0.717632	    1.900206	    1.369497	    1.841611	    1.437858	    1.164416	    1.248951	    0.330663	    0.257420	    0.240024	    1.414664	    1.154040	    1.244373	    1.663386	    1.213550	    1.133593	    1.809873	    1.374075	    1.278859
    17.325	0	0	    0	    0.789960	    0.728008	    0.720989	    1.905394	    1.384451	    1.850462	    1.444572	    1.172656	    1.261158	    0.331273	    0.257725	    0.242771	    1.422904	    1.168688	    1.253529	    1.678645	    1.228199	    1.140002	    1.816892	    1.380484	    1.294728
    17.380	0	0	    0	    0.790265	    0.724346	    0.710307	    1.903563	    1.385061	    1.853208	    1.447623	    1.148852	    1.242237	    0.330053	    0.257420	    0.241245	    1.421378	    1.167468	    1.251087	    1.655451	    1.213550	    1.133898	    1.799191	    1.362478	    1.279164
    17.435	0	0	    0	    0.783551	    0.718242	    0.709087	    1.881895	    1.370413	    1.833371	    1.434501	    1.145800	    1.234302	    0.327306	    0.255894	    0.238499	    1.399710	    1.149462	    1.233692	    1.645075	    1.192493	    1.108568	    1.775692	    1.342641	    1.257801
    17.490	0	0	    0	    0.780499	    0.716411	    0.706340	    1.873655	    1.361257	    1.825132	    1.440604	    1.138170	    1.231861	    0.327916	    0.254673	    0.236057	    1.395438	    1.146105	    1.230335	    1.635004	    1.203784	    1.102770	    1.771115	    1.339895	    1.249866
    17.545	0	0	    0	    0.783551	    0.716411	    0.707866	    1.877928	    1.356985	    1.821469	    1.431449	    1.151598	    1.233997	    0.326085	    0.254978	    0.238499	    1.394522	    1.140307	    1.223621	    1.629511	    1.197070	    1.103075	    1.765011	    1.339895	    1.256580
    17.600	0	0	    0	    0.781415	    0.714580	    0.705425	    1.876402	    1.365225	    1.832761	    1.434806	    1.142443	    1.236439	    0.326390	    0.255894	    0.236362	    1.396963	    1.148241	    1.232166	    1.637751	    1.198596	    1.110094	    1.763180	    1.345388	    1.256275
    17.655	0	0	    0	    0.783856	    0.717021	    0.708171	    1.880369	    1.362173	    1.832456	    1.439994	    1.143359	    1.230335	    0.327001	    0.254368	    0.237278	    1.394522	    1.145495	    1.236439	    1.637446	    1.197986	    1.115587	    1.765316	    1.340200	    1.257191
    17.710	0	0	    0	    0.782330	    0.720378	    0.713054	    1.884337	    1.362173	    1.825437	    1.436027	    1.145495	    1.246204	    0.327611	    0.257420	    0.238193	    1.402152	    1.142443	    1.232471	    1.638666	    1.208057	    1.107958	    1.771725	    1.347829	    1.255970
    17.765	0	0	    0	    0.785992	    0.719463	    0.712139	    1.879759	    1.365225	    1.829709	    1.442741	    1.145495	    1.253223	    0.327306	    0.255589	    0.237888	    1.401541	    1.148241	    1.234913	    1.649348	    1.202869	    1.131762	    1.786069	    1.350576	    1.268788
    17.820	0	0	    0	    0.789960	    0.721599	    0.713359	    1.883726	    1.374990	    1.839170	    1.442741	    1.156481	    1.254749	    0.327306	    0.255894	    0.240330	    1.409781	    1.158923	    1.245899	    1.659724	    1.208362	    1.129931	    1.787594	    1.362173	    1.277638
    17.875	0	0	    0	    0.791180	    0.725872	    0.713970	    1.886473	    1.376822	    1.851682	    1.445182	    1.169909	    1.255360	    0.329442	    0.257420	    0.240330	    1.411612	    1.158618	    1.251087	    1.669184	    1.223011	    1.140002	    1.799191	    1.363088	    1.283131
    17.930	0	0	    0	    0.789960	    0.728313	    0.720684	    1.896849	    1.378347	    1.852598	    1.465934	    1.170214	    1.273976	    0.330358	    0.259556	    0.241855	    1.419852	    1.162585	    1.254139	    1.676204	    1.229725	    1.148547	    1.809567	    1.374075	    1.291066
    17.985	0	0	    0	    0.795148	    0.730755	    0.723735	    1.895933	    1.382010	    1.861143	    1.469291	    1.172961	    1.280995	    0.330358	    0.260166	    0.242771	    1.414664	    1.166857	    1.254749	    1.677119	    1.240406	    1.155871	    1.810178	    1.383841	    1.300221
    18.040	0	0	    0	    0.795453	    0.728313	    0.719768	    1.906310	    1.383536	    1.874876	    1.454948	    1.172961	    1.263600	    0.331884	    0.260777	    0.242771	    1.426261	    1.169299	    1.266651	    1.678950	    1.238270	    1.164416	    1.813535	    1.389029	    1.298390
    18.095	0	0	    0	    0.784161	    0.719463	    0.713664	    1.898985	    1.378653	    1.852293	    1.439078	    1.159838	    1.253834	    0.328222	    0.256504	    0.239719	    1.409476	    1.159228	    1.248646	    1.662776	    1.210193	    1.133288	    1.797360	    1.357595	    1.268788
    18.150	0	0	    0	    0.783246	    0.719158	    0.707866	    1.881590	    1.364309	    1.834592	    1.442435	    1.160449	    1.243763	    0.327611	    0.255894	    0.238499	    1.397574	    1.147631	    1.232166	    1.649958	    1.207141	    1.125048	    1.779049	    1.348745	    1.259632
    18.205	0	0	    0	    0.779889	    0.713664	    0.708476	    1.881285	    1.365225	    1.830320	    1.434501	    1.136034	    1.239185	    0.326390	    0.255283	    0.238193	    1.391775	    1.147936	    1.235218	    1.652094	    1.200732	    1.119860	    1.771420	    1.344167	    1.263905
    18.260	0	0	    0	    0.781415	    0.717327	    0.707561	    1.868162	    1.363699	    1.830930	    1.445792	    1.157397	    1.246509	    0.325170	    0.254978	    0.238499	    1.386587	    1.143969	    1.230640	    1.635309	    1.210193	    1.117418	    1.772030	    1.337148	    1.254749
    18.315	0	0	    0	    0.784466	    0.717327	    0.707866	    1.879149	    1.363394	    1.828489	    1.446098	    1.144884	    1.242237	    0.327001	    0.256504	    0.236973	    1.397574	    1.147021	    1.230640	    1.650568	    1.211719	    1.130236	    1.769589	    1.346609	    1.258717
    18.370	0	0	    0	    0.782330	    0.718242	    0.712139	    1.879454	    1.366751	    1.829404	    1.444877	    1.156176	    1.239796	    0.325170	    0.254978	    0.239109	    1.393912	    1.146715	    1.229725	    1.648737	    1.215076	    1.128710	    1.763790	    1.351492	    1.257801
    18.425	0	0	    0	    0.784161	    0.717327	    0.710613	    1.871519	    1.363699	    1.835203	    1.435416	    1.159533	    1.237964	    0.327611	    0.256504	    0.240024	    1.393912	    1.147631	    1.238575	    1.651789	    1.210803	    1.125353	    1.774777	    1.348440	    1.263905
    18.480	0	0	    0	    0.787213	    0.721904	    0.711223	    1.881285	    1.362783	    1.839170	    1.451591	    1.155261	    1.241321	    0.325780	    0.255589	    0.240024	    1.403983	    1.149462	    1.244678	    1.650568	    1.213245	    1.131456	    1.772946	    1.360342	    1.276112
    18.535	0	0	    0	    0.787518	    0.722210	    0.716106	    1.888304	    1.371023	    1.837034	    1.461662	    1.157092	    1.268788	    0.328832	    0.256809	    0.241245	    1.410697	    1.159533	    1.250477	    1.664302	    1.214160	    1.144884	    1.788205	    1.361257	    1.278859
    18.590	0	0	    0	    0.784771	    0.726787	    0.717021	    1.893492	    1.379568	    1.849851	    1.462882	    1.172045	    1.268482	    0.330053	    0.259251	    0.240940	    1.412528	    1.164721	    1.252918	    1.666743	    1.229114	    1.137865	    1.797971	    1.373770	    1.284962
    18.645	0	0	    0	    0.793011	    0.726787	    0.718853	    1.888914	    1.381094	    1.857786	    1.462272	    1.172961	    1.266957	    0.329442	    0.259251	    0.241855	    1.411002	    1.167773	    1.263294	    1.682002	    1.231556	    1.149462	    1.803464	    1.371939	    1.292287
    18.700	0	0	    0	    0.795758	    0.730755	    0.718242	    1.900206	    1.382010	    1.863584	    1.469596	    1.174792	    1.253223	    0.330358	    0.260472	    0.243076	    1.417716	    1.167773	    1.267262	    1.681086	    1.236744	    1.158007	    1.806210	    1.381094	    1.295338
    18.755	0	0	    0	    0.782330	    0.717632	    0.709697	    1.891966	    1.373465	    1.841306	    1.444572	    1.152819	    1.230030	    0.326696	    0.258335	    0.239719	    1.410697	    1.160754	    1.248951	    1.658808	    1.221485	    1.131456	    1.779049	    1.352102	    1.261158
    18.810	0	0	    0	    0.776532	    0.712139	    0.703899	    1.872740	    1.359121	    1.817502	    1.427481	    1.135424	    1.233997	    0.324254	    0.254978	    0.237278	    1.393301	    1.145190	    1.231556	    1.623713	    1.188220	    1.115892	    1.757992	    1.341115	    1.250477
    18.865	0	0	    0	    0.775006	    0.710307	    0.699931	    1.867247	    1.354543	    1.817807	    1.422599	    1.130541	    1.220874	    0.323644	    0.253452	    0.236362	    1.385977	    1.141527	    1.230640	    1.612421	    1.188830	    1.110094	    1.751888	    1.325856	    1.247120
    18.920	0	0	    0	    0.777752	    0.710307	    0.699626	    1.857786	    1.345388	    1.809567	    1.424125	    1.131456	    1.223926	    0.322118	    0.252232	    0.235142	    1.377127	    1.139696	    1.225147	    1.634394	    1.193103	    1.097887	    1.743343	    1.322499	    1.234607
    18.975	0	0	    0	    0.777447	    0.711528	    0.704814	    1.868467	    1.348745	    1.812924	    1.430533	    1.141222	    1.233082	    0.323644	    0.252842	    0.237278	    1.382925	    1.140917	    1.226062	    1.633173	    1.190356	    1.107347	    1.747921	    1.331655	    1.239796
    19.030	0	0	    0	    0.773785	    0.710002	    0.702068	    1.869383	    1.359121	    1.814145	    1.418936	    1.132677	    1.233387	    0.322118	    0.252232	    0.236057	    1.387808	    1.143359	    1.232166	    1.609369	    1.184253	    1.115282	    1.739986	    1.319142	    1.239185
    19.085	0	0	    0	    0.779889	    0.713054	    0.703899	    1.860227	    1.351186	    1.811704	    1.435416	    1.133593	    1.230030	    0.323033	    0.254673	    0.236667	    1.386893	    1.148241	    1.229419	    1.627070	    1.174182	    1.108263	    1.747616	    1.323110	    1.243458
    19.140	0	0	    0	    0.778668	    0.714885	    0.703288	    1.874266	    1.349355	    1.822385	    1.433585	    1.146105	    1.235523	    0.323644	    0.255283	    0.238499	    1.395132	    1.148241	    1.241932	    1.630121	    1.195850	    1.104295	    1.751278	    1.334096	    1.245289
    19.195	0	0	    0	    0.781415	    0.717021	    0.707866	    1.875486	    1.360647	    1.823911	    1.435111	    1.148547	    1.235218	    0.326085	    0.255894	    0.237278	    1.404593	    1.155871	    1.244373	    1.642939	    1.202258	    1.107347	    1.755245	    1.341115	    1.247120
    19.250	0	0	    0	    0.782025	    0.720073	    0.709697	    1.884337	    1.364920	    1.828489	    1.440604	    1.157397	    1.246815	    0.325170	    0.256504	    0.238804	    1.405509	    1.161364	    1.248341	    1.651789	    1.202564	    1.124743	    1.770199	    1.347219	    1.257191
    19.305	0	0	    0	    0.784771	    0.719463	    0.709697	    1.881285	    1.370108	    1.833371	    1.454032	    1.156176	    1.242542	    0.327001	    0.255589	    0.239719	    1.408865	    1.165637	    1.250782	    1.652705	    1.214160	    1.135119	    1.775998	    1.346914	    1.269398
    19.360	0	0	    0	    0.789044	    0.724346	    0.716411	    1.889830	    1.371023	    1.843748	    1.441825	    1.168383	    1.258717	    0.329442	    0.258640	    0.240940	    1.415579	    1.167163	    1.262074	    1.663691	    1.223621	    1.135729	    1.789425	    1.359121	    1.276417
    19.415	0	0	    0	    0.785687	    0.722515	    0.710002	    1.892882	    1.373770	    1.844663	    1.441520	    1.158923	    1.240406	    0.327611	    0.258030	    0.239719	    1.419547	    1.166857	    1.258106	    1.674372	    1.210498	    1.127184	    1.780270	    1.355459	    1.263600
    19.470	0	0	    0	    0.776226	    0.707866	    0.697795	    1.877317	    1.356985	    1.814145	    1.429313	    1.130236	    1.223926	    0.325170	    0.253452	    0.235447	    1.400626	    1.152514	    1.233692	    1.638056	    1.190356	    1.105516	    1.749752	    1.325856	    1.236744
    19.525	0	0	    0	    0.774701	    0.706035	    0.695659	    1.859007	    1.349355	    1.806516	    1.418326	    1.125963	    1.209888	    0.321202	    0.253452	    0.236057	    1.386893	    1.146410	    1.230945	    1.619745	    1.171740	    1.090867	    1.741817	    1.311513	    1.227893
    19.580	0	0	    0	    0.772869	    0.703899	    0.694438	    1.855344	    1.340505	    1.798276	    1.396963	    1.120775	    1.212940	    0.319066	    0.251011	    0.233310	    1.385367	    1.135729	    1.224842	    1.616999	    1.154040	    1.088731	    1.732662	    1.308766	    1.222095
    19.635	0	0	    0	    0.767681	    0.703593	    0.695354	    1.842832	    1.333486	    1.788815	    1.398489	    1.122911	    1.213550	    0.321508	    0.252232	    0.234531	    1.374990	    1.132067	    1.217212	    1.600519	    1.168383	    1.090562	    1.723201	    1.308461	    1.219654
    19.690	0	0	    0	    0.773175	    0.703899	    0.695659	    1.847105	    1.342947	    1.797665	    1.407645	    1.128099	    1.207752	    0.319677	    0.252537	    0.233616	    1.383536	    1.136950	    1.223926	    1.604791	    1.173571	    1.087510	    1.726864	    1.304799	    1.220569
    19.745	0	0	    0	    0.774701	    0.703593	    0.695659	    1.851682	    1.344472	    1.800412	    1.411307	    1.115587	    1.207752	    0.322118	    0.250706	    0.233921	    1.388113	    1.141222	    1.226368	    1.616083	    1.165332	    1.090867	    1.728695	    1.302663	    1.216602
    19.800	0	0	    0	    0.771954	    0.702373	    0.694743	    1.859922	    1.342947	    1.801633	    1.414054	    1.124437	    1.208972	    0.320592	    0.252537	    0.235447	    1.388418	    1.145190	    1.230640	    1.624323	    1.171740	    1.093004	    1.733577	    1.308461	    1.216907
    19.855	0	0	    0	    0.776226	    0.708782	    0.697795	    1.862364	    1.348135	    1.796139	    1.421683	    1.126879	    1.224231	    0.323339	    0.253452	    0.235447	    1.399405	    1.146105	    1.232166	    1.632258	    1.179675	    1.099107	    1.732967	    1.315480	    1.229114
    19.910	0	0	    0	    0.777447	    0.710002	    0.700542	    1.864805	    1.349355	    1.810178	    1.423819	    1.132372	    1.217517	    0.324559	    0.255283	    0.238193	    1.402762	    1.148852	    1.238575	    1.627985	    1.193103	    1.114672	    1.741207	    1.319142	    1.233387
    19.965	0	0	    0	    0.779278	    0.711528	    0.699016	    1.869383	    1.355764	    1.814145	    1.442130	    1.139696	    1.210193	    0.324865	    0.255589	    0.238193	    1.403372	    1.156786	    1.243763	    1.649958	    1.188525	    1.110094	    1.750973	    1.321279	    1.232776
    20.020	0	0	    0	    0.780499	    0.714580	    0.703593	    1.873960	    1.357900	    1.814145	    1.437552	    1.144884	    1.237354	    0.326696	    0.254063	    0.239109	    1.408865	    1.162585	    1.244678	    1.651789	    1.191882	    1.107042	    1.746395	    1.331960	    1.244678
    20.075	0	0	    0	    0.783856	    0.716716	    0.703288	    1.872740	    1.362173	    1.819333	    1.447623	    1.147631	    1.241932	    0.324559	    0.255894	    0.238804	    1.413138	    1.164416	    1.243153	    1.660334	    1.201648	    1.117723	    1.765927	    1.342947	    1.253529
    20.130	0	0	    0	    0.784161	    0.715801	    0.702373	    1.882811	    1.364614	    1.823301	    1.454337	    1.146410	    1.224537	    0.327611	    0.256504	    0.239414	    1.419242	    1.166247	    1.252918	    1.655146	    1.212024	    1.122301	    1.774777	    1.337758	    1.249866
    20.185	0	0	    0	    0.778058	    0.705730	    0.694133	    1.867857	    1.352712	    1.809262	    1.429313	    1.118334	    1.197681	    0.324865	    0.253147	    0.234836	    1.401236	    1.155566	    1.235218	    1.627070	    1.172656	    1.095445	    1.741207	    1.316701	    1.229419
    20.240	0	0	    0	    0.772869	    0.701152	    0.688640	    1.851987	    1.336538	    1.789425	    1.415274	    1.116503	    1.197681	    0.322728	    0.253452	    0.234531	    1.388724	    1.140917	    1.222400	    1.619135	    1.158923	    1.084154	    1.736019	    1.301747	    1.217823
    20.295	0	0	    0	    0.768292	    0.698711	    0.688640	    1.848631	    1.331350	    1.785153	    1.404288	    1.106737	    1.193103	    0.320897	    0.251011	    0.233005	    1.391775	    1.135424	    1.218128	    1.613947	    1.164111	    1.093309	    1.719234	    1.294728	    1.206836
    20.350	0	0	    0	    0.771344	    0.699626	    0.687114	    1.850156	    1.333181	    1.783322	    1.407950	    1.108873	    1.187610	    0.320592	    0.250095	    0.233616	    1.392081	    1.130846	    1.217517	    1.611505	    1.166857	    1.073167	    1.717098	    1.295033	    1.205005
    20.405	0	0	    0	    0.771038	    0.700237	    0.689555	    1.847105	    1.333486	    1.789731	    1.408865	    1.120775	    1.205310	    0.322118	    0.251011	    0.233310	    1.385367	    1.136950	    1.218738	    1.613336	    1.162280	    1.078965	    1.718013	    1.291371	    1.207446
    20.460	0	0	    0	    0.768902	    0.702373	    0.691997	    1.850462	    1.336233	    1.781491	    1.400626	    1.116197	    1.200122	    0.321202	    0.251316	    0.232700	    1.388724	    1.133898	    1.219043	    1.627070	    1.165332	    1.085679	    1.725643	    1.293202	    1.207141
    20.515	0	0	    0	    0.773480	    0.702068	    0.688334	    1.854734	    1.339895	    1.789120	    1.411917	    1.119554	    1.197070	    0.323339	    0.251621	    0.234836	    1.398184	    1.143359	    1.224537	    1.624933	    1.171130	    1.081407	    1.725032	    1.297475	    1.208362
    20.570	0	0	    0	    0.777142	    0.701457	    0.695048	    1.858701	    1.346914	    1.798276	    1.422904	    1.116503	    1.208362	    0.324254	    0.253147	    0.236362	    1.402152	    1.146105	    1.229725	    1.631342	    1.170520	    1.096056	    1.723812	    1.306325	    1.220569
    20.625	0	0	    0	    0.779889	    0.706645	    0.694743	    1.851072	    1.338979	    1.801633	    1.433585	    1.138781	    1.222400	    0.327001	    0.255283	    0.235142	    1.402152	    1.147936	    1.239490	    1.642634	    1.188220	    1.095140	    1.740902	    1.312123	    1.220569
    20.680	0	0	    0	    0.778973	    0.709697	    0.698711	    1.867552	    1.351186	    1.801022	    1.435416	    1.125048	    1.231250	    0.326696	    0.256199	    0.237583	    1.408255	    1.155261	    1.239490	    1.659113	    1.193103	    1.106126	    1.754025	    1.321584	    1.232166
    20.735	0	0	    0	    0.779583	    0.707866	    0.695964	    1.871214	    1.354543	    1.813230	    1.445182	    1.134203	    1.223011	    0.326390	    0.254978	    0.238193	    1.416495	    1.156786	    1.243153	    1.667353	    1.193103	    1.111620	    1.757687	    1.322194	    1.236744
    20.790	0	0	    0	    0.786297	    0.712139	    0.701152	    1.872740	    1.353323	    1.817197	    1.443656	    1.127489	    1.230945	    0.327611	    0.256504	    0.238193	    1.414054	    1.161975	    1.245289	    1.654536	    1.197070	    1.127184	    1.759823	    1.335317	    1.243153
    20.845	0	0	    0	    0.784466	    0.714885	    0.701762	    1.877012	    1.358206	    1.813230	    1.461662	    1.155871	    1.237049	    0.328832	    0.256809	    0.238804	    1.420768	    1.167163	    1.249866	    1.680171	    1.211414	    1.111620	    1.781186	    1.342641	    1.255970
    20.900	0	0	    0	    0.782330	    0.711223	    0.699626	    1.877012	    1.359121	    1.822080	    1.444266	    1.140002	    1.221790	    0.328527	    0.257725	    0.237278	    1.424430	    1.165637	    1.250172	    1.677424	    1.194934	    1.115892	    1.780270	    1.340200	    1.240711
    20.955	0	0	    0	    0.772869	    0.701762	    0.694743	    1.866026	    1.348135	    1.798276	    1.435111	    1.118944	    1.202869	    0.325780	    0.251926	    0.234836	    1.412833	    1.152819	    1.233082	    1.642329	    1.181201	    1.088426	    1.747005	    1.315785	    1.226062
    21.010	0	0	    0	    0.773480	    0.699931	    0.687724	    1.846799	    1.334096	    1.790646	    1.418326	    1.112840	    1.186694	    0.323644	    0.253452	    0.234226	    1.393912	    1.139391	    1.225757	    1.630426	    1.165637	    1.085069	    1.739681	    1.306935	    1.216602
    21.065	0	0	    0	    0.769207	    0.695659	    0.684672	    1.854124	    1.330434	    1.777523	    1.407340	    1.108873	    1.183948	    0.323033	    0.251011	    0.232395	    1.398489	    1.134508	    1.216907	    1.631342	    1.174487	    1.079881	    1.730526	    1.301442	    1.209583
    21.120	0	0	    0	    0.770428	    0.697795	    0.689250	    1.851682	    1.331044	    1.779660	    1.409171	    1.110704	    1.195239	    0.323949	    0.251926	    0.234226	    1.397269	    1.136339	    1.214466	    1.639277	    1.159533	    1.083848	    1.731136	    1.291371	    1.211719
    21.175	0	0	    0	    0.773480	    0.697185	    0.685283	    1.854429	    1.329824	    1.780575	    1.417411	    1.111315	    1.195850	    0.324254	    0.250706	    0.235142	    1.398184	    1.139696	    1.214160	    1.628290	    1.162280	    1.083543	    1.732967	    1.297475	    1.210803
    21.230	0	0	    0	    0.771954	    0.699321	    0.687724	    1.846494	    1.336538	    1.783627	    1.409781	    1.110399	    1.184558	    0.326085	    0.252842	    0.236362	    1.398489	    1.138170	    1.220874	    1.656367	    1.174487	    1.090257	    1.739376	    1.300526	    1.211414
    21.285	0	0	    0	    0.770733	    0.703593	    0.689860	    1.851682	    1.336233	    1.782406	    1.412528	    1.119860	    1.199817	    0.327916	    0.255589	    0.236057	    1.400931	    1.143053	    1.219654	    1.657893	    1.189441	    1.089342	    1.742428	    1.306325	    1.214771
    21.340	0	0	    0	    0.776837	    0.702678	    0.692912	    1.865415	    1.343862	    1.787594	    1.436332	    1.122301	    1.220264	    0.328832	    0.255283	    0.236973	    1.411307	    1.147936	    1.226978	    1.661555	    1.188830	    1.105821	    1.747616	    1.314260	    1.224537
    21.395	0	0	    0	    0.780499	    0.704509	    0.693828	    1.865415	    1.345388	    1.800412	    1.443656	    1.128405	    1.214466	    0.328527	    0.255894	    0.239414	    1.412833	    1.154040	    1.235218	    1.660639	    1.187610	    1.104601	    1.752804	    1.318837	    1.234302
    21.450	0	0	    0	    0.778668	    0.707866	    0.695659	    1.862364	    1.345083	    1.804685	    1.440299	    1.140002	    1.224537	    0.330053	    0.255894	    0.239109	    1.414664	    1.151293	    1.240406	    1.678645	    1.202258	    1.108263	    1.757687	    1.324331	    1.237964
    21.505	0	0	    0	    0.780804	    0.708476	    0.698100	    1.877317	    1.344167	    1.809262	    1.446708	    1.145190	    1.220874	    0.330968	    0.256809	    0.236973	    1.420157	    1.152514	    1.239185	    1.694514	    1.200427	    1.112535	    1.773861	    1.326772	    1.244373
    21.560	0	0	    0	    0.783856	    0.710307	    0.699931	    1.875486	    1.359121	    1.804685	    1.446403	    1.143969	    1.227893	    0.332189	    0.258335	    0.238804	    1.424430	    1.159533	    1.241321	    1.691768	    1.213245	    1.125658	    1.776913	    1.334707	    1.249561
    21.615	0	0	    0	    0.786297	    0.712749	    0.702373	    1.876402	    1.359121	    1.821164	    1.452811	    1.151904	    1.234302	    0.331884	    0.257420	    0.238804	    1.426261	    1.166857	    1.252613	    1.694209	    1.218433	    1.126879	    1.787900	    1.344778	    1.255055
    21.670	0	0	    0	    0.780804	    0.704204	    0.695048	    1.872740	    1.353017	    1.810483	    1.442741	    1.119860	    1.211719	    0.331273	    0.256199	    0.236057	    1.422599	    1.157397	    1.244068	    1.672541	    1.190661	    1.108873	    1.767453	    1.324025	    1.230030
    21.725	0	0	    0	    0.773175	    0.700237	    0.687114	    1.860533	    1.335012	    1.779965	    1.431144	    1.116808	    1.211414	    0.326390	    0.251316	    0.232700	    1.408865	    1.144274	    1.223011	    1.658198	    1.169299	    1.083543	    1.748531	    1.303273	    1.212940
    21.780	0	0	    0	    0.769207	    0.696880	    0.687419	    1.856565	    1.338064	    1.782101	    1.413748	    1.109483	    1.192187	    0.323033	    0.252537	    0.234226	    1.405509	    1.140917	    1.221485	    1.640803	    1.175402	    1.088731	    1.732967	    1.304189	    1.212329
    21.835	0	0	    0	    0.770733	    0.698100	    0.684367	    1.850156	    1.331960	    1.784237	    1.415579	    1.114061	    1.193713	    0.325170	    0.249790	    0.233616	    1.396353	    1.136950	    1.220264	    1.648737	    1.169909	    1.075303	    1.736934	    1.295949	    1.205005
    21.890	0	0	    0	    0.771649	    0.698100	    0.686809	    1.856565	    1.333486	    1.787900	    1.423514	    1.114061	    1.196765	    0.325475	    0.253758	    0.233005	    1.404898	    1.136034	    1.217823	    1.654841	    1.179370	    1.087510	    1.738460	    1.299001	    1.212024
    21.945	0	0	    0	    0.772869	    0.698100	    0.688640	    1.852293	    1.333486	    1.778744	    1.414969	    1.110399	    1.192493	    0.325475	    0.251316	    0.233005	    1.404898	    1.139391	    1.216297	    1.656672	    1.175708	    1.088426	    1.736934	    1.294118	    1.210803
    22.000	0	0	    0	    0.775311	    0.698405	    0.690166	    1.855344	    1.335927	    1.789731	    1.423514	    1.114061	    1.207141	    0.327916	    0.253758	    0.235142	    1.400931	    1.140917	    1.222095	    1.651179	    1.187915	    1.091173	    1.735409	    1.302052	    1.218433
    22.055	0	0	    0	    0.775006	    0.700542	    0.688334	    1.862364	    1.342947	    1.792172	    1.427481	    1.121386	    1.208972	    0.327916	    0.254368	    0.236057	    1.408255	    1.149157	    1.227283	    1.670405	    1.189136	    1.094224	    1.751278	    1.304189	    1.217517
    22.110	0	0	    0	    0.777447	    0.706035	    0.692607	    1.861448	    1.338674	    1.799496	    1.442435	    1.136950	    1.205921	    0.329747	    0.254673	    0.236362	    1.409781	    1.143664	    1.228504	    1.673457	    1.194629	    1.100328	    1.755245	    1.313344	    1.223011
    22.165	0	0	    0	    0.779583	    0.706340	    0.694743	    1.867857	    1.342336	    1.799802	    1.441215	    1.150378	    1.214466	    0.328832	    0.255589	    0.236057	    1.418631	    1.147326	    1.233387	    1.681392	    1.205005	    1.108568	    1.758907	    1.322805	    1.227893
    22.220	0	0	    0	    0.780804	    0.709087	    0.695048	    1.876707	    1.347219	    1.807736	    1.444877	    1.137865	    1.231556	    0.329137	    0.255589	    0.238499	    1.420768	    1.150072	    1.233387	    1.679866	    1.202564	    1.121386	    1.769589	    1.332570	    1.237964
    22.275	0	0	    0	    0.781720	    0.708782	    0.697185	    1.879759	    1.353933	    1.807431	    1.456474	    1.154345	    1.241321	    0.330053	    0.255283	    0.238804	    1.423209	    1.162585	    1.239490	    1.701839	    1.216602	    1.114672	    1.776608	    1.331044	    1.246509
    22.330	0	0	    0	    0.786908	    0.715801	    0.701152	    1.879759	    1.356374	    1.816281	    1.464714	    1.168383	    1.238575	    0.331579	    0.255894	    0.238499	    1.428092	    1.161364	    1.243763	    1.713741	    1.218433	    1.133593	    1.794308	    1.341115	    1.250477
    22.385	0	0	    0	    0.785077	    0.708476	    0.698100	    1.889525	    1.360952	    1.813840	    1.457694	    1.142138	    1.241016	    0.331884	    0.256809	    0.236667	    1.431754	    1.163500	    1.245899	    1.710384	    1.226673	    1.123827	    1.786984	    1.340200	    1.242542
