     0.000	0	0	    0	    0.885786	    0.798810	    0.808576	    1.732052	    1.166247	    1.705806	    0.544289	    0.408789	    0.464332	    0.183566	    0.138705	    0.131075	    0.499733	    0.335546	    0.459144	    1.302968	    0.889754	    0.861982	    1.608148	    1.177844	    1.142443
     0.055	0	0	    0	    0.884565	    0.795148	    0.813153	    1.731136	    1.170214	    1.708248	    0.539101	    0.406958	    0.468299	    0.185092	    0.140536	    0.130465	    0.497902	    0.335241	    0.457923	    1.300526	    0.899214	    0.858930	    1.608759	    1.181811	    1.144884
     0.110	0	0	    0	    0.888838	    0.798199	    0.810712	    1.738155	    1.172961	    1.707942	    0.547341	    0.411536	    0.469825	    0.185397	    0.139620	    0.130465	    0.499428	    0.336461	    0.459144	    1.318227	    0.899825	    0.859846	    1.611200	    1.179980	    1.147631
     0.165	0	0	    0	    0.890364	    0.797894	    0.814679	    1.737850	    1.176623	    1.707027	    0.540932	    0.412146	    0.463722	    0.184176	    0.141146	    0.131991	    0.501564	    0.338598	    0.459144	    1.306325	    0.900740	    0.860761	    1.608759	    1.185168	    1.155261
     0.220	0	0	    0	    0.895552	    0.802472	    0.815900	    1.738155	    1.175708	    1.713130	    0.544289	    0.415503	    0.467689	    0.184787	    0.141451	    0.131991	    0.500343	    0.341039	    0.460975	    1.323110	    0.899214	    0.864424	    1.620966	    1.188220	    1.150683
     0.275	0	0	    0	    0.894636	    0.804913	    0.820172	    1.747311	    1.181201	    1.718013	    0.542458	    0.413062	    0.472267	    0.187533	    0.141451	    0.132906	    0.502480	    0.340429	    0.462501	    1.322805	    0.915084	    0.857404	    1.625238	    1.194324	    1.156481
     0.330	0	0	    0	    0.897993	    0.806744	    0.822004	    1.750973	    1.181506	    1.717403	    0.553750	    0.415503	    0.470130	    0.185397	    0.141146	    0.132906	    0.506142	    0.341344	    0.464332	    1.321584	    0.909895	    0.863813	    1.625849	    1.196155	    1.158923
     0.385	0	0	    0	    0.900740	    0.809796	    0.825055	    1.751278	    1.183337	    1.728389	    0.548562	    0.413062	    0.469215	    0.186618	    0.141146	    0.132906	    0.504005	    0.341344	    0.464637	    1.323110	    0.916304	    0.872358	    1.628595	    1.205310	    1.168383
     0.440	0	0	    0	    0.898604	    0.812848	    0.822919	    1.757076	    1.188830	    1.735714	    0.552529	    0.417334	    0.469520	    0.187533	    0.141756	    0.133516	    0.505531	    0.343175	    0.470436	    1.332265	    0.907149	    0.876631	    1.638666	    1.202564	    1.169604
     0.495	0	0	    0	    0.893721	    0.804303	    0.818036	    1.757992	    1.184863	    1.727779	    0.544900	    0.416724	    0.470130	    0.186923	    0.141146	    0.131685	    0.506447	    0.340429	    0.467079	    1.321889	    0.903792	    0.874189	    1.624323	    1.191882	    1.152209
     0.550	0	0	    0	    0.889143	    0.797894	    0.813458	    1.742428	    1.178149	    1.706111	    0.541848	    0.408179	    0.468605	    0.184176	    0.140536	    0.130770	    0.499733	    0.336767	    0.455482	    1.313344	    0.901350	    0.861677	    1.613642	    1.185779	    1.148852
     0.605	0	0	    0	    0.889448	    0.797284	    0.810407	    1.736019	    1.174487	    1.705501	    0.544594	    0.407568	    0.465553	    0.184176	    0.139925	    0.131075	    0.497292	    0.335546	    0.457008	    1.309377	    0.893416	    0.856489	    1.611200	    1.183032	    1.150378
     0.660	0	0	    0	    0.888533	    0.798505	    0.817731	    1.727169	    1.170520	    1.712520	    0.540932	    0.406348	    0.469215	    0.184482	    0.140230	    0.130465	    0.496986	    0.336461	    0.458839	    1.313954	    0.891585	    0.860761	    1.614557	    1.187610	    1.148241
     0.715	0	0	    0	    0.891890	    0.800031	    0.814374	    1.739071	    1.168994	    1.708553	    0.545510	    0.409400	    0.467384	    0.186007	    0.139925	    0.131075	    0.499123	    0.335546	    0.457313	    1.315175	    0.898299	    0.854658	    1.615473	    1.190356	    1.153735
     0.770	0	0	    0	    0.890059	    0.800336	    0.814984	    1.742123	    1.171740	    1.710384	    0.541543	    0.412146	    0.467079	    0.185092	    0.140841	    0.131380	    0.501869	    0.337377	    0.459754	    1.308156	    0.910811	    0.864424	    1.611810	    1.188830	    1.152514
     0.825	0	0	    0	    0.891585	    0.799420	    0.817731	    1.736324	    1.174182	    1.716182	    0.546426	    0.410925	    0.468910	    0.186618	    0.140536	    0.132296	    0.498512	    0.338903	    0.461891	    1.320668	    0.901045	    0.866865	    1.620050	    1.187304	    1.157397
     0.880	0	0	    0	    0.895552	    0.804608	    0.819257	    1.745480	    1.178454	    1.719844	    0.547341	    0.418250	    0.475929	    0.186923	    0.142061	    0.131991	    0.503395	    0.340124	    0.463111	    1.329213	    0.908980	    0.868696	    1.626154	    1.193103	    1.161059
     0.935	0	0	    0	    0.897383	    0.806744	    0.824140	    1.744869	    1.181201	    1.723201	    0.546426	    0.410620	    0.469825	    0.187228	    0.141756	    0.132906	    0.503395	    0.342870	    0.463416	    1.327993	    0.902571	    0.868696	    1.625849	    1.196155	    1.165637
     0.990	0	0	    0	    0.900130	    0.806744	    0.827497	    1.755856	    1.181201	    1.722286	    0.552224	    0.416114	    0.475319	    0.186923	    0.142061	    0.133822	    0.505837	    0.341344	    0.463722	    1.327687	    0.910811	    0.875410	    1.635309	    1.203174	    1.173571
     1.045	0	0	    0	    0.900740	    0.812848	    0.829938	    1.747921	    1.190356	    1.733883	    0.554971	    0.416114	    0.473182	    0.187839	    0.142672	    0.133516	    0.505531	    0.344701	    0.467994	    1.327077	    0.918135	    0.879072	    1.635004	    1.211414	    1.174182
     1.100	0	0	    0	    0.901045	    0.810101	    0.823529	    1.758907	    1.189441	    1.732967	    0.549172	    0.413062	    0.468910	    0.186923	    0.142672	    0.133211	    0.507057	    0.343481	    0.468605	    1.331655	    0.912337	    0.867170	    1.640803	    1.201038	    1.165637
     1.155	0	0	    0	    0.892195	    0.799115	    0.812238	    1.750973	    1.177844	    1.716793	    0.545205	    0.414588	    0.467384	    0.185397	    0.139925	    0.130770	    0.502785	    0.339208	    0.459144	    1.313344	    0.903487	    0.862593	    1.614252	    1.189441	    1.154040
     1.210	0	0	    0	    0.884565	    0.797589	    0.811017	    1.743954	    1.172961	    1.711910	    0.541543	    0.410925	    0.461891	    0.185092	    0.139620	    0.130770	    0.501564	    0.336461	    0.458839	    1.315480	    0.903792	    0.864729	    1.612726	    1.188220	    1.154955
     1.265	0	0	    0	    0.884565	    0.793317	    0.810407	    1.737240	    1.170214	    1.711299	    0.540932	    0.406043	    0.468299	    0.184482	    0.139010	    0.130465	    0.497902	    0.335241	    0.458839	    1.306325	    0.895857	    0.855268	    1.611505	    1.180591	    1.150378
     1.320	0	0	    0	    0.892195	    0.800641	    0.812543	    1.737850	    1.169909	    1.714656	    0.543984	    0.412451	    0.469825	    0.185397	    0.139620	    0.130770	    0.496681	    0.336767	    0.457923	    1.310597	    0.888228	    0.856489	    1.621576	    1.185168	    1.151293
     1.375	0	0	    0	    0.890364	    0.796063	    0.814679	    1.740902	    1.174182	    1.713436	    0.537881	    0.408484	    0.465248	    0.185397	    0.140536	    0.131380	    0.497597	    0.336156	    0.458839	    1.315175	    0.902571	    0.860456	    1.616083	    1.188525	    1.153735
     1.430	0	0	    0	    0.890974	    0.803388	    0.815595	    1.741817	    1.176623	    1.711604	    0.544289	    0.410925	    0.470436	    0.185397	    0.141146	    0.131685	    0.500038	    0.336461	    0.458839	    1.312123	    0.896162	    0.858320	    1.621881	    1.193103	    1.152209
     1.485	0	0	    0	    0.894942	    0.803693	    0.816510	    1.738766	    1.177539	    1.710994	    0.545510	    0.414588	    0.466468	    0.186313	    0.141146	    0.132601	    0.498207	    0.339818	    0.460365	    1.311513	    0.901350	    0.864118	    1.618219	    1.192187	    1.158312
     1.540	0	0	    0	    0.897078	    0.805219	    0.819257	    1.743343	    1.180896	    1.720455	    0.549172	    0.413062	    0.468910	    0.186313	    0.141451	    0.132601	    0.502785	    0.339513	    0.461585	    1.322805	    0.903792	    0.862593	    1.627375	    1.197681	    1.164111
     1.595	0	0	    0	    0.897688	    0.807965	    0.824140	    1.752804	    1.180591	    1.723812	    0.547646	    0.414893	    0.475013	    0.187839	    0.142367	    0.132296	    0.505226	    0.339513	    0.463111	    1.330434	    0.911116	    0.869917	    1.633173	    1.202564	    1.163806
     1.650	0	0	    0	    0.897078	    0.807965	    0.827192	    1.754330	    1.187610	    1.728389	    0.546426	    0.410925	    0.473793	    0.186618	    0.142061	    0.133822	    0.507362	    0.339818	    0.464027	    1.324636	    0.911421	    0.874495	    1.638361	    1.206531	    1.175097
     1.705	0	0	    0	    0.903487	    0.812848	    0.829633	    1.751278	    1.190051	    1.728389	    0.552529	    0.415808	    0.478065	    0.188144	    0.142061	    0.134127	    0.504005	    0.343481	    0.464332	    1.340810	    0.917525	    0.880598	    1.647211	    1.212024	    1.183948
     1.760	0	0	    0	    0.901350	    0.804608	    0.820478	    1.753719	    1.190051	    1.732662	    0.548257	    0.411841	    0.470436	    0.187839	    0.141756	    0.132601	    0.507362	    0.342260	    0.466773	    1.333791	    0.908370	    0.872663	    1.639887	    1.204089	    1.168688
     1.815	0	0	    0	    0.888533	    0.797284	    0.811627	    1.748531	    1.177844	    1.714656	    0.543069	    0.408789	    0.464332	    0.185397	    0.139010	    0.131075	    0.502480	    0.339208	    0.456703	    1.314870	    0.897383	    0.851911	    1.624933	    1.189746	    1.153735
     1.870	0	0	    0	    0.885481	    0.795148	    0.809796	    1.742123	    1.170825	    1.698177	    0.540017	    0.408789	    0.460365	    0.184176	    0.139620	    0.130159	    0.498512	    0.334020	    0.454566	    1.306630	    0.896468	    0.846418	    1.616083	    1.187304	    1.150378
     1.925	0	0	    0	    0.886397	    0.793622	    0.806134	    1.733577	    1.174487	    1.702144	    0.538491	    0.405737	    0.460975	    0.184176	    0.140230	    0.130465	    0.496986	    0.334325	    0.453346	    1.304494	    0.892805	    0.850996	    1.611200	    1.187304	    1.152819
     1.980	0	0	    0	    0.885481	    0.795148	    0.805524	    1.734188	    1.170214	    1.707942	    0.543069	    0.413977	    0.465248	    0.184482	    0.139620	    0.130770	    0.496376	    0.334630	    0.454871	    1.307240	    0.895857	    0.852216	    1.619440	    1.183642	    1.153124
     2.035	0	0	    0	    0.886397	    0.797284	    0.810712	    1.742428	    1.171740	    1.706416	    0.545205	    0.413367	    0.463722	    0.186313	    0.140230	    0.130770	    0.496986	    0.335851	    0.455177	    1.302358	    0.898909	    0.853742	    1.612421	    1.186694	    1.153124
     2.090	0	0	    0	    0.888533	    0.798505	    0.812848	    1.741512	    1.171130	    1.703670	    0.541848	    0.415808	    0.469215	    0.186618	    0.140536	    0.131991	    0.498512	    0.336461	    0.456397	    1.311208	    0.891890	    0.855573	    1.622187	    1.187915	    1.153429
     2.145	0	0	    0	    0.888533	    0.796979	    0.813153	    1.742428	    1.174792	    1.704585	    0.544594	    0.410010	    0.470130	    0.186313	    0.141146	    0.132601	    0.500649	    0.337682	    0.455787	    1.321279	    0.898909	    0.861372	    1.621271	    1.191882	    1.161669
     2.200	0	0	    0	    0.893721	    0.800641	    0.818647	    1.743954	    1.176013	    1.715877	    0.550393	    0.413672	    0.472267	    0.187228	    0.140841	    0.131991	    0.501259	    0.338293	    0.460060	    1.326467	    0.900435	    0.863508	    1.627375	    1.196765	    1.161975
     2.255	0	0	    0	    0.894026	    0.804303	    0.820172	    1.745174	    1.176013	    1.716487	    0.544594	    0.413062	    0.475013	    0.186618	    0.141146	    0.131685	    0.502174	    0.337682	    0.462196	    1.321584	    0.910506	    0.861067	    1.636530	    1.201953	    1.158312
     2.310	0	0	    0	    0.897383	    0.807355	    0.821698	    1.753719	    1.178454	    1.721370	    0.550698	    0.415503	    0.475929	    0.186618	    0.141451	    0.133516	    0.506142	    0.338598	    0.463111	    1.325551	    0.910811	    0.864118	    1.631952	    1.208057	    1.172045
     2.365	0	0	    0	    0.899519	    0.807660	    0.819867	    1.747921	    1.185168	    1.726558	    0.547036	    0.412757	    0.475319	    0.186313	    0.142367	    0.132601	    0.503090	    0.340429	    0.463416	    1.333791	    0.912642	    0.870832	    1.642634	    1.211109	    1.174792
     2.420	0	0	    0	    0.898909	    0.807355	    0.818647	    1.755245	    1.185779	    1.730526	    0.543374	    0.412451	    0.469825	    0.188144	    0.141146	    0.132601	    0.507362	    0.341344	    0.463722	    1.331044	    0.905623	    0.861982	    1.642634	    1.201648	    1.171740
     2.475	0	0	    0	    0.887617	    0.795453	    0.810407	    1.748531	    1.177234	    1.710689	    0.541238	    0.411536	    0.463722	    0.184787	    0.139620	    0.129854	    0.501564	    0.337987	    0.458534	    1.309377	    0.890364	    0.850996	    1.619745	    1.185473	    1.152209
     2.530	0	0	    0	    0.884871	    0.792096	    0.807355	    1.737850	    1.168994	    1.699397	    0.540627	    0.410925	    0.464942	    0.184176	    0.139010	    0.130159	    0.496071	    0.334325	    0.454261	    1.303883	    0.899214	    0.847639	    1.612726	    1.183337	    1.149157
     2.585	0	0	    0	    0.886091	    0.785687	    0.805524	    1.729610	    1.168688	    1.698787	    0.541543	    0.407263	    0.461585	    0.183261	    0.138705	    0.129854	    0.493935	    0.333715	    0.452735	    1.302052	    0.884565	    0.845502	    1.611505	    1.180285	    1.143664
     2.640	0	0	    0	    0.884260	    0.792096	    0.802472	    1.730831	    1.166857	    1.699397	    0.539406	    0.406958	    0.465248	    0.182650	    0.138094	    0.128939	    0.494850	    0.332494	    0.452735	    1.311208	    0.885786	    0.845197	    1.607233	    1.178149	    1.143359
     2.695	0	0	    0	    0.887617	    0.792706	    0.807660	    1.730831	    1.166247	    1.698177	    0.543374	    0.406958	    0.464027	    0.184176	    0.139315	    0.129854	    0.496071	    0.334325	    0.453651	    1.315175	    0.894636	    0.851301	    1.610895	    1.184253	    1.146410
     2.750	0	0	    0	    0.882124	    0.792096	    0.805219	    1.736324	    1.167468	    1.700313	    0.544289	    0.406958	    0.466163	    0.186007	    0.140230	    0.130159	    0.497292	    0.334325	    0.455482	    1.309987	    0.898299	    0.858625	    1.613642	    1.185779	    1.151598
     2.805	0	0	    0	    0.887007	    0.794537	    0.809186	    1.735103	    1.171130	    1.704891	    0.547341	    0.410315	    0.469825	    0.186007	    0.139315	    0.131075	    0.499123	    0.334936	    0.455482	    1.309682	    0.890364	    0.861982	    1.615473	    1.180591	    1.153429
     2.860	0	0	    0	    0.893416	    0.798199	    0.809186	    1.732662	    1.171740	    1.706722	    0.546426	    0.414282	    0.470741	    0.187839	    0.140230	    0.132601	    0.498207	    0.336767	    0.457618	    1.322805	    0.895552	    0.858015	    1.624018	    1.188220	    1.154040
     2.915	0	0	    0	    0.889448	    0.800641	    0.812848	    1.741207	    1.174487	    1.709163	    0.548562	    0.414282	    0.464942	    0.187533	    0.141146	    0.132601	    0.502480	    0.337987	    0.458839	    1.332265	    0.905318	    0.862898	    1.626764	    1.194934	    1.165332
     2.970	0	0	    0	    0.893111	    0.803388	    0.818647	    1.746090	    1.180285	    1.710079	    0.548257	    0.414893	    0.470741	    0.188144	    0.141146	    0.131991	    0.502174	    0.340124	    0.460060	    1.331960	    0.902571	    0.869917	    1.625544	    1.198596	    1.161059
     3.025	0	0	    0	    0.895857	    0.801251	    0.817731	    1.747616	    1.177234	    1.717098	    0.544900	    0.411536	    0.474403	    0.187533	    0.141756	    0.132601	    0.504005	    0.339513	    0.460670	    1.333181	    0.909895	    0.868391	    1.628290	    1.195544	    1.164111
     3.080	0	0	    0	    0.903182	    0.807355	    0.822004	    1.747616	    1.180896	    1.719844	    0.554971	    0.413367	    0.471962	    0.187839	    0.141756	    0.132601	    0.502785	    0.340429	    0.463416	    1.328908	    0.909895	    0.862593	    1.631647	    1.199512	    1.162585
     3.135	0	0	    0	    0.900130	    0.807965	    0.824140	    1.751583	    1.180591	    1.723201	    0.551614	    0.418555	    0.472877	    0.186923	    0.142672	    0.132296	    0.506752	    0.339818	    0.464942	    1.345693	    0.913252	    0.865644	    1.640192	    1.206836	    1.165026
     3.190	0	0	    0	    0.890364	    0.796979	    0.809186	    1.750057	    1.179065	    1.714656	    0.541543	    0.411841	    0.469215	    0.186618	    0.140841	    0.131075	    0.504921	    0.338293	    0.459754	    1.320974	    0.897688	    0.852216	    1.616999	    1.189441	    1.150072
     3.245	0	0	    0	    0.886397	    0.791485	    0.802472	    1.726864	    1.167468	    1.700313	    0.545510	    0.406653	    0.464637	    0.185397	    0.139315	    0.130465	    0.496376	    0.334936	    0.454871	    1.309682	    0.887312	    0.851911	    1.612421	    1.175097	    1.147021
     3.300	0	0	    0	    0.888228	    0.787823	    0.804608	    1.724727	    1.166552	    1.698482	    0.540627	    0.410010	    0.465858	    0.185092	    0.138705	    0.128939	    0.492103	    0.333715	    0.452430	    1.307546	    0.890669	    0.845808	    1.608759	    1.176928	    1.140917
     3.355	0	0	    0	    0.883040	    0.788739	    0.803082	    1.728084	    1.165332	    1.692378	    0.545815	    0.407874	    0.467384	    0.184482	    0.138705	    0.128634	    0.496376	    0.332189	    0.453040	    1.298390	    0.891279	    0.843671	    1.607233	    1.179065	    1.143053
     3.410	0	0	    0	    0.887922	    0.791791	    0.808881	    1.732357	    1.165942	    1.697566	    0.543984	    0.411841	    0.464332	    0.185397	    0.139010	    0.129854	    0.496376	    0.334325	    0.453346	    1.302358	    0.893416	    0.845808	    1.610895	    1.183948	    1.144579
     3.465	0	0	    0	    0.888228	    0.790875	    0.803998	    1.728389	    1.163806	    1.695125	    0.544289	    0.411841	    0.465248	    0.186007	    0.139925	    0.130770	    0.496681	    0.334325	    0.453956	    1.309377	    0.896773	    0.853742	    1.616999	    1.183948	    1.147936
     3.520	0	0	    0	    0.891279	    0.792096	    0.806134	    1.734188	    1.170520	    1.700923	    0.549172	    0.411536	    0.466468	    0.187228	    0.140536	    0.130159	    0.498207	    0.335241	    0.456703	    1.316091	    0.900435	    0.847639	    1.618524	    1.183337	    1.145495
     3.575	0	0	    0	    0.890974	    0.800336	    0.810712	    1.740902	    1.174182	    1.702449	    0.552529	    0.413977	    0.472572	    0.187228	    0.140841	    0.131685	    0.501564	    0.335546	    0.456703	    1.322499	    0.897688	    0.857099	    1.628290	    1.187304	    1.155261
     3.630	0	0	    0	    0.895552	    0.798505	    0.811322	    1.738460	    1.174487	    1.708858	    0.553140	    0.418555	    0.473487	    0.188144	    0.141146	    0.131075	    0.500343	    0.337072	    0.457923	    1.334401	    0.905928	    0.865644	    1.631647	    1.197986	    1.161364
     3.685	0	0	    0	    0.896162	    0.801556	    0.814679	    1.746395	    1.177844	    1.712825	    0.550698	    0.415198	    0.473182	    0.188449	    0.141756	    0.131991	    0.502785	    0.339513	    0.459754	    1.323415	    0.901350	    0.862898	    1.629511	    1.194324	    1.161364
     3.740	0	0	    0	    0.895552	    0.803082	    0.818952	    1.744869	    1.178149	    1.714656	    0.550698	    0.417945	    0.471962	    0.188449	    0.142061	    0.131685	    0.503090	    0.338903	    0.462806	    1.323110	    0.903182	    0.863508	    1.631037	    1.197986	    1.164721
     3.795	0	0	    0	    0.901350	    0.808576	    0.821698	    1.750973	    1.175708	    1.717098	    0.552529	    0.415503	    0.478981	    0.188449	    0.142672	    0.132906	    0.504921	    0.337682	    0.461891	    1.339590	    0.917220	    0.873579	    1.636530	    1.204700	    1.169604
     3.850	0	0	    0	    0.898604	    0.800336	    0.818647	    1.756771	    1.179980	    1.718624	    0.556497	    0.419776	    0.475624	    0.188449	    0.141451	    0.131685	    0.504616	    0.338598	    0.460975	    1.331655	    0.907454	    0.869612	    1.633783	    1.201038	    1.169909
     3.905	0	0	    0	    0.888228	    0.794537	    0.804608	    1.741817	    1.174792	    1.707942	    0.541543	    0.413672	    0.463722	    0.185702	    0.140841	    0.130770	    0.501259	    0.335851	    0.457313	    1.320363	    0.897993	    0.857099	    1.620966	    1.190356	    1.154040
     3.960	0	0	    0	    0.885786	    0.793011	    0.804608	    1.725948	    1.160449	    1.695430	    0.546731	    0.408179	    0.471962	    0.184787	    0.138399	    0.128939	    0.496376	    0.333104	    0.452735	    1.318227	    0.889448	    0.852522	    1.614862	    1.186084	    1.151598
     4.015	0	0	    0	    0.885786	    0.792096	    0.806439	    1.727169	    1.164111	    1.690547	    0.545815	    0.416114	    0.464942	    0.185397	    0.138705	    0.129244	    0.496376	    0.332799	    0.450904	    1.318837	    0.890669	    0.846113	    1.614862	    1.180285	    1.149157
     4.070	0	0	    0	    0.888228	    0.793622	    0.806134	    1.729000	    1.165332	    1.698177	    0.551308	    0.409094	    0.470741	    0.186618	    0.139620	    0.129549	    0.496681	    0.333104	    0.451820	    1.317922	    0.891890	    0.854658	    1.620050	    1.186999	    1.147021
     4.125	0	0	    0	    0.890059	    0.793011	    0.807050	    1.735103	    1.168994	    1.703975	    0.550698	    0.413672	    0.476844	    0.185397	    0.139925	    0.128939	    0.502174	    0.335546	    0.453346	    1.317006	    0.891279	    0.848554	    1.612116	    1.181506	    1.145495
     4.180	0	0	    0	    0.890364	    0.796368	    0.808576	    1.734798	    1.164416	    1.702449	    0.551919	    0.414893	    0.470130	    0.186618	    0.139620	    0.130465	    0.498817	    0.334630	    0.456397	    1.318837	    0.894942	    0.850690	    1.616083	    1.186389	    1.151904
     4.235	0	0	    0	    0.892805	    0.798199	    0.809186	    1.736324	    1.165026	    1.700313	    0.550698	    0.415503	    0.473487	    0.187228	    0.140230	    0.131380	    0.500649	    0.334630	    0.455177	    1.330129	    0.897383	    0.854963	    1.618219	    1.192187	    1.152819
     4.290	0	0	    0	    0.892805	    0.800641	    0.813458	    1.742428	    1.168688	    1.708553	    0.555276	    0.416724	    0.473487	    0.187533	    0.141146	    0.131380	    0.502174	    0.336156	    0.454871	    1.331044	    0.896162	    0.856489	    1.629816	    1.193408	    1.156481
     4.345	0	0	    0	    0.901350	    0.801556	    0.817731	    1.743648	    1.176928	    1.711910	    0.547951	    0.416724	    0.478981	    0.188449	    0.142061	    0.132296	    0.504311	    0.338903	    0.458228	    1.331044	    0.909285	    0.866255	    1.629511	    1.198291	    1.160754
     4.400	0	0	    0	    0.902876	    0.801862	    0.817731	    1.745174	    1.178454	    1.714961	    0.559243	    0.417029	    0.474403	    0.189059	    0.141451	    0.131685	    0.502785	    0.341039	    0.460670	    1.340810	    0.906844	    0.876020	    1.636530	    1.198291	    1.166857
     4.455	0	0	    0	    0.901656	    0.809796	    0.822919	    1.747921	    1.176623	    1.720150	    0.550393	    0.419471	    0.478370	    0.189364	    0.142061	    0.131685	    0.502785	    0.340734	    0.459144	    1.338979	    0.911727	    0.868391	    1.637140	    1.203784	    1.164721
     4.510	0	0	    0	    0.903487	    0.807965	    0.827497	    1.755550	    1.183948	    1.721065	    0.554665	    0.417334	    0.487221	    0.187839	    0.142061	    0.132601	    0.506142	    0.341039	    0.462196	    1.346304	    0.926680	    0.871138	    1.636835	    1.208362	    1.176013
     4.565	0	0	    0	    0.900130	    0.802167	    0.811627	    1.753109	    1.180591	    1.721981	    0.558022	    0.418860	    0.474098	    0.188754	    0.141146	    0.131075	    0.506752	    0.341344	    0.463111	    1.326467	    0.907454	    0.860761	    1.624018	    1.198291	    1.158618
     4.620	0	0	    0	    0.889754	    0.792706	    0.805219	    1.741207	    1.169604	    1.704891	    0.547951	    0.416724	    0.472267	    0.185397	    0.139620	    0.130465	    0.499733	    0.334936	    0.455482	    1.317617	    0.891585	    0.843671	    1.608759	    1.182116	    1.148852
     4.675	0	0	    0	    0.883040	    0.792096	    0.802167	    1.733272	    1.165332	    1.696651	    0.546120	    0.416419	    0.467689	    0.185092	    0.139010	    0.128634	    0.499123	    0.333410	    0.452125	    1.318532	    0.893416	    0.846113	    1.606622	    1.176928	    1.140612
     4.730	0	0	    0	    0.883345	    0.789654	    0.806134	    1.733883	    1.161669	    1.682612	    0.546426	    0.413672	    0.474098	    0.185092	    0.138094	    0.129549	    0.495460	    0.331884	    0.450294	    1.308156	    0.892500	    0.846418	    1.601434	    1.170825	    1.138476
     4.785	0	0	    0	    0.887312	    0.792096	    0.803998	    1.730831	    1.165942	    1.693904	    0.547341	    0.414893	    0.467994	    0.186313	    0.139010	    0.129854	    0.497292	    0.332799	    0.451514	    1.307851	    0.888838	    0.849165	    1.604181	    1.172656	    1.144274
     4.840	0	0	    0	    0.886702	    0.793317	    0.803082	    1.722896	    1.161059	    1.697871	    0.550393	    0.417334	    0.473487	    0.186313	    0.139010	    0.129244	    0.495460	    0.331273	    0.451209	    1.317006	    0.889143	    0.850080	    1.605707	    1.173877	    1.138476
     4.895	0	0	    0	    0.887617	    0.793622	    0.808576	    1.734493	    1.163500	    1.692988	    0.548562	    0.413367	    0.476539	    0.186618	    0.139620	    0.130465	    0.499123	    0.332799	    0.453040	    1.313649	    0.891585	    0.844587	    1.603876	    1.178454	    1.141222
     4.950	0	0	    0	    0.888838	    0.794842	    0.807355	    1.730831	    1.168383	    1.696956	    0.550698	    0.419471	    0.472877	    0.187228	    0.141146	    0.130465	    0.496681	    0.335546	    0.454261	    1.324025	    0.896468	    0.852522	    1.613031	    1.182727	    1.145495
     5.005	0	0	    0	    0.894636	    0.796674	    0.811627	    1.734188	    1.164416	    1.701228	    0.549477	    0.413672	    0.472267	    0.187533	    0.140230	    0.130465	    0.499123	    0.332799	    0.455482	    1.321279	    0.894331	    0.850080	    1.615473	    1.182116	    1.149157
     5.060	0	0	    0	    0.897383	    0.799725	    0.814984	    1.735103	    1.170520	    1.703670	    0.553140	    0.417639	    0.475624	    0.187228	    0.139315	    0.131685	    0.500954	    0.336461	    0.455787	    1.325246	    0.895247	    0.856794	    1.616083	    1.178759	    1.150378
     5.115	0	0	    0	    0.897688	    0.804303	    0.817426	    1.738155	    1.169909	    1.704280	    0.551003	    0.417029	    0.474098	    0.187228	    0.140536	    0.130465	    0.503090	    0.335851	    0.456703	    1.332570	    0.893721	    0.860456	    1.619440	    1.190051	    1.154040
     5.170	0	0	    0	    0.901045	    0.806744	    0.821088	    1.745785	    1.176013	    1.711910	    0.550393	    0.419776	    0.480201	    0.187228	    0.142061	    0.131685	    0.503090	    0.339208	    0.458839	    1.328298	    0.910811	    0.860151	    1.627985	    1.196155	    1.157702
     5.225	0	0	    0	    0.901350	    0.810407	    0.821088	    1.743343	    1.181811	    1.718624	    0.552224	    0.421912	    0.480201	    0.189364	    0.142977	    0.133211	    0.505531	    0.341650	    0.461280	    1.332876	    0.905928	    0.870222	    1.625238	    1.200427	    1.163195
     5.280	0	0	    0	    0.901045	    0.801862	    0.815900	    1.750057	    1.179065	    1.712825	    0.551308	    0.417639	    0.474708	    0.188754	    0.141756	    0.131380	    0.506447	    0.341344	    0.460365	    1.328298	    0.904707	    0.855573	    1.619745	    1.190967	    1.152209
     5.335	0	0	    0	    0.890974	    0.795148	    0.808576	    1.737850	    1.165332	    1.692683	    0.545510	    0.417334	    0.472877	    0.186313	    0.138705	    0.129244	    0.498512	    0.335241	    0.453651	    1.310597	    0.891585	    0.846723	    1.602045	    1.175097	    1.140612
     5.390	0	0	    0	    0.885176	    0.790570	    0.802167	    1.732967	    1.160754	    1.692988	    0.544900	    0.409400	    0.468910	    0.185397	    0.138399	    0.128939	    0.497902	    0.331273	    0.450294	    1.302663	    0.880293	    0.843671	    1.599298	    1.170214	    1.133898
     5.445	0	0	    0	    0.884565	    0.788434	    0.802777	    1.726864	    1.163195	    1.683223	    0.543374	    0.409400	    0.470130	    0.185397	    0.137484	    0.128023	    0.494850	    0.331579	    0.446632	    1.305409	    0.881819	    0.844892	    1.593500	    1.164111	    1.135424
     5.500	0	0	    0	    0.887312	    0.792706	    0.803388	    1.723201	    1.159228	    1.693599	    0.548257	    0.411536	    0.466163	    0.186313	    0.138094	    0.128939	    0.493629	    0.330053	    0.450294	    1.302358	    0.876936	    0.843366	    1.598077	    1.165637	    1.135424
     5.555	0	0	    0	    0.887922	    0.789654	    0.805524	    1.728389	    1.162585	    1.687495	    0.542458	    0.407263	    0.465553	    0.186007	    0.138705	    0.129854	    0.496071	    0.330968	    0.449073	    1.306325	    0.882429	    0.841230	    1.597162	    1.168383	    1.136339
     5.610	0	0	    0	    0.887922	    0.791180	    0.808270	    1.725032	    1.164721	    1.689021	    0.546426	    0.413062	    0.471962	    0.185702	    0.138705	    0.128328	    0.494240	    0.331884	    0.449989	    1.307851	    0.887007	    0.844587	    1.596551	    1.165026	    1.130846
     5.665	0	0	    0	    0.894026	    0.795758	    0.810101	    1.731746	    1.164416	    1.692378	    0.544289	    0.411231	    0.471046	    0.186007	    0.139620	    0.129549	    0.499123	    0.333410	    0.453346	    1.298085	    0.889143	    0.847028	    1.591974	    1.169604	    1.133593
     5.720	0	0	    0	    0.896468	    0.797589	    0.810407	    1.725948	    1.168688	    1.700618	    0.551308	    0.417639	    0.470130	    0.186007	    0.139925	    0.131075	    0.498817	    0.334630	    0.453956	    1.313954	    0.889143	    0.853437	    1.595636	    1.170214	    1.140307
     5.775	0	0	    0	    0.893721	    0.801862	    0.816510	    1.736629	    1.167773	    1.698177	    0.547036	    0.417639	    0.470741	    0.188449	    0.141146	    0.130159	    0.500038	    0.333104	    0.454871	    1.318227	    0.896468	    0.850690	    1.606317	    1.172656	    1.136645
     5.830	0	0	    0	    0.897688	    0.803998	    0.816205	    1.739071	    1.167468	    1.699092	    0.545205	    0.415503	    0.477760	    0.188144	    0.140536	    0.130770	    0.500649	    0.336461	    0.455787	    1.324941	    0.895857	    0.852216	    1.603571	    1.175097	    1.140917
     5.885	0	0	    0	    0.898909	    0.803388	    0.816510	    1.738766	    1.170214	    1.702144	    0.550698	    0.418555	    0.472572	    0.187839	    0.141451	    0.131380	    0.503395	    0.337682	    0.456397	    1.320668	    0.897688	    0.860761	    1.602960	    1.178149	    1.145800
     5.940	0	0	    0	    0.903487	    0.807050	    0.822614	    1.734798	    1.174792	    1.709773	    0.550088	    0.416114	    0.476539	    0.188754	    0.141756	    0.131685	    0.501564	    0.337072	    0.460365	    1.330434	    0.899214	    0.856794	    1.612116	    1.178759	    1.146715
     5.995	0	0	    0	    0.906233	    0.806744	    0.823835	    1.745480	    1.178454	    1.715572	    0.548867	    0.417945	    0.476844	    0.188449	    0.142061	    0.131991	    0.502174	    0.339208	    0.461585	    1.334401	    0.899519	    0.857710	    1.619745	    1.185168	    1.147631
     6.050	0	0	    0	    0.892195	    0.797589	    0.811322	    1.745174	    1.175402	    1.706722	    0.544289	    0.413062	    0.469215	    0.187839	    0.141146	    0.130770	    0.503700	    0.337377	    0.455787	    1.309682	    0.883955	    0.845502	    1.597772	    1.172961	    1.139086
     6.105	0	0	    0	    0.890974	    0.791791	    0.803388	    1.733272	    1.167163	    1.696345	    0.540627	    0.411231	    0.464332	    0.186313	    0.139010	    0.130159	    0.496071	    0.333410	    0.451209	    1.300526	    0.888838	    0.848554	    1.589837	    1.165637	    1.133593
     6.160	0	0	    0	    0.888533	    0.794537	    0.807660	    1.723507	    1.160754	    1.691463	    0.540017	    0.410010	    0.463416	    0.185702	    0.138705	    0.130159	    0.493019	    0.331884	    0.451209	    1.304799	    0.882734	    0.840009	    1.591669	    1.164721	    1.129931
     6.215	0	0	    0	    0.892805	    0.796368	    0.809491	    1.727169	    1.161364	    1.682612	    0.536355	    0.410620	    0.460975	    0.186007	    0.139010	    0.129244	    0.494240	    0.330968	    0.447852	    1.307240	    0.878767	    0.838788	    1.587396	    1.164416	    1.128405
     6.270	0	0	    0	    0.890059	    0.795758	    0.809796	    1.731136	    1.164416	    1.688716	    0.539712	    0.408789	    0.468910	    0.185702	    0.138399	    0.129244	    0.494240	    0.332799	    0.449073	    1.298085	    0.891279	    0.837568	    1.589837	    1.166552	    1.137255
     6.325	0	0	    0	    0.890059	    0.794232	    0.808881	    1.728084	    1.166857	    1.692073	    0.541238	    0.411231	    0.470130	    0.186007	    0.139315	    0.129549	    0.494545	    0.331579	    0.450599	    1.307851	    0.890059	    0.847944	    1.594415	    1.171740	    1.134508
     6.380	0	0	    0	    0.895247	    0.795453	    0.813458	    1.728389	    1.164111	    1.696345	    0.543069	    0.409400	    0.463722	    0.186618	    0.140230	    0.129854	    0.495155	    0.333410	    0.452735	    1.313649	    0.885176	    0.842145	    1.598383	    1.169299	    1.137255
     6.435	0	0	    0	    0.900130	    0.802777	    0.814679	    1.738460	    1.169299	    1.698787	    0.537575	    0.412451	    0.463416	    0.187228	    0.140841	    0.130159	    0.497292	    0.334936	    0.452430	    1.312428	    0.889143	    0.850080	    1.603571	    1.174792	    1.138170
     6.490	0	0	    0	    0.899519	    0.804913	    0.817426	    1.738155	    1.170825	    1.703975	    0.537881	    0.412451	    0.470130	    0.187228	    0.141451	    0.130465	    0.498512	    0.335546	    0.455787	    1.321279	    0.899825	    0.845808	    1.608453	    1.182727	    1.145800
     6.545	0	0	    0	    0.898299	    0.805524	    0.821698	    1.738460	    1.173877	    1.710079	    0.543984	    0.414588	    0.471656	    0.187839	    0.140841	    0.131685	    0.497902	    0.334325	    0.455177	    1.319142	    0.899519	    0.860456	    1.612116	    1.185473	    1.150683
     6.600	0	0	    0	    0.902876	    0.808270	    0.822004	    1.746090	    1.176623	    1.710994	    0.550698	    0.412451	    0.469215	    0.188144	    0.139925	    0.131685	    0.500649	    0.335851	    0.457923	    1.326467	    0.900130	    0.862287	    1.618524	    1.185473	    1.157092
     6.655	0	0	    0	    0.906844	    0.811933	    0.825971	    1.750973	    1.179370	    1.716487	    0.547341	    0.410925	    0.474403	    0.189364	    0.140841	    0.131685	    0.501869	    0.337377	    0.457008	    1.335317	    0.903792	    0.868696	    1.624323	    1.190967	    1.160449
     6.710	0	0	    0	    0.908675	    0.814374	    0.828717	    1.757382	    1.184253	    1.720455	    0.542458	    0.412451	    0.472572	    0.188754	    0.142367	    0.131991	    0.502174	    0.339818	    0.460670	    1.338674	    0.916609	    0.868696	    1.632868	    1.200122	    1.169299
     6.765	0	0	    0	    0.903792	    0.807050	    0.820478	    1.757687	    1.183948	    1.725338	    0.544289	    0.407263	    0.470436	    0.187839	    0.141146	    0.131075	    0.505531	    0.338598	    0.459144	    1.331960	    0.901961	    0.859846	    1.615473	    1.183642	    1.153735
     6.820	0	0	    0	    0.897688	    0.798810	    0.814984	    1.733883	    1.174182	    1.707942	    0.538186	    0.406348	    0.463416	    0.185397	    0.138094	    0.129854	    0.494545	    0.332799	    0.453346	    1.315175	    0.883040	    0.852216	    1.602350	    1.172656	    1.142748
     6.875	0	0	    0	    0.893111	    0.799420	    0.811322	    1.732662	    1.169299	    1.700618	    0.534829	    0.406958	    0.458839	    0.185092	    0.139620	    0.128634	    0.496376	    0.330053	    0.449073	    1.305715	    0.882429	    0.849775	    1.595941	    1.176318	    1.137865
     6.930	0	0	    0	    0.891585	    0.800336	    0.818341	    1.735103	    1.168078	    1.700313	    0.532082	    0.409400	    0.463416	    0.186007	    0.139315	    0.130465	    0.492103	    0.330358	    0.450904	    1.306325	    0.882124	    0.842145	    1.598383	    1.178454	    1.137560
     6.985	0	0	    0	    0.896468	    0.797894	    0.813458	    1.737545	    1.174182	    1.703365	    0.534524	    0.406958	    0.462806	    0.185397	    0.138705	    0.129854	    0.493629	    0.331579	    0.450294	    1.305715	    0.893721	    0.843977	    1.605097	    1.178454	    1.144274
     7.040	0	0	    0	    0.894331	    0.800946	    0.814069	    1.731136	    1.171740	    1.705806	    0.540017	    0.408484	    0.467994	    0.186313	    0.139010	    0.129549	    0.492714	    0.331884	    0.451514	    1.306020	    0.891585	    0.849470	    1.604181	    1.172961	    1.146715
     7.095	0	0	    0	    0.901350	    0.802777	    0.818036	    1.732052	    1.169604	    1.704280	    0.591592	    0.492409	    0.566873	    0.186923	    0.139315	    0.130159	    0.493935	    0.332494	    0.450294	    1.317311	    0.898604	    0.869612	    1.605707	    1.177539	    1.151904
     7.150	0	0	    0	    0.900740	    0.807965	    0.823224	    1.745480	    1.179065	    1.708248	    0.699321	    0.576944	    0.632181	    0.189670	    0.143587	    0.133211	    0.558022	    0.395056	    0.514992	    1.481193	    1.058824	    1.029831	    1.684138	    1.255055	    1.220874
     7.205	0	0	    0	    0.904402	    0.808881	    0.822919	    1.743954	    1.179065	    1.718624	    0.537575	    0.410925	    0.463722	    0.187839	    0.142061	    0.131991	    0.549172	    0.373388	    0.483253	    1.368276	    0.933089	    0.867781	    1.631342	    1.205615	    1.162280
     7.260	0	0	    0	    0.904097	    0.808881	    0.825055	    1.748226	    1.175708	    1.721065	    0.534524	    0.409094	    0.468910	    0.188754	    0.141146	    0.131685	    0.499428	    0.336461	    0.458228	    1.321584	    0.905013	    0.864118	    1.618219	    1.194934	    1.160449
     7.315	0	0	    0	    0.905928	    0.814984	    0.827802	    1.756161	    1.181201	    1.726558	    0.539712	    0.413062	    0.471656	    0.189059	    0.142061	    0.131075	    0.500954	    0.336461	    0.460060	    1.330434	    0.908064	    0.860456	    1.624323	    1.200122	    1.164721
     7.370	0	0	    0	    0.905623	    0.814984	    0.829938	    1.762570	    1.188830	    1.727169	    0.537270	    0.411231	    0.470130	    0.188144	    0.142367	    0.132906	    0.502174	    0.338903	    0.459449	    1.337758	    0.911727	    0.865034	    1.630121	    1.209277	    1.169299
     7.425	0	0	    0	    0.897688	    0.802167	    0.816510	    1.750668	    1.179065	    1.721065	    0.533608	    0.412451	    0.459754	    0.186313	    0.140536	    0.130770	    0.499123	    0.337072	    0.455787	    1.320668	    0.897993	    0.855268	    1.606928	    1.183948	    1.152209
     7.480	0	0	    0	    0.892805	    0.800641	    0.813153	    1.738155	    1.169299	    1.709163	    0.530861	    0.406653	    0.461891	    0.184787	    0.138399	    0.129549	    0.493629	    0.331579	    0.451820	    1.311818	    0.890059	    0.852522	    1.598688	    1.176928	    1.148241
     7.535	0	0	    0	    0.893416	    0.800641	    0.813153	    1.736934	    1.170520	    1.703975	    0.530861	    0.407568	    0.458534	    0.185092	    0.139925	    0.130159	    0.491493	    0.332189	    0.447852	    1.299306	    0.886091	    0.851301	    1.605707	    1.178759	    1.147631
     7.590	0	0	    0	    0.896162	    0.802777	    0.818341	    1.743038	    1.168078	    1.706111	    0.529030	    0.401465	    0.465858	    0.186313	    0.138705	    0.129549	    0.493629	    0.331579	    0.449683	    1.313649	    0.901961	    0.854047	    1.605402	    1.184253	    1.145495
     7.645	0	0	    0	    0.897078	    0.796979	    0.814679	    1.736324	    1.177539	    1.710079	    0.530861	    0.403906	    0.461280	    0.185702	    0.140536	    0.129549	    0.493019	    0.331579	    0.451514	    1.312428	    0.897688	    0.853742	    1.598993	    1.180896	    1.149157
     7.700	0	0	    0	    0.899519	    0.803998	    0.815595	    1.741817	    1.171740	    1.710689	    0.531472	    0.407874	    0.458534	    0.186007	    0.139315	    0.130465	    0.492409	    0.330358	    0.450599	    1.313954	    0.894636	    0.862898	    1.605097	    1.181811	    1.153429
     7.755	0	0	    0	    0.899825	    0.807050	    0.820783	    1.742123	    1.172045	    1.703975	    0.535744	    0.407874	    0.464942	    0.186618	    0.140841	    0.130770	    0.496681	    0.334325	    0.451820	    1.318532	    0.904402	    0.855573	    1.612116	    1.190967	    1.155261
     7.810	0	0	    0	    0.901656	    0.805829	    0.821393	    1.748226	    1.176928	    1.715267	    0.535134	    0.406348	    0.466773	    0.186618	    0.139620	    0.131685	    0.498207	    0.332494	    0.456092	    1.329824	    0.903182	    0.861982	    1.618219	    1.192187	    1.158312
     7.865	0	0	    0	    0.905013	    0.807660	    0.825666	    1.750973	    1.182727	    1.721370	    0.531777	    0.410925	    0.469215	    0.186923	    0.141451	    0.131991	    0.497597	    0.336767	    0.455482	    1.333791	    0.908064	    0.868696	    1.623713	    1.196155	    1.166247
     7.920	0	0	    0	    0.909590	    0.810712	    0.826886	    1.748836	    1.185168	    1.728389	    0.536049	    0.412451	    0.468910	    0.186313	    0.141756	    0.131991	    0.498512	    0.336156	    0.459144	    1.327687	    0.917220	    0.869001	    1.620966	    1.203174	    1.168688
     7.975	0	0	    0	    0.910201	    0.816815	    0.830854	    1.757992	    1.182727	    1.730220	    0.543679	    0.418250	    0.467079	    0.188144	    0.140841	    0.130770	    0.500649	    0.335851	    0.457008	    1.332570	    0.913252	    0.872663	    1.638666	    1.208057	    1.168078
     8.030	0	0	    0	    0.907149	    0.811017	    0.826276	    1.765316	    1.188830	    1.735409	    0.534524	    0.411536	    0.469520	    0.186618	    0.140536	    0.131991	    0.500038	    0.337682	    0.460060	    1.335012	    0.908675	    0.873884	    1.631037	    1.205310	    1.166857
     8.085	0	0	    0	    0.895857	    0.799115	    0.813153	    1.750668	    1.181811	    1.720150	    0.532387	    0.402686	    0.464027	    0.185702	    0.139620	    0.129244	    0.497292	    0.334936	    0.451514	    1.313954	    0.897078	    0.860151	    1.607843	    1.189136	    1.154650
     8.140	0	0	    0	    0.893111	    0.798810	    0.810101	    1.738460	    1.173266	    1.712215	    0.532387	    0.408789	    0.458534	    0.184482	    0.137789	    0.129549	    0.491188	    0.331579	    0.450599	    1.306630	    0.891585	    0.854353	    1.606317	    1.182116	    1.151904
     8.195	0	0	    0	    0.889143	    0.796979	    0.807660	    1.732967	    1.169604	    1.703670	    0.531472	    0.408179	    0.460975	    0.183261	    0.137484	    0.129854	    0.488746	    0.329442	    0.448768	    1.311513	    0.896773	    0.857404	    1.608148	    1.178149	    1.150072
     8.250	0	0	    0	    0.891279	    0.798810	    0.809186	    1.730526	    1.172656	    1.702754	    0.539406	    0.409094	    0.468299	    0.184176	    0.139010	    0.128939	    0.489052	    0.330358	    0.449073	    1.306935	    0.897993	    0.852522	    1.610590	    1.185779	    1.150072
     8.305	0	0	    0	    0.894942	    0.793317	    0.811627	    1.736629	    1.175402	    1.704891	    0.534829	    0.412146	    0.463111	    0.185397	    0.139010	    0.130159	    0.491798	    0.332189	    0.449989	    1.318532	    0.904097	    0.861372	    1.614252	    1.184253	    1.157397
     8.360	0	0	    0	    0.895247	    0.800031	    0.814069	    1.733577	    1.171740	    1.710079	    0.537270	    0.414282	    0.470741	    0.185397	    0.139620	    0.129854	    0.490883	    0.331579	    0.450904	    1.309682	    0.899214	    0.855573	    1.608759	    1.188525	    1.159533
     8.415	0	0	    0	    0.896773	    0.804303	    0.817426	    1.739071	    1.167468	    1.710079	    0.541543	    0.414893	    0.467994	    0.186007	    0.140536	    0.130159	    0.494240	    0.333410	    0.453040	    1.330739	    0.907454	    0.868391	    1.623102	    1.195544	    1.159838
     8.470	0	0	    0	    0.897688	    0.804608	    0.820172	    1.741817	    1.176013	    1.716793	    0.687724	    0.567483	    0.631266	    0.188754	    0.143282	    0.134127	    0.523537	    0.370947	    0.498817	    1.453727	    1.041733	    1.016709	    1.677729	    1.255665	    1.227588
     8.525	0	0	    0	    0.904707	    0.806744	    0.819867	    1.752499	    1.180285	    1.720760	    0.711528	    0.587625	    0.647135	    0.189670	    0.144503	    0.134737	    0.563516	    0.405127	    0.527810	    1.502556	    1.084154	    1.039902	    1.700008	    1.277638	    1.245899
     8.580	0	0	    0	    0.906538	    0.811017	    0.822004	    1.748226	    1.185779	    1.725643	    0.718242	    0.590372	    0.648051	    0.190585	    0.144503	    0.135348	    0.569314	    0.408484	    0.528115	    1.506828	    1.089647	    1.049058	    1.714656	    1.282521	    1.250477
     8.635	0	0	    0	    0.906538	    0.813153	    0.829328	    1.758297	    1.190356	    1.736934	    0.714275	    0.586404	    0.652323	    0.190585	    0.145418	    0.136568	    0.572061	    0.410010	    0.531472	    1.525444	    1.096666	    1.062791	    1.717098	    1.289235	    1.254444
     8.690	0	0	    0	    0.899825	    0.806439	    0.819867	    1.762570	    1.189746	    1.732052	    0.709392	    0.589456	    0.644694	    0.189670	    0.144808	    0.135348	    0.573587	    0.410315	    0.531777	    1.504387	    1.085985	    1.051194	    1.706416	    1.280995	    1.247425
     8.745	0	0	    0	    0.895552	    0.798505	    0.814069	    1.743343	    1.176623	    1.714656	    0.712444	    0.584878	    0.649882	    0.187533	    0.142977	    0.132906	    0.563516	    0.404211	    0.520790	    1.489433	    1.075914	    1.039597	    1.691768	    1.265736	    1.235218
     8.800	0	0	    0	    0.891279	    0.795148	    0.809796	    1.734188	    1.175708	    1.710079	    0.708476	    0.582437	    0.639811	    0.186313	    0.142367	    0.131991	    0.561074	    0.403601	    0.522621	    1.486687	    1.074693	    1.039292	    1.689631	    1.263294	    1.229725
     8.855	0	0	    0	    0.889448	    0.797894	    0.808576	    1.740291	    1.174487	    1.703059	    0.717937	    0.582742	    0.639506	    0.186923	    0.142672	    0.132601	    0.564736	    0.401465	    0.518959	    1.490654	    1.072862	    1.035935	    1.692988	    1.264515	    1.232166
     8.910	0	0	    0	    0.889143	    0.796979	    0.811933	    1.736019	    1.174182	    1.704891	    0.712444	    0.583352	    0.650492	    0.187839	    0.142367	    0.133211	    0.562600	    0.405432	    0.519875	    1.495537	    1.078050	    1.038682	    1.694514	    1.266041	    1.233692
     8.965	0	0	    0	    0.892500	    0.798505	    0.811322	    1.737545	    1.179065	    1.705501	    0.711833	    0.582742	    0.644999	    0.188754	    0.142367	    0.134432	    0.566262	    0.404822	    0.521096	    1.495232	    1.082322	    1.049973	    1.690547	    1.267872	    1.233082
     9.020	0	0	    0	    0.896773	    0.798810	    0.810712	    1.737240	    1.176623	    1.714351	    0.719158	    0.582437	    0.648966	    0.188449	    0.143587	    0.134127	    0.565042	    0.407263	    0.525673	    1.503777	    1.088121	    1.049668	    1.698482	    1.269398	    1.237049
     9.075	0	0	    0	    0.899825	    0.800641	    0.818647	    1.744869	    1.176623	    1.716793	    0.721294	    0.595560	    0.654765	    0.189364	    0.144198	    0.133822	    0.569924	    0.405432	    0.529030	    1.514153	    1.093309	    1.043259	    1.704280	    1.275502	    1.239490
     9.130	0	0	    0	    0.899519	    0.803693	    0.815290	    1.749752	    1.184253	    1.720760	    0.622721	    0.467994	    0.511025	    0.190585	    0.143893	    0.134737	    0.572366	    0.408789	    0.530251	    1.505913	    1.046921	    0.977646	    1.704891	    1.261463	    1.214160
     9.185	0	0	    0	    0.896468	    0.803693	    0.818036	    1.752499	    1.181506	    1.721065	    0.548867	    0.420386	    0.485695	    0.187228	    0.141756	    0.133211	    0.502480	    0.337682	    0.457923	    1.342336	    0.919966	    0.887007	    1.637446	    1.212024	    1.178454
     9.240	0	0	    0	    0.902876	    0.807355	    0.817731	    1.750973	    1.184253	    1.729610	    0.556191	    0.424659	    0.476539	    0.188754	    0.141756	    0.133211	    0.500954	    0.340124	    0.461585	    1.349050	    0.924849	    0.886091	    1.643549	    1.205005	    1.180896
     9.295	0	0	    0	    0.904097	    0.811322	    0.822919	    1.761044	    1.181506	    1.725948	    0.551919	    0.422522	    0.483253	    0.188449	    0.142977	    0.132906	    0.503700	    0.339208	    0.460975	    1.353628	    0.927596	    0.889448	    1.647517	    1.216907	    1.180285
     9.350	0	0	    0	    0.895857	    0.796979	    0.812238	    1.748226	    1.179980	    1.717708	    0.547951	    0.420081	    0.477150	    0.187228	    0.141146	    0.131685	    0.499733	    0.340124	    0.457618	    1.345083	    0.917830	    0.876020	    1.628595	    1.201038	    1.168688
     9.405	0	0	    0	    0.890364	    0.793011	    0.807355	    1.734188	    1.173877	    1.704891	    0.543679	    0.417945	    0.474098	    0.185397	    0.139925	    0.130159	    0.495155	    0.334325	    0.452735	    1.329213	    0.908980	    0.868086	    1.619440	    1.192493	    1.158923
     9.460	0	0	    0	    0.888228	    0.789044	    0.803388	    1.732967	    1.168994	    1.702449	    0.546731	    0.413062	    0.468299	    0.183566	    0.139315	    0.130159	    0.493019	    0.333715	    0.451209	    1.312123	    0.910811	    0.867170	    1.607538	    1.188525	    1.156176
     9.515	0	0	    0	    0.889448	    0.792706	    0.804913	    1.729305	    1.165026	    1.698787	    0.546426	    0.416724	    0.471962	    0.185702	    0.139315	    0.130465	    0.492409	    0.331884	    0.451209	    1.320974	    0.908370	    0.864118	    1.611505	    1.185779	    1.156176
     9.570	0	0	    0	    0.887922	    0.792706	    0.807660	    1.736934	    1.171435	    1.699397	    0.541848	    0.414282	    0.478370	    0.187228	    0.141451	    0.132296	    0.496681	    0.333410	    0.449989	    1.327993	    0.912032	    0.868696	    1.621576	    1.194018	    1.159533
     9.625	0	0	    0	    0.890364	    0.791180	    0.808576	    1.739986	    1.172656	    1.701534	    0.547341	    0.415503	    0.476234	    0.187533	    0.142672	    0.132296	    0.497292	    0.336156	    0.452430	    1.329213	    0.903792	    0.874495	    1.620661	    1.194018	    1.164416
     9.680	0	0	    0	    0.895857	    0.796063	    0.811322	    1.739681	    1.173877	    1.715267	    0.551919	    0.418250	    0.483253	    0.190890	    0.143587	    0.134737	    0.497597	    0.334936	    0.454871	    1.342641	    0.919051	    0.877241	    1.628901	    1.199207	    1.168383
     9.735	0	0	    0	    0.897688	    0.796368	    0.811017	    1.743343	    1.179980	    1.709468	    0.556497	    0.420691	    0.478370	    0.192111	    0.145113	    0.135958	    0.498512	    0.337072	    0.456397	    1.348135	    0.921798	    0.879377	    1.635615	    1.205921	    1.172961
     9.790	0	0	    0	    0.898604	    0.800641	    0.814679	    1.747005	    1.181506	    1.718929	    0.555276	    0.420996	    0.480201	    0.193637	    0.146334	    0.136568	    0.501259	    0.338598	    0.459754	    1.352407	    0.926375	    0.887007	    1.642634	    1.209277	    1.176013
     9.845	0	0	    0	    0.901045	    0.802777	    0.816205	    1.750057	    1.182422	    1.721370	    0.555276	    0.422217	    0.476539	    0.193027	    0.147250	    0.136568	    0.504005	    0.339818	    0.461585	    1.348440	    0.933700	    0.884871	    1.641108	    1.213245	    1.179065
     9.900	0	0	    0	    0.903182	    0.802777	    0.820783	    1.752804	    1.183948	    1.727779	    0.559548	    0.421302	    0.481117	    0.192416	    0.146334	    0.135958	    0.504616	    0.339818	    0.461891	    1.354238	    0.928206	    0.884260	    1.639582	    1.212634	    1.179370
     9.955	0	0	    0	    0.905623	    0.809186	    0.821088	    1.759213	    1.183642	    1.732357	    0.555581	    0.426795	    0.482033	    0.194553	    0.145724	    0.136568	    0.505531	    0.339513	    0.464942	    1.363394	    0.935531	    0.893721	    1.653925	    1.218738	    1.181811
    10.010	0	0	    0	    0.894942	    0.797589	    0.807965	    1.756161	    1.185779	    1.719844	    0.556497	    0.419471	    0.480812	    0.193332	    0.145113	    0.135348	    0.502785	    0.338293	    0.459449	    1.341421	    0.930037	    0.883955	    1.636225	    1.202869	    1.167773
    10.065	0	0	    0	    0.891279	    0.792096	    0.806744	    1.740902	    1.169909	    1.706416	    0.549783	    0.419165	    0.479286	    0.190280	    0.143587	    0.134127	    0.498512	    0.334020	    0.456092	    1.332876	    0.913252	    0.881819	    1.621881	    1.198291	    1.164416
    10.120	0	0	    0	    0.890669	    0.787213	    0.803693	    1.739986	    1.168383	    1.701839	    0.554055	    0.422827	    0.478981	    0.190585	    0.143893	    0.134737	    0.497292	    0.334936	    0.453956	    1.335012	    0.914473	    0.867781	    1.628595	    1.196460	    1.161669
    10.175	0	0	    0	    0.893721	    0.793011	    0.804913	    1.739681	    1.171740	    1.703365	    0.558328	    0.417334	    0.476844	    0.191501	    0.143893	    0.134432	    0.496986	    0.332494	    0.452125	    1.350881	    0.913252	    0.877852	    1.622187	    1.192187	    1.161364
    10.230	0	0	    0	    0.891890	    0.792706	    0.803998	    1.741817	    1.169299	    1.700313	    0.553445	    0.419776	    0.475929	    0.192416	    0.144808	    0.135348	    0.497597	    0.333715	    0.453040	    1.340810	    0.917525	    0.875105	    1.624933	    1.195544	    1.157397
    10.285	0	0	    0	    0.891279	    0.792706	    0.806134	    1.739986	    1.174182	    1.705806	    0.550698	    0.416419	    0.478370	    0.192416	    0.144808	    0.135042	    0.496376	    0.334325	    0.453651	    1.333181	    0.922713	    0.883345	    1.622492	    1.198291	    1.165332
    10.340	0	0	    0	    0.896162	    0.797589	    0.809491	    1.739681	    1.171435	    1.709773	    0.722210	    0.594034	    0.654459	    0.194247	    0.148165	    0.138399	    0.531167	    0.376135	    0.504005	    1.482109	    1.066453	    1.033799	    1.682918	    1.254139	    1.227893
    10.395	0	0	    0	    0.900435	    0.801862	    0.814984	    1.747921	    1.175097	    1.714046	    0.742351	    0.608988	    0.663005	    0.197604	    0.149386	    0.139620	    0.571450	    0.404822	    0.529030	    1.539788	    1.107347	    1.078355	    1.712825	    1.269398	    1.242542
    10.450	0	0	    0	    0.897383	    0.798810	    0.814679	    1.752804	    1.177844	    1.706722	    0.558938	    0.429236	    0.481727	    0.195163	    0.147250	    0.136873	    0.535134	    0.359350	    0.471962	    1.379263	    0.938277	    0.889754	    1.648432	    1.205005	    1.173877
    10.505	0	0	    0	    0.899214	    0.803082	    0.815900	    1.750973	    1.181506	    1.714961	    0.558022	    0.424659	    0.483558	    0.195773	    0.146334	    0.137179	    0.504616	    0.338293	    0.458228	    1.363699	    0.936141	    0.897383	    1.644465	    1.214771	    1.183337
    10.560	0	0	    0	    0.901961	    0.804608	    0.817426	    1.747616	    1.183948	    1.725948	    0.561990	    0.428321	    0.483558	    0.194553	    0.146639	    0.136568	    0.501869	    0.340124	    0.462806	    1.362783	    0.930953	    0.893416	    1.653620	    1.215381	    1.183642
    10.615	0	0	    0	    0.896773	    0.797589	    0.808270	    1.754635	    1.178454	    1.716793	    0.559243	    0.421302	    0.484474	    0.193332	    0.145418	    0.134737	    0.503395	    0.339818	    0.461891	    1.359121	    0.930648	    0.880903	    1.634394	    1.207752	    1.168078
    10.670	0	0	    0	    0.891279	    0.791180	    0.802472	    1.743648	    1.168383	    1.702144	    0.553445	    0.422217	    0.476844	    0.190585	    0.143587	    0.132906	    0.501564	    0.334936	    0.454261	    1.341726	    0.926070	    0.879988	    1.631037	    1.198596	    1.163500
    10.725	0	0	    0	    0.885481	    0.789349	    0.800336	    1.740597	    1.171130	    1.699702	    0.544289	    0.418555	    0.474708	    0.191806	    0.142672	    0.133822	    0.495460	    0.333715	    0.452735	    1.342947	    0.917830	    0.885176	    1.627375	    1.193103	    1.165332
    10.780	0	0	    0	    0.892500	    0.790875	    0.800336	    1.729610	    1.167468	    1.699092	    0.557412	    0.419165	    0.481422	    0.190585	    0.143587	    0.133211	    0.496986	    0.331884	    0.453346	    1.346914	    0.915084	    0.870832	    1.627070	    1.194934	    1.164416
    10.835	0	0	    0	    0.895247	    0.793317	    0.807965	    1.739986	    1.169299	    1.700923	    0.708171	    0.582742	    0.645609	    0.193637	    0.146029	    0.135958	    0.518654	    0.366674	    0.494240	    1.479667	    1.061265	    1.031357	    1.683528	    1.256886	    1.225452
    10.890	0	0	    0	    0.894331	    0.793317	    0.809186	    1.744259	    1.171740	    1.699702	    0.736858	    0.607462	    0.667887	    0.195163	    0.146639	    0.137484	    0.567483	    0.407263	    0.521401	    1.535210	    1.107042	    1.062791	    1.709468	    1.275807	    1.241932
    10.945	0	0	    0	    0.894331	    0.793622	    0.807965	    1.743648	    1.176623	    1.706111	    0.736858	    0.574807	    0.607156	    0.195468	    0.147555	    0.137789	    0.575418	    0.409705	    0.527504	    1.541314	    1.106126	    1.074693	    1.710079	    1.275807	    1.241932
    11.000	0	0	    0	    0.896162	    0.796063	    0.810101	    1.743954	    1.172045	    1.708248	    0.558633	    0.428321	    0.484474	    0.192111	    0.145724	    0.135958	    0.514076	    0.344701	    0.460365	    1.353017	    0.936446	    0.891890	    1.634699	    1.205005	    1.174487
    11.055	0	0	    0	    0.899519	    0.799115	    0.813153	    1.743343	    1.173266	    1.711910	    0.559548	    0.427405	    0.483864	    0.192721	    0.144503	    0.135348	    0.502785	    0.337682	    0.458228	    1.353323	    0.930953	    0.892195	    1.644465	    1.210803	    1.174487
    11.110	0	0	    0	    0.897383	    0.800946	    0.815595	    1.745480	    1.176318	    1.710079	    0.558938	    0.427710	    0.479896	    0.193637	    0.145418	    0.135348	    0.502174	    0.338903	    0.460060	    1.371023	    0.941329	    0.896468	    1.651179	    1.216907	    1.179675
    11.165	0	0	    0	    0.900740	    0.803693	    0.817426	    1.754025	    1.181506	    1.716182	    0.561379	    0.429236	    0.487526	    0.192721	    0.145113	    0.136263	    0.506447	    0.341344	    0.460975	    1.373770	    0.946212	    0.898909	    1.652705	    1.222095	    1.184558
    11.220	0	0	    0	    0.898299	    0.796979	    0.810407	    1.748531	    1.178454	    1.715267	    0.561685	    0.427100	    0.486305	    0.192416	    0.143282	    0.133822	    0.504616	    0.339818	    0.459754	    1.359121	    0.930648	    0.883955	    1.648127	    1.207752	    1.172045
    11.275	0	0	    0	    0.892805	    0.787823	    0.803388	    1.734798	    1.167163	    1.697566	    0.559548	    0.420386	    0.475929	    0.189670	    0.142061	    0.132296	    0.497902	    0.335241	    0.453651	    1.356374	    0.927901	    0.889143	    1.637751	    1.200122	    1.164721
    11.330	0	0	    0	    0.888838	    0.788128	    0.803388	    1.730526	    1.164721	    1.695430	    0.556191	    0.419776	    0.479896	    0.188754	    0.141451	    0.132296	    0.497292	    0.333104	    0.452125	    1.346914	    0.918441	    0.879988	    1.631952	    1.198901	    1.163500
    11.385	0	0	    0	    0.888228	    0.789349	    0.802167	    1.733883	    1.167468	    1.699092	    0.557412	    0.423438	    0.483253	    0.188449	    0.141451	    0.131685	    0.497292	    0.332494	    0.452735	    1.356374	    0.928817	    0.889754	    1.631037	    1.198596	    1.165026
    11.440	0	0	    0	    0.890669	    0.790265	    0.801862	    1.731441	    1.163806	    1.699702	    0.551308	    0.421607	    0.480507	    0.189975	    0.142061	    0.132296	    0.497597	    0.333104	    0.452430	    1.349966	    0.926986	    0.890364	    1.635004	    1.201038	    1.168078
    11.495	0	0	    0	    0.891585	    0.795148	    0.805829	    1.735409	    1.161975	    1.699092	    0.669718	    0.548257	    0.618448	    0.190890	    0.143893	    0.133516	    0.497597	    0.332189	    0.452735	    1.375601	    0.982528	    0.972763	    1.645686	    1.223926	    1.200732
    11.550	0	0	    0	    0.891890	    0.797589	    0.811627	    1.739986	    1.168688	    1.699092	    0.733806	    0.601968	    0.666972	    0.193027	    0.145418	    0.135653	    0.565957	    0.400855	    0.525368	    1.528191	    1.112535	    1.073167	    1.709468	    1.280079	    1.243153
    11.605	0	0	    0	    0.898909	    0.798810	    0.812848	    1.740291	    1.172045	    1.703975	    0.738689	    0.561685	    0.587930	    0.193332	    0.145724	    0.135348	    0.572976	    0.410315	    0.530556	    1.551690	    1.122301	    1.088121	    1.718624	    1.283436	    1.251392
    11.660	0	0	    0	    0.896162	    0.796979	    0.811933	    1.734493	    1.173266	    1.701534	    0.558328	    0.425879	    0.485389	    0.190280	    0.143587	    0.133822	    0.515908	    0.342565	    0.457618	    1.361257	    0.937667	    0.898909	    1.645991	    1.211109	    1.179675
    11.715	0	0	    0	    0.900130	    0.802167	    0.815900	    1.744564	    1.173266	    1.708553	    0.562600	    0.423438	    0.485389	    0.190890	    0.143282	    0.133516	    0.503090	    0.337987	    0.460060	    1.369802	    0.944076	    0.892195	    1.651789	    1.212634	    1.176623
    11.770	0	0	    0	    0.901350	    0.802777	    0.819257	    1.749142	    1.176623	    1.712520	    0.562905	    0.431678	    0.489357	    0.190890	    0.144198	    0.134127	    0.503700	    0.340124	    0.462501	    1.377432	    0.939498	    0.902876	    1.657282	    1.218738	    1.182116
    11.825	0	0	    0	    0.901350	    0.798199	    0.814069	    1.749447	    1.178149	    1.718013	    0.568704	    0.428931	    0.483253	    0.190280	    0.142367	    0.134432	    0.505837	    0.340734	    0.462196	    1.367056	    0.948959	    0.902266	    1.658198	    1.223316	    1.183337
    11.880	0	0	    0	    0.897383	    0.794537	    0.806439	    1.746090	    1.172656	    1.709163	    0.558328	    0.422827	    0.480507	    0.188144	    0.141451	    0.131991	    0.505226	    0.336461	    0.460060	    1.356374	    0.931868	    0.896162	    1.645075	    1.203479	    1.172045
    11.935	0	0	    0	    0.888838	    0.791485	    0.804913	    1.733272	    1.167468	    1.695430	    0.556497	    0.424353	    0.482033	    0.187533	    0.140230	    0.130770	    0.496986	    0.333715	    0.454566	    1.348135	    0.928817	    0.884871	    1.629816	    1.201038	    1.165942
    11.990	0	0	    0	    0.888533	    0.787518	    0.803082	    1.727779	    1.165026	    1.686275	    0.554360	    0.420996	    0.478981	    0.186618	    0.139620	    0.130159	    0.496071	    0.334325	    0.451209	    1.346609	    0.926375	    0.885481	    1.628901	    1.197375	    1.164721
    12.045	0	0	    0	    0.891890	    0.790570	    0.804303	    1.731746	    1.164111	    1.689631	    0.673991	    0.555581	    0.625467	    0.187839	    0.141756	    0.132906	    0.497902	    0.334936	    0.453346	    1.392691	    0.997482	    0.983749	    1.650263	    1.229725	    1.206836
    12.100	0	0	    0	    0.895247	    0.791791	    0.807660	    1.730526	    1.167468	    1.700923	    0.737163	    0.601663	    0.663920	    0.189364	    0.143587	    0.132906	    0.564431	    0.401770	    0.523842	    1.524529	    1.103380	    1.068894	    1.703059	    1.269703	    1.238880
    12.155	0	0	    0	    0.894331	    0.797284	    0.807660	    1.735103	    1.166247	    1.696345	    0.742962	    0.612039	    0.666361	    0.189670	    0.143587	    0.133516	    0.571145	    0.409400	    0.528420	    1.538567	    1.109178	    1.073167	    1.705196	    1.273060	    1.238880
    12.210	0	0	    0	    0.898909	    0.797894	    0.810101	    1.735409	    1.167773	    1.701839	    0.745098	    0.609598	    0.675212	    0.191806	    0.144198	    0.134127	    0.575723	    0.408789	    0.527810	    1.530632	    1.111620	    1.076524	    1.711299	    1.277638	    1.242237
    12.265	0	0	    0	    0.897688	    0.799725	    0.811627	    1.740597	    1.172045	    1.704280	    0.741131	    0.606546	    0.668498	    0.190585	    0.144503	    0.134432	    0.576333	    0.409094	    0.531472	    1.537957	    1.125658	    1.083848	    1.712215	    1.281605	    1.243763
    12.320	0	0	    0	    0.900740	    0.803998	    0.813153	    1.741512	    1.172045	    1.711299	    0.747234	    0.609598	    0.671855	    0.192416	    0.144198	    0.135958	    0.575113	    0.410620	    0.533913	    1.550469	    1.120165	    1.083543	    1.720455	    1.278859	    1.248951
    12.375	0	0	    0	    0.902876	    0.804913	    0.818341	    1.738460	    1.176013	    1.711299	    0.744793	    0.616007	    0.672160	    0.192416	    0.143893	    0.135042	    0.575113	    0.410925	    0.535744	    1.550469	    1.122301	    1.085069	    1.723507	    1.287404	    1.251698
    12.430	0	0	    0	    0.906538	    0.808270	    0.821698	    1.750973	    1.176013	    1.714961	    0.750896	    0.616922	    0.681010	    0.192111	    0.144808	    0.136568	    0.581216	    0.413062	    0.536355	    1.552911	    1.129015	    1.086595	    1.732662	    1.292897	    1.259022
    12.485	0	0	    0	    0.903792	    0.800641	    0.816205	    1.751583	    1.183337	    1.718013	    0.744793	    0.602884	    0.667887	    0.191806	    0.145113	    0.135653	    0.579690	    0.415808	    0.536049	    1.552911	    1.122606	    1.087205	    1.721065	    1.292592	    1.253223
    12.540	0	0	    0	    0.896162	    0.794232	    0.809796	    1.741817	    1.170520	    1.704891	    0.735027	    0.597391	    0.659953	    0.189364	    0.142977	    0.133516	    0.573892	    0.408789	    0.529641	    1.534295	    1.105821	    1.073472	    1.700618	    1.270008	    1.241932
    12.595	0	0	    0	    0.893111	    0.792401	    0.804303	    1.727474	    1.161364	    1.695430	    0.741436	    0.600137	    0.666056	    0.188754	    0.142061	    0.132296	    0.570230	    0.405127	    0.525978	    1.517205	    1.110399	    1.064622	    1.698177	    1.269398	    1.232776
    12.650	0	0	    0	    0.892195	    0.793317	    0.804303	    1.731136	    1.164416	    1.689937	    0.731975	    0.603799	    0.661479	    0.189059	    0.141756	    0.132601	    0.569619	    0.404211	    0.524758	    1.523003	    1.103380	    1.063706	    1.699092	    1.264515	    1.231556
    12.705	0	0	    0	    0.892805	    0.793927	    0.807660	    1.729305	    1.165026	    1.689631	    0.733806	    0.604715	    0.664530	    0.189059	    0.142061	    0.133516	    0.568704	    0.407263	    0.524758	    1.527581	    1.099107	    1.067369	    1.700923	    1.266957	    1.237964
    12.760	0	0	    0	    0.896162	    0.794537	    0.806439	    1.725338	    1.166857	    1.689937	    0.746624	    0.603494	    0.664225	    0.189059	    0.141756	    0.133516	    0.568399	    0.406958	    0.527199	    1.528191	    1.109178	    1.073472	    1.705501	    1.268177	    1.237049
    12.815	0	0	    0	    0.897383	    0.797589	    0.808270	    1.731441	    1.164416	    1.692988	    0.747539	    0.607156	    0.669108	    0.189364	    0.141756	    0.132601	    0.569009	    0.408484	    0.528420	    1.535515	    1.112535	    1.077745	    1.702144	    1.265126	    1.235828
    12.870	0	0	    0	    0.895552	    0.797894	    0.812848	    1.736934	    1.168994	    1.698482	    0.738994	    0.612955	    0.673686	    0.189364	    0.142672	    0.133211	    0.572671	    0.409705	    0.528115	    1.534295	    1.116808	    1.074998	    1.703059	    1.273976	    1.237659
    12.925	0	0	    0	    0.898909	    0.801251	    0.815290	    1.734188	    1.166857	    1.702754	    0.741436	    0.612955	    0.673381	    0.190280	    0.142672	    0.132906	    0.573281	    0.409094	    0.529335	    1.533379	    1.114977	    1.085679	    1.700923	    1.270619	    1.242542
    12.980	0	0	    0	    0.904402	    0.804913	    0.814069	    1.738766	    1.172045	    1.707942	    0.748150	    0.609293	    0.671855	    0.190280	    0.143282	    0.134127	    0.573892	    0.409094	    0.531472	    1.542229	    1.119860	    1.082322	    1.713436	    1.278553	    1.249561
    13.035	0	0	    0	    0.903792	    0.807660	    0.818647	    1.741207	    1.171435	    1.708858	    0.747845	    0.615396	    0.671855	    0.189670	    0.143587	    0.133822	    0.576028	    0.410010	    0.535134	    1.556573	    1.121386	    1.089036	    1.719844	    1.282826	    1.253529
    13.090	0	0	    0	    0.903182	    0.808576	    0.819562	    1.747311	    1.179370	    1.712520	    0.742046	    0.620584	    0.680400	    0.190585	    0.144198	    0.134432	    0.578470	    0.414893	    0.531777	    1.553216	    1.136339	    1.092699	    1.725338	    1.291066	    1.255970
    13.145	0	0	    0	    0.895857	    0.799115	    0.811322	    1.746090	    1.176318	    1.705806	    0.752728	    0.616312	    0.672160	    0.189670	    0.142672	    0.134127	    0.575723	    0.411231	    0.532082	    1.544671	    1.117418	    1.077440	    1.710384	    1.269398	    1.244678
    13.200	0	0	    0	    0.889754	    0.794842	    0.805829	    1.723201	    1.163195	    1.699092	    0.744793	    0.615702	    0.664836	    0.187228	    0.141451	    0.132906	    0.568399	    0.406653	    0.526284	    1.529107	    1.113451	    1.069200	    1.697871	    1.265736	    1.233692
    13.255	0	0	    0	    0.890974	    0.791485	    0.805524	    1.726253	    1.162280	    1.688411	    0.744793	    0.609293	    0.666667	    0.186923	    0.141146	    0.131685	    0.569619	    0.405127	    0.523842	    1.534295	    1.107958	    1.067674	    1.697871	    1.264210	    1.230030
    13.310	0	0	    0	    0.890669	    0.791791	    0.807050	    1.722896	    1.163195	    1.690852	    0.742046	    0.615091	    0.672465	    0.187533	    0.140841	    0.131380	    0.568093	    0.406043	    0.525063	    1.521782	    1.109789	    1.064622	    1.700618	    1.263905	    1.230640
    13.365	0	0	    0	    0.892805	    0.792706	    0.803693	    1.721370	    1.164721	    1.691463	    0.742657	    0.611124	    0.668193	    0.188754	    0.142061	    0.131685	    0.564736	    0.406348	    0.526589	    1.526665	    1.110704	    1.066758	    1.699397	    1.268482	    1.235523
    13.420	0	0	    0	    0.890364	    0.794537	    0.806744	    1.727779	    1.163500	    1.695430	    0.738079	    0.615091	    0.662394	    0.187839	    0.141451	    0.131991	    0.566873	    0.405432	    0.526894	    1.522698	    1.111009	    1.072862	    1.702754	    1.264515	    1.233692
    13.475	0	0	    0	    0.895552	    0.799420	    0.808576	    1.728695	    1.165637	    1.694514	    0.747234	    0.610513	    0.670939	    0.188144	    0.141451	    0.132601	    0.568399	    0.406348	    0.526284	    1.530938	    1.106432	    1.070115	    1.703059	    1.269703	    1.236439
    13.530	0	0	    0	    0.896773	    0.801556	    0.815290	    1.734798	    1.166552	    1.697261	    0.748760	    0.615702	    0.674907	    0.188449	    0.142367	    0.133822	    0.572366	    0.409094	    0.525978	    1.535515	    1.122911	    1.076219	    1.703975	    1.275196	    1.240101
    13.585	0	0	    0	    0.899519	    0.802777	    0.816510	    1.736629	    1.171740	    1.701228	    0.743267	    0.608988	    0.675517	    0.189059	    0.142672	    0.133822	    0.572976	    0.409705	    0.529335	    1.539483	    1.121080	    1.078355	    1.713130	    1.279469	    1.245289
    13.640	0	0	    0	    0.903182	    0.800946	    0.818036	    1.736629	    1.176928	    1.710384	    0.757000	    0.611124	    0.674601	    0.189670	    0.143282	    0.133211	    0.572671	    0.411841	    0.531777	    1.536431	    1.117418	    1.084459	    1.712520	    1.281605	    1.247730
    13.695	0	0	    0	    0.906538	    0.807355	    0.819867	    1.739986	    1.170825	    1.713436	    0.743267	    0.612345	    0.677043	    0.190280	    0.143893	    0.133516	    0.574807	    0.408789	    0.533608	    1.539483	    1.136339	    1.083238	    1.716182	    1.285573	    1.248646
    13.750	0	0	    0	    0.905013	    0.809796	    0.822919	    1.745480	    1.175097	    1.714961	    0.748150	    0.616922	    0.676127	    0.190890	    0.143587	    0.134432	    0.576333	    0.411841	    0.535439	    1.560845	    1.132677	    1.085069	    1.732052	    1.293202	    1.256580
    13.805	0	0	    0	    0.907759	    0.808881	    0.822614	    1.751278	    1.180285	    1.720455	    0.749065	    0.617227	    0.681315	    0.190280	    0.144503	    0.134737	    0.579690	    0.414588	    0.536049	    1.554742	    1.130846	    1.094835	    1.725643	    1.290455	    1.259632
    13.860	0	0	    0	    0.899519	    0.800641	    0.812238	    1.736629	    1.179065	    1.712215	    0.747234	    0.608988	    0.675212	    0.189364	    0.142672	    0.134432	    0.572366	    0.411841	    0.533608	    1.529717	    1.111620	    1.078965	    1.714351	    1.273671	    1.243763
    13.915	0	0	    0	    0.890059	    0.795453	    0.807050	    1.728389	    1.165332	    1.695735	    0.739300	    0.612650	    0.670024	    0.187533	    0.140536	    0.131380	    0.565652	    0.407263	    0.525673	    1.523003	    1.103075	    1.068284	    1.703059	    1.265736	    1.232776
    13.970	0	0	    0	    0.887312	    0.792096	    0.803693	    1.721065	    1.161975	    1.689326	    0.738384	    0.613565	    0.666056	    0.186618	    0.140536	    0.130465	    0.566262	    0.404517	    0.523537	    1.526055	    1.104906	    1.068284	    1.699702	    1.264210	    1.227283
    14.025	0	0	    0	    0.885481	    0.791485	    0.805829	    1.719844	    1.161364	    1.687190	    0.734722	    0.603799	    0.667887	    0.186007	    0.139925	    0.130465	    0.565042	    0.402686	    0.522316	    1.513237	    1.096361	    1.061570	    1.688106	    1.255665	    1.222400
    14.080	0	0	    0	    0.891279	    0.791791	    0.807050	    1.720150	    1.158007	    1.689326	    0.740215	    0.606241	    0.666667	    0.186007	    0.139925	    0.131075	    0.564736	    0.403296	    0.520790	    1.512627	    1.105211	    1.060655	    1.691157	    1.257801	    1.225757
    14.135	0	0	    0	    0.889754	    0.793927	    0.803082	    1.724117	    1.159228	    1.689326	    0.736248	    0.608988	    0.666972	    0.186923	    0.140536	    0.131075	    0.563516	    0.404517	    0.522927	    1.512322	    1.102159	    1.061875	    1.692683	    1.261158	    1.222705
    14.190	0	0	    0	    0.891890	    0.792401	    0.808270	    1.726253	    1.162585	    1.689021	    0.741741	    0.606546	    0.669718	    0.186313	    0.140841	    0.131075	    0.563821	    0.404822	    0.523232	    1.519036	    1.107042	    1.062181	    1.696040	    1.260853	    1.228504
    14.245	0	0	    0	    0.893721	    0.798199	    0.811017	    1.725338	    1.161364	    1.686275	    0.738384	    0.614176	    0.673686	    0.186618	    0.140536	    0.132296	    0.565652	    0.405127	    0.524453	    1.516594	    1.116197	    1.064622	    1.696040	    1.266041	    1.233082
    14.300	0	0	    0	    0.896468	    0.800336	    0.811933	    1.724422	    1.165026	    1.696040	    0.748760	    0.610819	    0.666972	    0.186313	    0.140841	    0.132906	    0.567178	    0.406958	    0.526589	    1.528801	    1.114061	    1.068589	    1.704280	    1.266041	    1.233387
    14.355	0	0	    0	    0.900435	    0.801556	    0.815290	    1.729305	    1.167163	    1.703059	    0.746014	    0.612345	    0.673381	    0.187533	    0.141756	    0.132296	    0.568704	    0.407568	    0.529335	    1.537652	    1.116503	    1.071336	    1.710689	    1.269398	    1.241016
    14.410	0	0	    0	    0.901045	    0.803388	    0.819867	    1.729915	    1.168994	    1.700618	    0.750286	    0.617838	    0.668803	    0.187839	    0.142061	    0.133211	    0.568704	    0.407874	    0.528420	    1.538262	    1.114061	    1.074998	    1.712520	    1.275502	    1.241932
    14.465	0	0	    0	    0.904707	    0.805219	    0.820783	    1.735714	    1.168383	    1.704585	    0.745098	    0.616312	    0.677348	    0.188449	    0.142977	    0.133516	    0.574807	    0.410315	    0.529946	    1.536736	    1.124132	    1.078660	    1.713436	    1.278248	    1.251392
    14.520	0	0	    0	    0.905318	    0.807050	    0.823529	    1.739071	    1.177539	    1.714656	    0.750286	    0.616312	    0.677958	    0.188144	    0.142367	    0.133822	    0.572671	    0.412451	    0.532998	    1.534905	    1.124132	    1.082322	    1.714046	    1.280385	    1.250782
    14.575	0	0	    0	    0.908064	    0.811017	    0.825055	    1.746395	    1.177539	    1.718318	    0.750591	    0.620279	    0.679179	    0.189059	    0.142977	    0.135042	    0.576333	    0.413062	    0.535134	    1.553826	    1.127489	    1.082628	    1.724117	    1.291066	    1.250782
    14.630	0	0	    0	    0.895247	    0.801862	    0.818036	    1.746700	    1.172351	    1.710994	    0.739605	    0.612650	    0.674601	    0.188144	    0.142367	    0.132296	    0.575113	    0.409400	    0.531472	    1.527276	    1.114366	    1.072251	    1.714656	    1.274891	    1.236439
    14.685	0	0	    0	    0.889754	    0.796063	    0.808270	    1.724727	    1.166857	    1.692988	    0.739910	    0.606546	    0.669718	    0.186007	    0.140841	    0.131685	    0.568704	    0.407263	    0.524147	    1.524224	    1.106432	    1.060044	    1.696345	    1.263905	    1.229114
    14.740	0	0	    0	    0.889448	    0.789654	    0.803082	    1.714351	    1.162280	    1.688106	    0.740215	    0.603799	    0.663005	    0.184787	    0.139010	    0.130770	    0.560464	    0.403601	    0.520790	    1.501640	    1.094530	    1.057603	    1.679255	    1.253529	    1.217517
    14.795	0	0	    0	    0.886702	    0.789654	    0.806134	    1.716793	    1.158007	    1.687190	    0.736553	    0.602579	    0.664530	    0.185092	    0.139620	    0.129549	    0.562295	    0.402380	    0.519265	    1.504692	    1.096666	    1.054856	    1.680171	    1.252613	    1.215076
    14.850	0	0	    0	    0.886091	    0.794537	    0.809491	    1.715877	    1.158923	    1.685054	    0.736248	    0.601968	    0.666361	    0.185092	    0.141146	    0.129549	    0.560769	    0.402686	    0.521401	    1.500420	    1.103380	    1.059129	    1.678340	    1.256580	    1.212634
    14.905	0	0	    0	    0.886091	    0.792706	    0.804303	    1.713436	    1.156176	    1.686580	    0.734417	    0.601663	    0.663005	    0.185397	    0.140536	    0.130159	    0.561990	    0.403296	    0.520790	    1.508659	    1.095445	    1.053941	    1.679255	    1.248035	    1.214771
    14.960	0	0	    0	    0.887922	    0.794842	    0.804913	    1.718624	    1.161669	    1.689021	    0.734722	    0.594949	    0.659953	    0.185092	    0.140230	    0.130159	    0.562295	    0.401770	    0.520790	    1.509880	    1.091173	    1.056077	    1.679561	    1.247730	    1.216907
    15.015	0	0	    0	    0.894026	    0.798505	    0.810712	    1.712825	    1.161669	    1.689631	    0.731975	    0.604715	    0.652323	    0.186313	    0.139620	    0.130770	    0.565042	    0.402991	    0.521706	    1.512627	    1.088121	    1.055772	    1.681697	    1.247425	    1.218433
    15.070	0	0	    0	    0.894636	    0.797894	    0.815900	    1.718624	    1.163500	    1.691768	    0.728313	    0.601968	    0.661173	    0.186618	    0.140230	    0.131380	    0.566567	    0.404822	    0.524147	    1.512322	    1.095445	    1.058213	    1.689631	    1.255360	    1.220569
    15.125	0	0	    0	    0.897993	    0.803693	    0.815595	    1.725643	    1.168078	    1.695125	    0.731365	    0.598001	    0.665446	    0.187228	    0.141451	    0.131991	    0.567483	    0.406653	    0.524758	    1.516289	    1.104601	    1.053330	    1.691463	    1.258717	    1.223621
    15.180	0	0	    0	    0.900130	    0.802472	    0.817731	    1.729000	    1.167468	    1.692683	    0.732891	    0.595560	    0.663920	    0.187228	    0.141756	    0.131991	    0.566873	    0.407568	    0.527199	    1.519951	    1.103990	    1.063096	    1.689631	    1.261769	    1.230335
    15.235	0	0	    0	    0.901045	    0.807965	    0.819257	    1.729305	    1.165942	    1.704585	    0.733501	    0.602274	    0.660563	    0.187533	    0.142367	    0.132906	    0.570840	    0.407568	    0.529030	    1.519036	    1.096056	    1.064012	    1.698177	    1.266346	    1.233387
    15.290	0	0	    0	    0.901045	    0.810101	    0.825055	    1.737240	    1.169299	    1.705196	    0.730755	    0.602884	    0.662699	    0.186923	    0.142367	    0.132601	    0.570535	    0.409400	    0.530251	    1.529107	    1.106432	    1.064012	    1.710384	    1.274281	    1.236133
    15.345	0	0	    0	    0.907454	    0.811627	    0.828412	    1.740291	    1.174182	    1.710689	    0.732891	    0.605020	    0.666361	    0.188449	    0.142977	    0.132906	    0.572671	    0.411841	    0.531472	    1.532769	    1.106737	    1.069505	    1.711299	    1.275502	    1.243763
    15.400	0	0	    0	    0.904707	    0.811017	    0.825055	    1.745174	    1.177539	    1.718624	    0.740215	    0.594339	    0.661479	    0.188144	    0.142061	    0.133822	    0.575113	    0.413062	    0.534524	    1.522698	    1.108873	    1.072251	    1.712520	    1.275807	    1.241321
    15.455	0	0	    0	    0.894636	    0.801862	    0.814374	    1.735409	    1.168994	    1.705501	    0.731975	    0.589151	    0.653849	    0.185702	    0.140230	    0.131075	    0.568399	    0.406653	    0.528420	    1.504997	    1.087816	    1.046311	    1.694514	    1.256580	    1.218738
    15.510	0	0	    0	    0.885481	    0.799420	    0.811627	    1.721370	    1.162890	    1.691463	    0.717327	    0.594339	    0.656901	    0.184482	    0.140230	    0.130465	    0.563821	    0.402380	    0.521401	    1.502251	    1.089036	    1.039597	    1.684443	    1.250172	    1.210803
    15.565	0	0	    0	    0.887312	    0.793317	    0.809796	    1.719234	    1.163195	    1.683223	    0.728313	    0.594034	    0.649271	    0.184482	    0.139315	    0.130159	    0.561685	    0.404211	    0.519570	    1.491264	    1.081102	    1.035935	    1.672236	    1.248341	    1.209583
    15.620	0	0	    0	    0.886091	    0.793622	    0.807050	    1.714961	    1.161975	    1.685054	    0.715190	    0.591592	    0.643473	    0.183566	    0.139620	    0.129854	    0.563516	    0.402075	    0.520485	    1.483635	    1.081407	    1.036851	    1.673152	    1.247730	    1.215381
    15.675	0	0	    0	    0.887617	    0.795453	    0.808881	    1.718013	    1.158923	    1.693599	    0.723735	    0.588846	    0.645914	    0.184482	    0.139620	    0.129549	    0.563210	    0.401160	    0.520180	    1.494011	    1.080186	    1.040818	    1.678950	    1.248341	    1.207446
    15.730	0	0	    0	    0.889448	    0.798199	    0.811322	    1.718624	    1.161059	    1.689937	    0.728008	    0.597391	    0.648966	    0.185397	    0.139925	    0.131075	    0.563821	    0.403906	    0.520485	    1.494926	    1.078660	    1.035935	    1.680781	    1.248646	    1.214771
    15.785	0	0	    0	    0.893416	    0.798199	    0.814679	    1.718624	    1.161669	    1.689021	    0.718853	    0.595560	    0.655070	    0.184482	    0.140230	    0.130465	    0.563821	    0.404211	    0.522316	    1.501030	    1.086290	    1.045396	    1.686580	    1.251087	    1.216602
    15.840	0	0	    0	    0.895857	    0.800031	    0.817731	    1.716793	    1.166247	    1.690242	    0.726787	    0.590677	    0.652018	    0.186007	    0.140230	    0.131075	    0.565652	    0.405737	    0.524147	    1.504082	    1.087205	    1.046616	    1.689937	    1.260243	    1.224231
    15.895	0	0	    0	    0.898604	    0.804913	    0.817121	    1.727169	    1.165332	    1.699092	    0.732586	    0.595865	    0.659037	    0.186618	    0.141146	    0.130770	    0.569009	    0.407568	    0.527199	    1.513237	    1.096056	    1.053025	    1.694209	    1.255665	    1.223316
    15.950	0	0	    0	    0.898909	    0.807050	    0.822919	    1.730220	    1.167773	    1.696651	    0.723735	    0.598917	    0.658427	    0.187228	    0.141451	    0.132601	    0.569314	    0.406653	    0.526894	    1.515679	    1.094224	    1.056382	    1.699397	    1.267262	    1.227588
    16.005	0	0	    0	    0.900130	    0.807355	    0.822614	    1.737545	    1.173877	    1.702754	    0.730755	    0.602579	    0.660563	    0.186313	    0.141756	    0.132601	    0.571756	    0.409094	    0.530251	    1.514458	    1.097581	    1.055161	    1.702449	    1.269093	    1.238270
    16.060	0	0	    0	    0.899825	    0.810101	    0.827497	    1.730831	    1.177234	    1.716487	    0.726787	    0.593423	    0.654154	    0.187228	    0.142061	    0.132601	    0.572671	    0.412146	    0.533608	    1.518120	    1.104906	    1.063401	    1.706722	    1.272145	    1.242542
    16.115	0	0	    0	    0.905623	    0.814679	    0.828717	    1.742733	    1.177539	    1.719539	    0.735027	    0.597086	    0.659037	    0.187839	    0.142672	    0.133516	    0.573892	    0.412451	    0.536355	    1.523003	    1.103380	    1.064317	    1.709773	    1.277028	    1.244678
    16.170	0	0	    0	    0.907149	    0.815595	    0.832990	    1.747311	    1.180285	    1.722286	    0.736248	    0.597696	    0.662089	    0.188449	    0.143282	    0.134432	    0.579080	    0.414588	    0.536965	    1.535515	    1.111315	    1.071336	    1.714961	    1.282216	    1.247730
    16.225	0	0	    0	    0.898299	    0.805829	    0.820783	    1.746395	    1.183032	    1.718929	    0.725566	    0.595254	    0.654459	    0.186007	    0.141756	    0.133516	    0.573587	    0.411841	    0.532998	    1.503166	    1.096666	    1.054551	    1.698482	    1.269398	    1.231556
    16.280	0	0	    0	    0.892805	    0.799115	    0.817426	    1.725948	    1.169909	    1.703365	    0.717937	    0.593118	    0.656291	    0.185397	    0.139620	    0.130770	    0.567178	    0.406348	    0.526894	    1.499809	    1.088121	    1.052720	    1.689021	    1.257801	    1.227283
    16.335	0	0	    0	    0.893111	    0.799725	    0.814679	    1.725338	    1.166857	    1.698787	    0.724956	    0.588540	    0.649271	    0.184787	    0.140230	    0.130770	    0.566873	    0.406348	    0.524453	    1.501640	    1.078660	    1.043565	    1.688411	    1.255360	    1.214160
    16.390	0	0	    0	    0.890364	    0.801862	    0.812238	    1.723507	    1.164416	    1.694820	    0.716411	    0.589456	    0.652323	    0.184787	    0.140841	    0.130770	    0.565957	    0.403906	    0.523842	    1.493095	    1.077134	    1.044175	    1.680476	    1.255970	    1.220569
    16.445	0	0	    0	    0.889754	    0.800641	    0.814069	    1.727169	    1.163195	    1.696956	    0.717632	    0.594034	    0.650797	    0.184787	    0.139620	    0.131075	    0.566873	    0.406958	    0.523537	    1.497368	    1.089647	    1.051499	    1.687800	    1.256580	    1.223621
    16.500	0	0	    0	    0.891890	    0.801862	    0.812848	    1.726253	    1.164721	    1.698787	    0.717632	    0.589456	    0.651102	    0.184787	    0.140536	    0.131075	    0.569009	    0.406653	    0.525673	    1.498283	    1.086595	    1.045701	    1.688106	    1.250782	    1.223316
    16.555	0	0	    0	    0.896468	    0.805219	    0.818952	    1.729000	    1.168383	    1.702754	    0.725566	    0.593423	    0.650797	    0.186313	    0.140536	    0.131991	    0.567483	    0.409094	    0.528725	    1.502556	    1.085069	    1.047532	    1.689937	    1.256886	    1.225452
    16.610	0	0	    0	    0.899519	    0.804913	    0.823835	    1.732357	    1.171740	    1.694820	    0.719463	    0.594949	    0.659648	    0.186007	    0.141146	    0.131685	    0.572976	    0.410620	    0.528420	    1.518120	    1.090867	    1.052720	    1.701534	    1.262379	    1.231556
    16.665	0	0	    0	    0.899825	    0.807965	    0.827802	    1.736629	    1.174487	    1.705501	    0.729229	    0.596475	    0.660563	    0.186007	    0.141451	    0.131380	    0.574807	    0.411536	    0.533303	    1.516594	    1.104295	    1.060044	    1.702449	    1.269093	    1.233387
    16.720	0	0	    0	    0.902571	    0.812238	    0.830243	    1.737240	    1.177844	    1.713130	    0.735637	    0.598917	    0.661173	    0.186618	    0.142367	    0.133211	    0.573281	    0.412451	    0.533608	    1.513237	    1.094224	    1.069200	    1.699702	    1.269398	    1.237964
    16.775	0	0	    0	    0.905623	    0.817426	    0.828717	    1.739681	    1.176318	    1.717098	    0.728618	    0.607767	    0.657206	    0.188144	    0.142672	    0.132906	    0.576333	    0.413367	    0.534218	    1.526360	    1.111315	    1.063401	    1.711604	    1.273060	    1.238575
    16.830	0	0	    0	    0.903792	    0.818647	    0.834821	    1.748836	    1.181201	    1.721675	    0.734417	    0.601663	    0.666361	    0.187228	    0.142977	    0.133822	    0.576333	    0.414282	    0.536049	    1.530022	    1.112230	    1.067369	    1.716487	    1.280690	    1.245289
    16.885	0	0	    0	    0.906538	    0.817426	    0.833906	    1.750057	    1.186389	    1.725338	    0.730449	    0.602884	    0.659342	    0.186923	    0.142672	    0.133516	    0.578470	    0.417029	    0.537270	    1.529412	    1.108873	    1.072251	    1.715572	    1.280385	    1.246509
    16.940	0	0	    0	    0.900435	    0.808576	    0.821088	    1.735714	    1.180285	    1.718318	    0.726787	    0.599832	    0.652323	    0.186007	    0.141756	    0.131380	    0.572976	    0.411841	    0.533303	    1.512627	    1.093919	    1.051804	    1.695735	    1.266041	    1.232166
    16.995	0	0	    0	    0.892195	    0.804608	    0.820783	    1.724727	    1.170825	    1.703059	    0.717327	    0.591287	    0.651713	    0.185397	    0.139925	    0.130465	    0.567178	    0.409400	    0.528725	    1.509270	    1.084459	    1.039902	    1.689631	    1.252918	    1.221790
    17.050	0	0	    0	    0.892805	    0.803082	    0.820478	    1.730526	    1.171435	    1.696651	    0.716411	    0.594034	    0.651102	    0.185092	    0.139620	    0.130159	    0.568704	    0.408179	    0.525978	    1.513848	    1.079881	    1.043565	    1.685054	    1.256275	    1.217823
    17.105	0	0	    0	    0.891890	    0.804608	    0.817731	    1.728084	    1.169604	    1.699092	    0.720989	    0.594339	    0.653544	    0.183871	    0.140230	    0.130159	    0.567788	    0.408179	    0.525978	    1.505608	    1.088731	    1.053635	    1.689631	    1.262074	    1.216602
    17.160	0	0	    0	    0.895552	    0.803693	    0.819257	    1.726864	    1.165942	    1.704585	    0.725261	    0.595560	    0.651408	    0.184176	    0.140230	    0.130465	    0.568093	    0.407263	    0.529946	    1.499504	    1.089036	    1.041733	    1.687495	    1.258717	    1.220874
    17.215	0	0	    0	    0.891585	    0.805829	    0.822309	    1.726558	    1.168994	    1.700923	    0.720684	    0.597086	    0.656596	    0.184176	    0.140230	    0.130770	    0.568399	    0.408179	    0.529030	    1.503777	    1.089952	    1.047532	    1.687800	    1.258412	    1.221180
    17.270	0	0	    0	    0.893416	    0.809491	    0.825360	    1.732662	    1.167163	    1.703975	    0.726177	    0.595865	    0.661173	    0.185092	    0.141146	    0.131685	    0.571145	    0.409705	    0.530861	    1.512932	    1.089342	    1.053025	    1.696651	    1.262989	    1.227588
    17.325	0	0	    0	    0.900130	    0.811627	    0.828717	    1.730526	    1.176623	    1.707332	    0.728923	    0.601663	    0.657816	    0.185702	    0.141146	    0.132296	    0.570840	    0.410315	    0.533608	    1.512932	    1.094530	    1.064317	    1.699397	    1.271534	    1.237964
    17.380	0	0	    0	    0.902571	    0.810101	    0.830854	    1.731136	    1.178759	    1.711299	    0.731670	    0.601968	    0.664836	    0.186618	    0.142061	    0.132906	    0.572976	    0.414893	    0.532692	    1.519646	    1.100023	    1.059434	    1.712825	    1.273365	    1.238575
    17.435	0	0	    0	    0.902266	    0.813153	    0.833295	    1.743038	    1.179370	    1.723507	    0.734417	    0.601358	    0.663920	    0.186618	    0.142061	    0.132601	    0.575418	    0.414282	    0.536660	    1.528191	    1.101549	    1.068894	    1.706722	    1.277943	    1.241932
    17.490	0	0	    0	    0.906844	    0.821393	    0.836957	    1.745174	    1.184558	    1.725643	    0.728008	    0.610208	    0.667277	    0.188449	    0.142367	    0.133211	    0.576944	    0.417639	    0.539101	    1.531243	    1.107347	    1.060655	    1.718624	    1.284352	    1.245899
    17.545	0	0	    0	    0.910811	    0.822309	    0.838178	    1.751278	    1.183948	    1.731746	    0.731060	    0.607156	    0.663920	    0.186923	    0.143282	    0.134737	    0.581827	    0.415503	    0.538491	    1.529412	    1.114977	    1.085679	    1.719234	    1.290455	    1.257191
    17.600	0	0	    0	    0.914168	    0.825360	    0.840314	    1.753109	    1.188830	    1.741817	    0.737163	    0.602274	    0.666972	    0.188144	    0.142977	    0.134432	    0.580911	    0.419776	    0.542458	    1.546197	    1.122911	    1.085985	    1.728389	    1.294118	    1.264515
    17.655	0	0	    0	    0.908064	    0.822614	    0.839094	    1.757992	    1.194324	    1.738460	    0.738384	    0.601358	    0.665446	    0.187839	    0.143282	    0.133211	    0.579385	    0.420386	    0.542458	    1.530022	    1.112535	    1.070726	    1.721370	    1.283436	    1.252003
    17.710	0	0	    0	    0.896162	    0.809186	    0.823835	    1.741817	    1.182727	    1.720455	    0.721294	    0.603189	    0.661479	    0.186313	    0.140536	    0.131685	    0.575113	    0.413367	    0.534524	    1.521782	    1.098192	    1.052415	    1.702754	    1.271229	    1.235218
    17.765	0	0	    0	    0.889448	    0.801556	    0.821393	    1.735714	    1.178759	    1.710079	    0.722820	    0.595865	    0.656596	    0.184176	    0.139620	    0.131685	    0.571450	    0.410315	    0.528115	    1.503777	    1.088731	    1.052720	    1.692683	    1.259327	    1.229114
    17.820	0	0	    0	    0.890974	    0.803082	    0.820172	    1.729305	    1.172351	    1.706416	    0.722210	    0.592508	    0.656596	    0.183871	    0.139620	    0.130770	    0.566567	    0.408484	    0.527199	    1.500725	    1.082017	    1.043565	    1.680781	    1.255665	    1.223926
    17.875	0	0	    0	    0.891890	    0.802167	    0.821088	    1.728389	    1.170520	    1.705501	    0.722820	    0.590677	    0.653849	    0.184176	    0.139010	    0.129854	    0.566262	    0.404517	    0.527199	    1.497673	    1.084154	    1.042039	    1.687190	    1.252613	    1.219654
    17.930	0	0	    0	    0.890364	    0.806744	    0.821393	    1.729000	    1.169299	    1.704891	    0.718547	    0.596780	    0.658732	    0.185397	    0.140230	    0.130770	    0.567178	    0.408484	    0.528725	    1.511101	    1.085985	    1.054551	    1.692988	    1.259937	    1.224842
    17.985	0	0	    0	    0.894636	    0.802167	    0.821088	    1.730220	    1.170825	    1.705196	    0.723735	    0.590372	    0.657206	    0.183871	    0.139925	    0.130159	    0.569009	    0.408789	    0.527810	    1.508049	    1.086290	    1.053635	    1.691157	    1.256886	    1.226978
    18.040	0	0	    0	    0.898299	    0.807050	    0.823224	    1.732967	    1.171435	    1.706416	    0.731365	    0.594949	    0.657511	    0.184482	    0.140536	    0.131991	    0.569619	    0.409094	    0.529335	    1.502861	    1.094530	    1.052415	    1.692073	    1.266957	    1.224537
    18.095	0	0	    0	    0.898909	    0.811017	    0.826276	    1.734188	    1.174182	    1.711604	    0.724956	    0.600443	    0.660258	    0.186313	    0.141451	    0.131991	    0.572976	    0.411231	    0.534524	    1.511406	    1.095140	    1.056077	    1.700618	    1.267567	    1.231556
    18.150	0	0	    0	    0.898299	    0.811322	    0.829633	    1.742428	    1.177234	    1.715572	    0.724346	    0.598306	    0.661784	    0.186618	    0.141146	    0.132296	    0.573587	    0.410925	    0.534524	    1.522698	    1.100023	    1.061875	    1.706111	    1.273365	    1.238270
    18.205	0	0	    0	    0.900130	    0.812848	    0.833295	    1.741512	    1.180285	    1.719539	    0.727092	    0.600137	    0.662394	    0.186007	    0.141756	    0.132906	    0.572671	    0.414588	    0.535134	    1.519341	    1.115282	    1.064012	    1.709773	    1.281300	    1.243763
    18.260	0	0	    0	    0.906538	    0.816815	    0.837263	    1.743648	    1.184253	    1.724727	    0.728923	    0.605325	    0.666972	    0.186313	    0.142367	    0.133211	    0.574197	    0.415808	    0.537270	    1.530327	    1.106126	    1.061570	    1.714351	    1.278859	    1.244984
    18.315	0	0	    0	    0.907149	    0.823224	    0.833600	    1.748836	    1.183948	    1.728389	    0.736553	    0.603494	    0.674907	    0.187228	    0.142672	    0.133211	    0.576333	    0.415503	    0.540017	    1.527886	    1.111925	    1.076219	    1.724727	    1.283436	    1.254139
    18.370	0	0	    0	    0.908064	    0.825360	    0.841840	    1.754940	    1.189441	    1.735103	    0.738994	    0.605020	    0.669413	    0.187839	    0.141756	    0.134127	    0.577859	    0.416114	    0.540322	    1.542229	    1.116808	    1.080491	    1.731136	    1.289235	    1.256886
    18.425	0	0	    0	    0.911116	    0.825971	    0.843366	    1.762875	    1.195544	    1.735409	    0.734417	    0.606851	    0.670939	    0.189059	    0.143587	    0.135042	    0.583047	    0.417945	    0.540932	    1.549554	    1.122301	    1.083238	    1.739071	    1.302358	    1.263294
    18.480	0	0	    0	    0.912947	    0.825666	    0.843671	    1.759213	    1.199817	    1.749752	    0.735332	    0.600443	    0.660258	    0.188754	    0.143587	    0.134737	    0.579690	    0.422217	    0.545815	    1.544976	    1.126268	    1.078050	    1.735103	    1.302052	    1.268788
    18.535	0	0	    0	    0.902266	    0.811933	    0.830854	    1.760128	    1.193713	    1.739681	    0.731060	    0.605631	    0.662089	    0.187839	    0.142367	    0.132906	    0.577859	    0.417334	    0.541543	    1.523613	    1.106126	    1.063401	    1.718318	    1.281300	    1.245594
    18.590	0	0	    0	    0.893721	    0.809186	    0.828717	    1.743648	    1.182422	    1.720455	    0.721904	    0.601968	    0.664836	    0.185092	    0.139620	    0.131991	    0.572366	    0.412451	    0.533608	    1.517510	    1.093004	    1.063096	    1.696345	    1.271229	    1.237049
    18.645	0	0	    0	    0.892195	    0.803082	    0.821393	    1.739071	    1.174487	    1.711299	    0.721599	    0.600443	    0.659342	    0.183871	    0.139925	    0.130465	    0.569619	    0.409400	    0.530556	    1.503166	    1.094530	    1.055467	    1.697566	    1.269093	    1.233082
    18.700	0	0	    0	    0.890974	    0.803693	    0.821088	    1.729915	    1.174792	    1.710079	    0.726177	    0.594034	    0.659953	    0.183566	    0.139315	    0.130770	    0.568399	    0.408484	    0.529030	    1.502251	    1.086900	    1.051499	    1.691463	    1.262379	    1.229114
    18.755	0	0	    0	    0.892805	    0.806134	    0.820478	    1.732357	    1.172045	    1.713741	    0.723735	    0.598001	    0.656291	    0.184482	    0.139620	    0.130770	    0.566873	    0.409094	    0.530861	    1.514458	    1.085069	    1.048447	    1.699092	    1.263600	    1.229419
    18.810	0	0	    0	    0.890364	    0.807355	    0.820783	    1.736629	    1.174487	    1.705196	    0.725872	    0.601663	    0.656596	    0.184482	    0.140230	    0.131075	    0.570535	    0.410010	    0.531167	    1.513237	    1.098802	    1.051499	    1.697871	    1.263905	    1.230945
    18.865	0	0	    0	    0.894026	    0.805829	    0.825360	    1.729305	    1.175097	    1.710384	    0.724041	    0.599222	    0.661479	    0.184482	    0.140536	    0.131075	    0.568704	    0.411231	    0.532082	    1.513237	    1.098192	    1.051499	    1.704280	    1.268482	    1.236439
    18.920	0	0	    0	    0.899825	    0.811322	    0.826581	    1.731136	    1.178149	    1.715572	    0.727398	    0.602884	    0.664836	    0.185092	    0.139010	    0.131075	    0.571450	    0.411841	    0.534218	    1.519646	    1.088731	    1.059739	    1.707637	    1.266957	    1.236744
    18.975	0	0	    0	    0.901961	    0.814069	    0.830243	    1.741207	    1.177539	    1.722286	    0.730449	    0.603189	    0.660868	    0.186007	    0.141756	    0.131685	    0.573892	    0.415503	    0.535744	    1.524224	    1.093614	    1.067063	    1.707332	    1.275502	    1.242542
    19.030	0	0	    0	    0.901045	    0.815290	    0.833295	    1.741512	    1.179065	    1.714656	    0.733196	    0.598917	    0.662394	    0.186618	    0.141451	    0.132906	    0.575113	    0.414282	    0.537575	    1.519951	    1.103990	    1.067369	    1.717098	    1.282826	    1.248035
    19.085	0	0	    0	    0.899825	    0.817731	    0.832685	    1.749447	    1.181811	    1.723812	    0.729534	    0.597391	    0.668193	    0.186618	    0.142061	    0.132296	    0.579080	    0.413977	    0.538491	    1.533684	    1.111620	    1.067369	    1.721065	    1.287404	    1.249866
    19.140	0	0	    0	    0.908064	    0.820172	    0.838178	    1.749447	    1.189746	    1.730831	    0.733501	    0.608072	    0.668498	    0.186618	    0.142367	    0.134127	    0.576333	    0.415808	    0.540322	    1.533074	    1.105211	    1.076524	    1.723507	    1.286488	    1.257801
    19.195	0	0	    0	    0.906538	    0.825360	    0.841535	    1.755245	    1.192493	    1.735103	    0.738994	    0.607767	    0.669718	    0.187533	    0.142977	    0.134127	    0.579385	    0.417945	    0.541848	    1.550774	    1.121386	    1.077745	    1.733272	    1.295644	    1.263294
    19.250	0	0	    0	    0.912642	    0.826581	    0.843977	    1.753109	    1.195544	    1.743954	    0.734112	    0.608377	    0.674601	    0.188754	    0.144808	    0.133516	    0.580911	    0.420081	    0.543374	    1.552300	    1.122301	    1.080797	    1.739071	    1.299916	    1.268788
    19.305	0	0	    0	    0.908370	    0.821088	    0.840925	    1.763180	    1.199512	    1.747616	    0.729534	    0.605325	    0.671244	    0.186923	    0.142977	    0.133516	    0.583047	    0.419471	    0.545815	    1.542840	    1.119860	    1.076524	    1.732662	    1.295644	    1.262989
    19.360	0	0	    0	    0.899519	    0.808881	    0.826886	    1.749447	    1.192187	    1.729000	    0.737469	    0.598611	    0.661784	    0.186007	    0.141146	    0.132906	    0.576944	    0.416419	    0.536049	    1.516899	    1.099413	    1.054856	    1.709773	    1.275196	    1.246204
    19.415	0	0	    0	    0.896468	    0.810407	    0.824140	    1.738155	    1.177844	    1.722591	    0.730755	    0.598917	    0.661173	    0.184176	    0.140230	    0.130465	    0.571756	    0.411231	    0.532998	    1.512932	    1.093614	    1.062791	    1.708858	    1.274281	    1.237659
    19.470	0	0	    0	    0.890669	    0.807355	    0.823224	    1.737545	    1.170825	    1.707332	    0.722820	    0.599222	    0.658427	    0.185397	    0.140230	    0.131075	    0.570230	    0.408789	    0.529030	    1.518120	    1.100633	    1.059129	    1.703670	    1.270924	    1.236744
    19.525	0	0	    0	    0.894331	    0.806439	    0.824445	    1.735103	    1.177539	    1.715877	    0.724346	    0.595254	    0.659342	    0.184787	    0.139925	    0.131380	    0.571145	    0.409094	    0.528115	    1.515373	    1.088731	    1.056992	    1.707027	    1.274281	    1.236133
    19.580	0	0	    0	    0.898299	    0.810101	    0.822614	    1.734188	    1.177234	    1.712825	    0.728313	    0.599832	    0.657816	    0.185092	    0.140230	    0.131075	    0.570230	    0.411231	    0.531472	    1.520256	    1.094224	    1.061570	    1.704585	    1.271839	    1.240406
    19.635	0	0	    0	    0.894331	    0.809186	    0.826581	    1.734493	    1.176623	    1.713130	    0.730449	    0.600443	    0.663615	    0.184787	    0.141451	    0.130770	    0.568704	    0.411231	    0.532082	    1.537346	    1.107652	    1.060960	    1.709773	    1.274586	    1.238575
    19.690	0	0	    0	    0.896773	    0.813153	    0.830854	    1.737240	    1.181201	    1.714656	    0.728008	    0.602884	    0.660258	    0.185397	    0.142061	    0.131685	    0.570230	    0.410925	    0.534524	    1.523919	    1.113146	    1.059739	    1.710689	    1.281910	    1.244984
    19.745	0	0	    0	    0.901350	    0.814069	    0.831464	    1.744564	    1.184558	    1.721675	    0.732280	    0.601663	    0.666667	    0.186618	    0.142367	    0.132906	    0.572976	    0.415503	    0.538186	    1.524529	    1.113146	    1.065843	    1.713130	    1.284657	    1.253529
    19.800	0	0	    0	    0.905013	    0.819257	    0.834821	    1.744869	    1.188525	    1.732052	    0.737163	    0.608988	    0.668803	    0.186313	    0.142367	    0.133516	    0.574502	    0.416114	    0.537270	    1.537346	    1.117113	    1.074083	    1.725948	    1.287404	    1.259327
    19.855	0	0	    0	    0.909285	    0.818647	    0.833906	    1.749447	    1.187304	    1.733883	    0.738384	    0.612650	    0.666972	    0.188144	    0.142061	    0.133516	    0.578775	    0.414893	    0.541848	    1.542840	    1.121996	    1.074693	    1.730526	    1.294728	    1.259937
    19.910	0	0	    0	    0.907454	    0.823224	    0.838178	    1.759518	    1.190661	    1.733272	    0.740215	    0.612650	    0.673381	    0.187839	    0.142367	    0.134127	    0.579690	    0.417334	    0.539406	    1.561151	    1.119860	    1.074693	    1.733272	    1.296254	    1.263600
    19.965	0	0	    0	    0.910201	    0.823529	    0.841230	    1.758907	    1.195239	    1.735714	    0.740215	    0.605936	    0.678874	    0.188449	    0.143282	    0.134432	    0.581216	    0.417945	    0.540627	    1.542535	    1.127184	    1.086900	    1.729000	    1.299001	    1.269703
    20.020	0	0	    0	    0.913863	    0.825360	    0.845502	    1.761044	    1.200427	    1.744869	    0.743267	    0.609903	    0.668193	    0.186923	    0.144198	    0.134432	    0.581216	    0.420691	    0.543069	    1.564508	    1.129931	    1.094224	    1.741817	    1.306020	    1.273976
    20.075	0	0	    0	    0.909895	    0.818952	    0.837263	    1.757992	    1.198291	    1.748226	    0.742657	    0.608682	    0.668498	    0.188449	    0.142977	    0.134432	    0.582132	    0.420996	    0.544594	    1.549859	    1.117723	    1.069810	    1.732357	    1.292897	    1.258717
    20.130	0	0	    0	    0.899519	    0.815290	    0.831464	    1.747616	    1.189136	    1.732662	    0.729229	    0.607767	    0.663615	    0.186007	    0.141451	    0.133211	    0.575418	    0.415808	    0.536049	    1.529717	    1.110094	    1.065232	    1.717403	    1.275502	    1.243763
    20.185	0	0	    0	    0.896773	    0.807660	    0.829328	    1.749142	    1.182422	    1.721981	    0.727398	    0.598001	    0.667277	    0.185702	    0.140841	    0.131380	    0.572366	    0.413672	    0.532998	    1.529412	    1.097887	    1.060349	    1.711604	    1.278248	    1.240711
    20.240	0	0	    0	    0.895857	    0.805219	    0.824445	    1.734493	    1.181506	    1.719844	    0.729229	    0.597696	    0.668803	    0.185397	    0.140230	    0.131991	    0.568093	    0.410315	    0.530251	    1.515068	    1.096666	    1.065843	    1.703059	    1.270924	    1.242847
    20.295	0	0	    0	    0.897993	    0.812238	    0.828717	    1.740902	    1.178454	    1.717708	    0.734112	    0.601358	    0.663920	    0.185702	    0.139925	    0.131991	    0.570535	    0.410620	    0.533608	    1.530632	    1.097887	    1.053941	    1.713741	    1.270619	    1.243153
    20.350	0	0	    0	    0.897688	    0.812543	    0.827802	    1.741207	    1.179675	    1.721675	    0.731060	    0.602884	    0.665446	    0.185397	    0.141451	    0.131075	    0.571756	    0.412146	    0.532082	    1.533684	    1.105211	    1.067369	    1.710384	    1.271229	    1.239796
    20.405	0	0	    0	    0.898299	    0.808576	    0.829328	    1.741512	    1.182727	    1.720455	    0.734417	    0.600443	    0.667582	    0.186007	    0.140841	    0.132601	    0.571450	    0.412757	    0.533303	    1.524529	    1.098497	    1.072557	    1.712520	    1.277333	    1.243763
    20.460	0	0	    0	    0.904097	    0.814069	    0.831159	    1.738155	    1.184558	    1.728389	    0.737774	    0.609598	    0.674296	    0.186007	    0.141451	    0.132296	    0.573892	    0.413672	    0.536355	    1.539483	    1.105821	    1.070115	    1.706416	    1.277943	    1.244984
    20.515	0	0	    0	    0.905013	    0.816510	    0.833906	    1.745174	    1.182116	    1.725032	    0.738689	    0.606851	    0.669718	    0.187839	    0.142367	    0.134127	    0.576028	    0.415198	    0.538186	    1.536736	    1.116197	    1.065843	    1.711604	    1.281300	    1.249256
    20.570	0	0	    0	    0.906233	    0.820783	    0.836042	    1.750362	    1.188220	    1.730220	    0.735332	    0.613260	    0.676738	    0.187228	    0.142672	    0.133211	    0.579080	    0.414893	    0.539712	    1.539788	    1.119860	    1.074388	    1.719234	    1.284352	    1.251087
    20.625	0	0	    0	    0.903792	    0.820172	    0.840620	    1.754940	    1.188830	    1.727779	    0.740215	    0.608682	    0.677653	    0.188144	    0.143893	    0.133211	    0.577859	    0.415503	    0.537881	    1.554131	    1.123522	    1.076829	    1.719844	    1.288930	    1.252308
    20.680	0	0	    0	    0.909590	    0.823529	    0.841230	    1.758297	    1.193408	    1.742733	    0.743267	    0.610208	    0.674601	    0.187839	    0.142977	    0.134127	    0.577859	    0.417029	    0.540627	    1.541619	    1.121691	    1.081712	    1.715572	    1.284657	    1.256886
    20.735	0	0	    0	    0.913863	    0.826886	    0.845808	    1.760128	    1.193103	    1.742428	    0.749371	    0.613870	    0.675517	    0.187839	    0.143282	    0.134737	    0.577554	    0.418860	    0.542153	    1.569696	    1.125353	    1.085069	    1.727169	    1.288624	    1.262379
    20.790	0	0	    0	    0.909590	    0.820478	    0.838178	    1.758907	    1.196155	    1.740902	    0.738384	    0.617838	    0.675212	    0.187839	    0.143282	    0.133516	    0.577859	    0.417029	    0.539101	    1.537346	    1.118639	    1.073472	    1.723507	    1.288014	    1.247425
    20.845	0	0	    0	    0.898909	    0.812848	    0.831769	    1.748226	    1.189441	    1.728389	    0.735637	    0.604105	    0.670939	    0.186313	    0.142061	    0.132296	    0.575723	    0.412451	    0.534524	    1.527886	    1.099413	    1.069200	    1.703670	    1.270008	    1.235828
    20.900	0	0	    0	    0.900740	    0.811627	    0.829328	    1.736324	    1.183032	    1.725032	    0.732586	    0.602274	    0.666056	    0.185092	    0.141146	    0.131380	    0.570230	    0.411231	    0.533303	    1.517815	    1.100633	    1.062791	    1.686885	    1.261769	    1.229419
    20.955	0	0	    0	    0.899214	    0.811627	    0.825055	    1.736629	    1.179980	    1.714961	    0.737469	    0.606546	    0.665751	    0.185702	    0.140536	    0.131685	    0.569314	    0.410620	    0.530556	    1.517815	    1.105516	    1.065537	    1.689937	    1.266651	    1.230640
    21.010	0	0	    0	    0.896773	    0.813153	    0.829328	    1.743038	    1.179065	    1.720455	    0.735332	    0.609293	    0.664225	    0.185092	    0.140230	    0.132296	    0.570230	    0.409705	    0.530861	    1.531853	    1.103380	    1.062486	    1.696651	    1.262989	    1.231556
    21.065	0	0	    0	    0.898604	    0.811017	    0.828412	    1.742733	    1.182422	    1.719844	    0.735943	    0.605325	    0.674296	    0.185397	    0.140841	    0.131685	    0.572366	    0.412146	    0.531167	    1.525750	    1.111009	    1.066148	    1.693599	    1.260548	    1.231250
    21.120	0	0	    0	    0.900740	    0.813458	    0.829938	    1.739681	    1.183032	    1.718318	    0.738384	    0.606241	    0.667887	    0.186313	    0.140230	    0.132601	    0.571756	    0.411841	    0.531777	    1.533989	    1.108873	    1.077440	    1.695735	    1.263600	    1.237964
    21.175	0	0	    0	    0.905623	    0.813458	    0.834516	    1.735103	    1.180896	    1.716793	    0.737774	    0.615396	    0.675517	    0.185397	    0.141451	    0.131991	    0.570535	    0.412757	    0.532082	    1.529107	    1.113756	    1.059434	    1.699702	    1.270924	    1.237659
    21.230	0	0	    0	    0.904097	    0.819257	    0.837568	    1.743343	    1.185779	    1.728084	    0.740215	    0.617838	    0.677043	    0.187533	    0.141756	    0.133211	    0.572671	    0.414588	    0.536049	    1.542535	    1.120470	    1.074998	    1.713130	    1.274891	    1.236744
    21.285	0	0	    0	    0.907454	    0.819867	    0.839399	    1.749447	    1.189746	    1.732662	    0.737774	    0.613870	    0.679484	    0.187533	    0.142061	    0.133516	    0.576028	    0.415198	    0.536049	    1.548638	    1.130846	    1.077440	    1.713130	    1.280690	    1.244373
    21.340	0	0	    0	    0.905623	    0.821393	    0.839704	    1.751278	    1.189441	    1.740597	    0.745403	    0.616007	    0.678874	    0.187533	    0.142672	    0.134127	    0.575418	    0.417029	    0.540932	    1.541924	    1.129931	    1.086290	    1.715267	    1.286488	    1.254139
    21.395	0	0	    0	    0.914168	    0.824140	    0.843977	    1.752193	    1.192187	    1.745785	    0.748150	    0.621805	    0.681621	    0.188754	    0.142977	    0.133822	    0.579995	    0.416724	    0.542153	    1.554131	    1.131456	    1.082322	    1.727779	    1.291981	    1.254749
    21.450	0	0	    0	    0.911727	    0.825666	    0.842145	    1.759213	    1.196460	    1.740291	    0.752117	    0.616007	    0.680400	    0.188449	    0.143587	    0.134432	    0.580606	    0.418250	    0.543679	    1.569085	    1.130846	    1.093614	    1.726864	    1.292897	    1.259937
    21.505	0	0	    0	    0.905013	    0.811627	    0.834516	    1.750362	    1.190967	    1.735409	    0.740826	    0.609903	    0.679179	    0.186313	    0.142672	    0.133211	    0.575418	    0.416419	    0.537270	    1.538262	    1.119860	    1.077745	    1.708248	    1.272450	    1.248646
    21.560	0	0	    0	    0.895552	    0.808270	    0.826886	    1.742733	    1.179980	    1.726253	    0.738384	    0.609293	    0.673075	    0.186313	    0.141756	    0.132296	    0.571145	    0.410925	    0.533608	    1.533074	    1.105211	    1.069810	    1.701534	    1.265431	    1.237354
    21.615	0	0	    0	    0.898604	    0.808270	    0.826276	    1.737545	    1.177234	    1.722896	    0.738689	    0.609293	    0.666667	    0.186313	    0.141146	    0.131685	    0.568399	    0.411841	    0.530251	    1.531853	    1.104601	    1.065232	    1.696040	    1.268482	    1.229725
    21.670	0	0	    0	    0.896468	    0.811017	    0.829023	    1.735409	    1.175708	    1.717098	    0.741131	    0.609903	    0.667582	    0.186007	    0.142061	    0.131075	    0.570230	    0.406958	    0.531167	    1.527886	    1.113146	    1.064317	    1.703975	    1.268788	    1.233082
    21.725	0	0	    0	    0.892805	    0.809796	    0.825666	    1.740597	    1.180896	    1.719234	    0.741131	    0.610208	    0.676738	    0.186007	    0.141451	    0.132601	    0.569924	    0.411231	    0.531472	    1.542840	    1.110704	    1.066148	    1.702449	    1.272450	    1.237659
    21.780	0	0	    0	    0.897993	    0.809186	    0.829633	    1.737240	    1.180285	    1.720455	    0.735943	    0.610208	    0.674601	    0.185397	    0.141756	    0.132601	    0.572061	    0.410315	    0.531777	    1.538567	    1.111009	    1.067369	    1.701228	    1.266651	    1.234607
    21.835	0	0	    0	    0.900130	    0.812848	    0.828717	    1.740291	    1.180896	    1.724422	    0.747845	    0.612039	    0.672465	    0.186313	    0.141146	    0.132601	    0.572976	    0.413672	    0.533303	    1.541924	    1.111925	    1.076219	    1.706722	    1.267872	    1.242847
    21.890	0	0	    0	    0.902266	    0.817121	    0.833295	    1.740597	    1.182727	    1.725643	    0.741436	    0.608377	    0.675517	    0.187228	    0.141451	    0.132906	    0.572976	    0.413672	    0.534218	    1.542840	    1.121996	    1.073777	    1.712215	    1.273671	    1.241627
    21.945	0	0	    0	    0.903792	    0.816510	    0.836042	    1.746395	    1.187915	    1.726558	    0.746624	    0.613260	    0.676738	    0.186923	    0.142672	    0.133822	    0.575418	    0.415503	    0.534524	    1.550164	    1.130846	    1.078660	    1.714046	    1.279469	    1.248951
    22.000	0	0	    0	    0.907454	    0.818952	    0.834821	    1.750057	    1.189441	    1.727779	    0.744793	    0.609598	    0.676738	    0.188754	    0.142977	    0.133516	    0.576333	    0.416114	    0.535744	    1.554742	    1.128710	    1.087816	    1.716182	    1.282826	    1.254749
    22.055	0	0	    0	    0.909895	    0.820172	    0.840009	    1.747311	    1.185779	    1.736934	    0.749981	    0.619364	    0.682536	    0.188449	    0.143282	    0.134432	    0.576638	    0.414282	    0.540627	    1.551690	    1.133288	    1.085985	    1.726864	    1.288319	    1.254444
    22.110	0	0	    0	    0.908064	    0.822309	    0.840620	    1.747005	    1.191577	    1.740291	    0.743572	    0.619364	    0.677653	    0.189059	    0.144198	    0.134432	    0.576944	    0.417029	    0.541238	    1.561151	    1.130541	    1.091478	    1.722896	    1.291371	    1.252613
    22.165	0	0	    0	    0.909590	    0.827802	    0.845502	    1.762875	    1.194629	    1.747616	    0.751507	    0.622416	    0.687114	    0.189364	    0.144808	    0.135653	    0.581827	    0.419165	    0.541848	    1.571527	    1.142443	    1.090867	    1.729610	    1.295338	    1.258106
    22.220	0	0	    0	    0.907149	    0.818341	    0.836957	    1.759823	    1.200427	    1.745480	    0.743267	    0.616007	    0.678569	    0.187839	    0.143893	    0.134432	    0.580911	    0.421607	    0.541543	    1.555657	    1.132067	    1.092699	    1.719234	    1.286488	    1.252918
    22.275	0	0	    0	    0.900740	    0.809796	    0.828717	    1.743038	    1.183642	    1.725643	    0.747539	    0.612039	    0.671855	    0.186618	    0.141146	    0.132296	    0.573587	    0.413977	    0.533303	    1.537346	    1.113756	    1.072557	    1.707332	    1.273671	    1.240406
    22.330	0	0	    0	    0.897688	    0.807355	    0.822919	    1.739071	    1.180896	    1.721675	    0.743572	    0.611429	    0.673075	    0.185702	    0.142367	    0.130465	    0.570230	    0.411536	    0.529946	    1.535210	    1.115282	    1.066148	    1.700313	    1.270924	    1.229725
    22.385	0	0	    0	    0.890364	    0.803388	    0.822919	    1.737545	    1.179370	    1.708858	    0.737774	    0.608377	    0.671855	    0.186007	    0.140841	    0.131075	    0.568093	    0.408179	    0.525978	    1.532158	    1.112840	    1.065232	    1.696040	    1.267262	    1.226978
