     0.000	0	0	    0	    0.944076	    0.822919	    0.764630	    1.785763	    1.429313	    1.448539	    1.639582	    1.209277	    1.282826	    0.323644	    0.238804	    0.223239	    0.991379	    0.715801	    0.787518	    1.545892	    1.020371	    0.958419	    1.648432	    1.183032	    1.076829
     0.055	0	0	    0	    0.943465	    0.825360	    0.763409	    1.786679	    1.430533	    1.451286	    1.643244	    1.197986	    1.287709	    0.323339	    0.239719	    0.223850	    0.993515	    0.717632	    0.789960	    1.556878	    1.016709	    0.958724	    1.654841	    1.187304	    1.076524
     0.110	0	0	    0	    0.948043	    0.826581	    0.764019	    1.787289	    1.434195	    1.455863	    1.660334	    1.199512	    1.293507	    0.326696	    0.241245	    0.224765	    0.991073	    0.721904	    0.794537	    1.554131	    1.014267	    0.965133	    1.665522	    1.193408	    1.081407
     0.165	0	0	    0	    0.948348	    0.833600	    0.768292	    1.797971	    1.436637	    1.460746	    1.656672	    1.224842	    1.291371	    0.328527	    0.242161	    0.224460	    0.994430	    0.721904	    0.796368	    1.573968	    1.026780	    0.978256	    1.668879	    1.198291	    1.089647
     0.220	0	0	    0	    0.947127	    0.832990	    0.769512	    1.800412	    1.439384	    1.464103	    1.660334	    1.231861	    1.302663	    0.327611	    0.242771	    0.226291	    0.998093	    0.722515	    0.798505	    1.578851	    1.036240	    0.980087	    1.674678	    1.204395	    1.094224
     0.275	0	0	    0	    0.951400	    0.836042	    0.773480	    1.804990	    1.445182	    1.465934	    1.663996	    1.228809	    1.300832	    0.327611	    0.241245	    0.227207	    1.001144	    0.726787	    0.800641	    1.588617	    1.033799	    0.989853	    1.679561	    1.207446	    1.100633
     0.330	0	0	    0	    0.951400	    0.837568	    0.775616	    1.807126	    1.451896	    1.476616	    1.663081	    1.243153	    1.315175	    0.327306	    0.243076	    0.226902	    1.006027	    0.729839	    0.807355	    1.607538	    1.038682	    0.995651	    1.686885	    1.214466	    1.104906
     0.385	0	0	    0	    0.949569	    0.825666	    0.763714	    1.800412	    1.444266	    1.461662	    1.658503	    1.214466	    1.290150	    0.324559	    0.238499	    0.223850	    0.998093	    0.725872	    0.800946	    1.570611	    1.017014	    0.964218	    1.663691	    1.191882	    1.080797
     0.440	0	0	    0	    0.941634	    0.828412	    0.762493	    1.785458	    1.427481	    1.449454	    1.645075	    1.202564	    1.274281	    0.319371	    0.237278	    0.218967	    0.986496	    0.712139	    0.789654	    1.543755	    1.004501	    0.950484	    1.646906	    1.183337	    1.070420
     0.495	0	0	    0	    0.942550	    0.823224	    0.760967	    1.787289	    1.429923	    1.449760	    1.648432	    1.215076	    1.284047	    0.319371	    0.235447	    0.220188	    0.990158	    0.714580	    0.789044	    1.545281	    1.012131	    0.963912	    1.641718	    1.181811	    1.072862
     0.550	0	0	    0	    0.943465	    0.823835	    0.761273	    1.786679	    1.427787	    1.447318	    1.642939	    1.210498	    1.277333	    0.319371	    0.236973	    0.220798	    0.986496	    0.717327	    0.786908	    1.541314	    1.009995	    0.963302	    1.644160	    1.180896	    1.072557
     0.605	0	0	    0	    0.944381	    0.826886	    0.762188	    1.788205	    1.428092	    1.446098	    1.659419	    1.210498	    1.290455	    0.322118	    0.237888	    0.220798	    0.991684	    0.717021	    0.788434	    1.548333	    1.014572	    0.967575	    1.649042	    1.185779	    1.075914
     0.660	0	0	    0	    0.944076	    0.826581	    0.763714	    1.783627	    1.429007	    1.449149	    1.657282	    1.220874	    1.288624	    0.324559	    0.238499	    0.222934	    0.988937	    0.715801	    0.789044	    1.558709	    1.014878	    0.957198	    1.660334	    1.186389	    1.080491
     0.715	0	0	    0	    0.944076	    0.823835	    0.767681	    1.793393	    1.429923	    1.449149	    1.642023	    1.217212	    1.291676	    0.324559	    0.240635	    0.224155	    0.992905	    0.717632	    0.789044	    1.565423	    1.027390	    0.972763	    1.653925	    1.194324	    1.082933
     0.770	0	0	    0	    0.950484	    0.829633	    0.767681	    1.791867	    1.438773	    1.452811	    1.652399	    1.217517	    1.292287	    0.325170	    0.240330	    0.226291	    0.998703	    0.724041	    0.793622	    1.572747	    1.025254	    0.988022	    1.660945	    1.196155	    1.086900
     0.825	0	0	    0	    0.952926	    0.834821	    0.771038	    1.796139	    1.440299	    1.464714	    1.679866	    1.229114	    1.293812	    0.327001	    0.241550	    0.225376	    0.999313	    0.727092	    0.801556	    1.584649	    1.037461	    0.985885	    1.673152	    1.203784	    1.095750
     0.880	0	0	    0	    0.954452	    0.838178	    0.771038	    1.802243	    1.449149	    1.469902	    1.686580	    1.241321	    1.304494	    0.327611	    0.243992	    0.226596	    1.004501	    0.728923	    0.802472	    1.587701	    1.034409	    0.990463	    1.681086	    1.209277	    1.098497
     0.935	0	0	    0	    0.953231	    0.838788	    0.773785	    1.811398	    1.445487	    1.468070	    1.683528	    1.237964	    1.317922	    0.327611	    0.243687	    0.227207	    1.007858	    0.731975	    0.807355	    1.613947	    1.053330	    1.009079	    1.696345	    1.224537	    1.108873
     0.990	0	0	    0	    0.951400	    0.831464	    0.769512	    1.811398	    1.452506	    1.472953	    1.683223	    1.226368	    1.289540	    0.324559	    0.240940	    0.224765	    1.008774	    0.733501	    0.804913	    1.581292	    1.030747	    0.986801	    1.674983	    1.201953	    1.093004
     1.045	0	0	    0	    0.942550	    0.826276	    0.761883	    1.784848	    1.430838	    1.452811	    1.657893	    1.216297	    1.270924	    0.318151	    0.234836	    0.220493	    0.989853	    0.718547	    0.793622	    1.552911	    1.008774	    0.972457	    1.649042	    1.184558	    1.082322
     1.100	0	0	    0	    0.940108	    0.825360	    0.763409	    1.783017	    1.428397	    1.449454	    1.640497	    1.190661	    1.273365	    0.319371	    0.235447	    0.219883	    0.990768	    0.718242	    0.790570	    1.559014	    1.010910	    0.946822	    1.656062	    1.187610	    1.081407
     1.155	0	0	    0	    0.941024	    0.822919	    0.765240	    1.788510	    1.430533	    1.450980	    1.638361	    1.208362	    1.291676	    0.319677	    0.235142	    0.220188	    0.990768	    0.716716	    0.789960	    1.552911	    1.007248	    0.960555	    1.663386	    1.191882	    1.081102
     1.210	0	0	    0	    0.946822	    0.829633	    0.765240	    1.790646	    1.431449	    1.453422	    1.638361	    1.211719	    1.291981	    0.319982	    0.237278	    0.221103	    0.994736	    0.717021	    0.788739	    1.575799	    1.012741	    0.981613	    1.663081	    1.195544	    1.090562
     1.265	0	0	    0	    0.948043	    0.828717	    0.762493	    1.790951	    1.430838	    1.458305	    1.669184	    1.210193	    1.289235	    0.320897	    0.237888	    0.220493	    0.993210	    0.719768	    0.793927	    1.555962	    1.020676	    0.979782	    1.661250	    1.197681	    1.089952
     1.320	0	0	    0	    0.946822	    0.830854	    0.767376	    1.790036	    1.434501	    1.458000	    1.654231	    1.221485	    1.287404	    0.324254	    0.238499	    0.221408	    0.995041	    0.723735	    0.796063	    1.578851	    1.032578	    0.974594	    1.677119	    1.197986	    1.089342
     1.375	0	0	    0	    0.948043	    0.833906	    0.770428	    1.794919	    1.436637	    1.458000	    1.670100	    1.235218	    1.301137	    0.325170	    0.240635	    0.223545	    0.997482	    0.724956	    0.796368	    1.588617	    1.031052	    0.984970	    1.682612	    1.205615	    1.098497
     1.430	0	0	    0	    0.952316	    0.834821	    0.771954	    1.802548	    1.442435	    1.462882	    1.669490	    1.219043	    1.305104	    0.325475	    0.241245	    0.225376	    1.004196	    0.726482	    0.802777	    1.590143	    1.040208	    0.989853	    1.686275	    1.210498	    1.105211
     1.485	0	0	    0	    0.955978	    0.835126	    0.772259	    1.807736	    1.450065	    1.470512	    1.670405	    1.232166	    1.304799	    0.326390	    0.240940	    0.225681	    1.005722	    0.731670	    0.807355	    1.597162	    1.034409	    1.010605	    1.687495	    1.221485	    1.110399
     1.540	0	0	    0	    0.957198	    0.840009	    0.777752	    1.801633	    1.449149	    1.475700	    1.697871	    1.241321	    1.311208	    0.326390	    0.240940	    0.225071	    1.004807	    0.735027	    0.810407	    1.615778	    1.055772	    1.009689	    1.705806	    1.228504	    1.114672
     1.595	0	0	    0	    0.951705	    0.836042	    0.771954	    1.802548	    1.452506	    1.473564	    1.669490	    1.235218	    1.286488	    0.322118	    0.240330	    0.223239	    1.006638	    0.734722	    0.808270	    1.586481	    1.027695	    0.966964	    1.684443	    1.212329	    1.097581
     1.650	0	0	    0	    0.944991	    0.828412	    0.766155	    1.794308	    1.436942	    1.457694	    1.647211	    1.209277	    1.283436	    0.318761	    0.236057	    0.219577	    1.000534	    0.722820	    0.793927	    1.547723	    1.020066	    0.972763	    1.652399	    1.193103	    1.081407
     1.705	0	0	    0	    0.940719	    0.827497	    0.762799	    1.789425	    1.430838	    1.457389	    1.637751	    1.208362	    1.287098	    0.318761	    0.233005	    0.218357	    0.993210	    0.717021	    0.792706	    1.555352	    1.010605	    0.964523	    1.652705	    1.183337	    1.078965
     1.760	0	0	    0	    0.944686	    0.825666	    0.761273	    1.785458	    1.430533	    1.450980	    1.644160	    1.210498	    1.272145	    0.318151	    0.234836	    0.219577	    0.990158	    0.717937	    0.790265	    1.557183	    1.024643	    0.951400	    1.653010	    1.181811	    1.079271
     1.815	0	0	    0	    0.944381	    0.828717	    0.763409	    1.785153	    1.432364	    1.454948	    1.662165	    1.213855	    1.290455	    0.320897	    0.236667	    0.220798	    0.992599	    0.717632	    0.793622	    1.583429	    1.010300	    0.963302	    1.659113	    1.191577	    1.082933
     1.870	0	0	    0	    0.944686	    0.828717	    0.763714	    1.792782	    1.432670	    1.451286	    1.654841	    1.216602	    1.277638	    0.321813	    0.237278	    0.221714	    0.997482	    0.719158	    0.793011	    1.579461	    1.029221	    0.970626	    1.659724	    1.195544	    1.087510
     1.925	0	0	    0	    0.949569	    0.826276	    0.768902	    1.792477	    1.440909	    1.459220	    1.668574	    1.205921	    1.295033	    0.323033	    0.237888	    0.222629	    0.998703	    0.724956	    0.797589	    1.582513	    1.024338	    0.973373	    1.668879	    1.195850	    1.086290
     1.980	0	0	    0	    0.951400	    0.830549	    0.767987	    1.793088	    1.439384	    1.460441	    1.663996	    1.223316	    1.294728	    0.322423	    0.239719	    0.223850	    1.003281	    0.728618	    0.799725	    1.569696	    1.033188	    0.981003	    1.664302	    1.204395	    1.092088
     2.035	0	0	    0	    0.951095	    0.833600	    0.769207	    1.801328	    1.443046	    1.468681	    1.670405	    1.228199	    1.298085	    0.324559	    0.240940	    0.225681	    1.000839	    0.728618	    0.805524	    1.587091	    1.043870	    0.989242	    1.674067	    1.209583	    1.103380
     2.090	0	0	    0	    0.953536	    0.834821	    0.772869	    1.809873	    1.452506	    1.472343	    1.678645	    1.229114	    1.310292	    0.325475	    0.241245	    0.226902	    1.009384	    0.730449	    0.806439	    1.583124	    1.036545	    0.987716	    1.681392	    1.214466	    1.107652
     2.145	0	0	    0	    0.954147	    0.840314	    0.774395	    1.811093	    1.452811	    1.477531	    1.683223	    1.241627	    1.309377	    0.326085	    0.241550	    0.224765	    1.012131	    0.735027	    0.809186	    1.605097	    1.053941	    1.005112	    1.692988	    1.217517	    1.111620
     2.200	0	0	    0	    0.955978	    0.837873	    0.771649	    1.814145	    1.456474	    1.478752	    1.686885	    1.226368	    1.301137	    0.325475	    0.239719	    0.225071	    1.010910	    0.736858	    0.813458	    1.599603	    1.053025	    0.995651	    1.686275	    1.216297	    1.110094
     2.255	0	0	    0	    0.945602	    0.825971	    0.761883	    1.798886	    1.445792	    1.463798	    1.657588	    1.213550	    1.287404	    0.320287	    0.237278	    0.220188	    1.004196	    0.723735	    0.801862	    1.568475	    1.016098	    0.971542	    1.660639	    1.194018	    1.084764
     2.310	0	0	    0	    0.943465	    0.824445	    0.764019	    1.785763	    1.436332	    1.455863	    1.641718	    1.204700	    1.275196	    0.317540	    0.234531	    0.218967	    0.991989	    0.720684	    0.794537	    1.558099	    1.019760	    0.958724	    1.657282	    1.189441	    1.082017
     2.365	0	0	    0	    0.941634	    0.821088	    0.763714	    1.790646	    1.435416	    1.453727	    1.647517	    1.208057	    1.282826	    0.317540	    0.234836	    0.219272	    0.993210	    0.719463	    0.790570	    1.555047	    1.011215	    0.963302	    1.649348	    1.185779	    1.079271
     2.420	0	0	    0	    0.944381	    0.825666	    0.764935	    1.785458	    1.435721	    1.458610	    1.656977	    1.202869	    1.280995	    0.318761	    0.236057	    0.220188	    0.992905	    0.717327	    0.795758	    1.564813	    1.022507	    0.964523	    1.656977	    1.192798	    1.083543
     2.475	0	0	    0	    0.943465	    0.829328	    0.764630	    1.793088	    1.433280	    1.461051	    1.654841	    1.220569	    1.276417	    0.321202	    0.237278	    0.222629	    0.995041	    0.718547	    0.796368	    1.573663	    1.026474	    0.972457	    1.660639	    1.197375	    1.088426
     2.530	0	0	    0	    0.941939	    0.829633	    0.766461	    1.793088	    1.436027	    1.461662	    1.647517	    1.216297	    1.278859	    0.322118	    0.239109	    0.222934	    0.997482	    0.720989	    0.795758	    1.565728	    1.030137	    0.983139	    1.666743	    1.200427	    1.090867
     2.585	0	0	    0	    0.946212	    0.832685	    0.771038	    1.796750	    1.439384	    1.454948	    1.649348	    1.221790	    1.293812	    0.325170	    0.240330	    0.225071	    0.998398	    0.723735	    0.794232	    1.582513	    1.033188	    0.989548	    1.669490	    1.207141	    1.094224
     2.640	0	0	    0	    0.953231	    0.834821	    0.771649	    1.792172	    1.443656	    1.462882	    1.679866	    1.220874	    1.311513	    0.325475	    0.241550	    0.225071	    0.994430	    0.727398	    0.798505	    1.607233	    1.044785	    0.990463	    1.682002	    1.215076	    1.106432
     2.695	0	0	    0	    0.955673	    0.834821	    0.773175	    1.793088	    1.444572	    1.471733	    1.683528	    1.225757	    1.302663	    0.327916	    0.242466	    0.226902	    0.999619	    0.727398	    0.804303	    1.615778	    1.060655	    0.992599	    1.697261	    1.218128	    1.107042
     2.750	0	0	    0	    0.950790	    0.839704	    0.777447	    1.805905	    1.446098	    1.473564	    1.680171	    1.245899	    1.312428	    0.327001	    0.242466	    0.226596	    1.008469	    0.731365	    0.806439	    1.606317	    1.067369	    1.015183	    1.689326	    1.224231	    1.114061
     2.805	0	0	    0	    0.956893	    0.835431	    0.778363	    1.812314	    1.451896	    1.479973	    1.702449	    1.246815	    1.318532	    0.327001	    0.242771	    0.227817	    1.009995	    0.733806	    0.811017	    1.619135	    1.066148	    1.003281	    1.697566	    1.231556	    1.116808
     2.860	0	0	    0	    0.949569	    0.829328	    0.768597	    1.805600	    1.448539	    1.471733	    1.676204	    1.219043	    1.300832	    0.326390	    0.240330	    0.223239	    1.008774	    0.731060	    0.803998	    1.578241	    1.042344	    0.992905	    1.675898	    1.208972	    1.095750
     2.915	0	0	    0	    0.947433	    0.829633	    0.764324	    1.788510	    1.436027	    1.461967	    1.658808	    1.206226	    1.287404	    0.321508	    0.236973	    0.220493	    0.996262	    0.720684	    0.792401	    1.578546	    1.018845	    0.977035	    1.670405	    1.195544	    1.092699
     2.970	0	0	    0	    0.944686	    0.826276	    0.763409	    1.792172	    1.429618	    1.453422	    1.664912	    1.227893	    1.286488	    0.319066	    0.237278	    0.220493	    0.988937	    0.714275	    0.789960	    1.572747	    1.024643	    0.968490	    1.663386	    1.199817	    1.085985
     3.025	0	0	    0	    0.941939	    0.829023	    0.763104	    1.787900	    1.431144	    1.455558	    1.651179	    1.198596	    1.296559	    0.319066	    0.235447	    0.220493	    0.989242	    0.716106	    0.787823	    1.571832	    1.025864	    0.973373	    1.658808	    1.196765	    1.089342
     3.080	0	0	    0	    0.949874	    0.828412	    0.766766	    1.784237	    1.436637	    1.456779	    1.667964	    1.222705	    1.300221	    0.322423	    0.236667	    0.223239	    0.989242	    0.720684	    0.794232	    1.562676	    1.028611	    0.979782	    1.668574	    1.200732	    1.098192
     3.135	0	0	    0	    0.949569	    0.829328	    0.766461	    1.791257	    1.438163	    1.464408	    1.668269	    1.211719	    1.275196	    0.322118	    0.239414	    0.222019	    0.996262	    0.720684	    0.798199	    1.588312	    1.029221	    0.980697	    1.670405	    1.205921	    1.093004
     3.190	0	0	    0	    0.949569	    0.832990	    0.772259	    1.790341	    1.433585	    1.461051	    1.669490	    1.228199	    1.297475	    0.325170	    0.239719	    0.223545	    0.997787	    0.719463	    0.797589	    1.599603	    1.036545	    0.985885	    1.680476	    1.207446	    1.096056
     3.245	0	0	    0	    0.952010	    0.834211	    0.772259	    1.800107	    1.440909	    1.465019	    1.667353	    1.232166	    1.307240	    0.326696	    0.242466	    0.225071	    1.001144	    0.724956	    0.801251	    1.611505	    1.058518	    1.002365	    1.685359	    1.220874	    1.104906
     3.300	0	0	    0	    0.951400	    0.835431	    0.773175	    1.803769	    1.449149	    1.470817	    1.678645	    1.240101	    1.296254	    0.327001	    0.241855	    0.226291	    1.004196	    0.729839	    0.803998	    1.613031	    1.057603	    0.999313	    1.694514	    1.219654	    1.111620
     3.355	0	0	    0	    0.953536	    0.836652	    0.777142	    1.808347	    1.452506	    1.478752	    1.687495	    1.229114	    1.320668	    0.327611	    0.242466	    0.225376	    1.004196	    0.730755	    0.805524	    1.624323	    1.045701	    1.004196	    1.694820	    1.225452	    1.116808
     3.410	0	0	    0	    0.959640	    0.843061	    0.778058	    1.801633	    1.454337	    1.478447	    1.697871	    1.254444	    1.331350	    0.326696	    0.242771	    0.225986	    1.001450	    0.734112	    0.813458	    1.646601	    1.066758	    1.016098	    1.703975	    1.232471	    1.122606
     3.465	0	0	    0	    0.958724	    0.840314	    0.777752	    1.810178	    1.459220	    1.485771	    1.697566	    1.237659	    1.338369	    0.327916	    0.241550	    0.225071	    1.011826	    0.737469	    0.813764	    1.638972	    1.073167	    1.013046	    1.708858	    1.230945	    1.125048
     3.520	0	0	    0	    0.951400	    0.829023	    0.767987	    1.808957	    1.454032	    1.473564	    1.670710	    1.214466	    1.297780	    0.320287	    0.238499	    0.222324	    1.007553	    0.728618	    0.804608	    1.593805	    1.042649	    0.992905	    1.676204	    1.211414	    1.105211
     3.575	0	0	    0	    0.948043	    0.828412	    0.764324	    1.793393	    1.437552	    1.462882	    1.668879	    1.212634	    1.298085	    0.316625	    0.234531	    0.220798	    0.992294	    0.719463	    0.795758	    1.579461	    1.036240	    0.972457	    1.662470	    1.203784	    1.095140
     3.630	0	0	    0	    0.945907	    0.828717	    0.763409	    1.793393	    1.440299	    1.458305	    1.666133	    1.221790	    1.289540	    0.319066	    0.234836	    0.218662	    0.994736	    0.722820	    0.794842	    1.576715	    1.028305	    0.972763	    1.662470	    1.201343	    1.091783
     3.685	0	0	    0	    0.946212	    0.828107	    0.765545	    1.792477	    1.436637	    1.459831	    1.663386	    1.219043	    1.298390	    0.317540	    0.236057	    0.218967	    0.992294	    0.721904	    0.795148	    1.580072	    1.035935	    0.981308	    1.671015	    1.205005	    1.091173
     3.740	0	0	    0	    0.945296	    0.830243	    0.769207	    1.791867	    1.440299	    1.461051	    1.657588	    1.231556	    1.304799	    0.320592	    0.235447	    0.221714	    0.997787	    0.723125	    0.794537	    1.585870	    1.035325	    0.980697	    1.675288	    1.207752	    1.103075
     3.795	0	0	    0	    0.950484	    0.831769	    0.767987	    1.794614	    1.440909	    1.463798	    1.667353	    1.227283	    1.288014	    0.319371	    0.236362	    0.222934	    0.998703	    0.727703	    0.799725	    1.584955	    1.038987	    0.990768	    1.667964	    1.204700	    1.102770
     3.850	0	0	    0	    0.947738	    0.831464	    0.769512	    1.797360	    1.441215	    1.469291	    1.675288	    1.223011	    1.306325	    0.322118	    0.237278	    0.222629	    0.999619	    0.722820	    0.801556	    1.610590	    1.039292	    0.995651	    1.685664	    1.217823	    1.107042
     3.905	0	0	    0	    0.952621	    0.837873	    0.775311	    1.799496	    1.446098	    1.465629	    1.670100	    1.236133	    1.322194	    0.323949	    0.239719	    0.222934	    1.003281	    0.729229	    0.804913	    1.616999	    1.055467	    0.999008	    1.702754	    1.221485	    1.119249
     3.960	0	0	    0	    0.955978	    0.837873	    0.774701	    1.801328	    1.453727	    1.472953	    1.685359	    1.241627	    1.315785	    0.324254	    0.241245	    0.226596	    1.006027	    0.731975	    0.807355	    1.628290	    1.052110	    0.996872	    1.696651	    1.229725	    1.119249
     4.015	0	0	    0	    0.960555	    0.842451	    0.776532	    1.806210	    1.456779	    1.474479	    1.713741	    1.237354	    1.332876	    0.322728	    0.240940	    0.225681	    1.008164	    0.737469	    0.810101	    1.623407	    1.077440	    1.010605	    1.695735	    1.232776	    1.129015
     4.070	0	0	    0	    0.957809	    0.840620	    0.780499	    1.814755	    1.457694	    1.486687	    1.696651	    1.252003	    1.318227	    0.324254	    0.241550	    0.225376	    1.011521	    0.737774	    0.814679	    1.634089	    1.071641	    1.014267	    1.715572	    1.243763	    1.133593
     4.125	0	0	    0	    0.951095	    0.836347	    0.774395	    1.817807	    1.459831	    1.485466	    1.679866	    1.248035	    1.309987	    0.322728	    0.237583	    0.222934	    1.013352	    0.738079	    0.810712	    1.599603	    1.047837	    0.991073	    1.695430	    1.219959	    1.113146
     4.180	0	0	    0	    0.946212	    0.831769	    0.767987	    1.804379	    1.444877	    1.464408	    1.660334	    1.225452	    1.300832	    0.318456	    0.236057	    0.219883	    1.001450	    0.727398	    0.797894	    1.588006	    1.037461	    0.978256	    1.673457	    1.206531	    1.106432
     4.235	0	0	    0	    0.950484	    0.826276	    0.767376	    1.791257	    1.439689	    1.459831	    1.662776	    1.221180	    1.303273	    0.318456	    0.233616	    0.218967	    0.992905	    0.725261	    0.795758	    1.594110	    1.029831	    0.980697	    1.679866	    1.213550	    1.104295
     4.290	0	0	    0	    0.948653	    0.832074	    0.768902	    1.795224	    1.442435	    1.467460	    1.678340	    1.228809	    1.304799	    0.317845	    0.234531	    0.218967	    1.000839	    0.722515	    0.800031	    1.598993	    1.033799	    0.986801	    1.681697	    1.210803	    1.104906
     4.345	0	0	    0	    0.949264	    0.832074	    0.771344	    1.794919	    1.441825	    1.462577	    1.678340	    1.235218	    1.309071	    0.317845	    0.234836	    0.220493	    0.995346	    0.724041	    0.800031	    1.602655	    1.039292	    0.978561	    1.681392	    1.215991	    1.106432
     4.400	0	0	    0	    0.949569	    0.834821	    0.768902	    1.798886	    1.441825	    1.471427	    1.673457	    1.235218	    1.304799	    0.318151	    0.236057	    0.220493	    1.001755	    0.724956	    0.803693	    1.608148	    1.040818	    1.001144	    1.677424	    1.220264	    1.108263
     4.455	0	0	    0	    0.950790	    0.833906	    0.771649	    1.799191	    1.447318	    1.469902	    1.682918	    1.230030	    1.316396	    0.318761	    0.236362	    0.221408	    1.001450	    0.731060	    0.802777	    1.600519	    1.053635	    1.006638	    1.686275	    1.216907	    1.113451
     4.510	0	0	    0	    0.957809	    0.836957	    0.775311	    1.801633	    1.447318	    1.474784	    1.690547	    1.237964	    1.329213	    0.320287	    0.238193	    0.222934	    1.003281	    0.730449	    0.806744	    1.602045	    1.064317	    1.003586	    1.689021	    1.225452	    1.121386
     4.565	0	0	    0	    0.956283	    0.839094	    0.775616	    1.801633	    1.446403	    1.478752	    1.696956	    1.247730	    1.327687	    0.321508	    0.237278	    0.222934	    1.004196	    0.730755	    0.810101	    1.631342	    1.060655	    1.007858	    1.696345	    1.227893	    1.121691
     4.620	0	0	    0	    0.955978	    0.840925	    0.778363	    1.813230	    1.455558	    1.475395	    1.698787	    1.259022	    1.337758	    0.321508	    0.240024	    0.223239	    1.010910	    0.737163	    0.810712	    1.620050	    1.074388	    1.016709	    1.711604	    1.238880	    1.122606
     4.675	0	0	    0	    0.957809	    0.843671	    0.778363	    1.813840	    1.464103	    1.485771	    1.704585	    1.264820	    1.337453	    0.324559	    0.240330	    0.225071	    1.012741	    0.742657	    0.817121	    1.645991	    1.077440	    1.017624	    1.718318	    1.243458	    1.132982
     4.730	0	0	    0	    0.953536	    0.836042	    0.769207	    1.811093	    1.459220	    1.481193	    1.696956	    1.237354	    1.307240	    0.319982	    0.236667	    0.220798	    1.009995	    0.735943	    0.811322	    1.617304	    1.041733	    0.996567	    1.687495	    1.219348	    1.115892
     4.785	0	0	    0	    0.950179	    0.832380	    0.768292	    1.794614	    1.439994	    1.470817	    1.683223	    1.234607	    1.300526	    0.316930	    0.233921	    0.218357	    0.996872	    0.725566	    0.804608	    1.590143	    1.040513	    0.976120	    1.678950	    1.215076	    1.108263
     4.840	0	0	    0	    0.947127	    0.827802	    0.769207	    1.795834	    1.441825	    1.461967	    1.665827	    1.238575	    1.300221	    0.317235	    0.231785	    0.216831	    0.995651	    0.722820	    0.796674	    1.587396	    1.045701	    0.988632	    1.677424	    1.212329	    1.100328
     4.895	0	0	    0	    0.944076	    0.831464	    0.768902	    1.799191	    1.443351	    1.466545	    1.670100	    1.242237	    1.302358	    0.316320	    0.233616	    0.218662	    0.996262	    0.723735	    0.800946	    1.585870	    1.040513	    0.988632	    1.685359	    1.213550	    1.109483
     4.950	0	0	    0	    0.948959	    0.833600	    0.764935	    1.798276	    1.447929	    1.462577	    1.693904	    1.243153	    1.310597	    0.317235	    0.234531	    0.219577	    0.997177	    0.728008	    0.801556	    1.594110	    1.056687	    0.989853	    1.677729	    1.219959	    1.112840
     5.005	0	0	    0	    0.950484	    0.831159	    0.772259	    1.793088	    1.447623	    1.469291	    1.688106	    1.232166	    1.307546	    0.318456	    0.235447	    0.219883	    0.999619	    0.728618	    0.805219	    1.594720	    1.036851	    0.993515	    1.684443	    1.219348	    1.111620
     5.060	0	0	    0	    0.952621	    0.836347	    0.772564	    1.801022	    1.444266	    1.470817	    1.670100	    1.235828	    1.301747	    0.320592	    0.236057	    0.219577	    1.001755	    0.728618	    0.806744	    1.612116	    1.054856	    1.005112	    1.694514	    1.222705	    1.112230
     5.115	0	0	    0	    0.949874	    0.834821	    0.776837	    1.803769	    1.449760	    1.478447	    1.691768	    1.233387	    1.318532	    0.317845	    0.236973	    0.222019	    1.005722	    0.733501	    0.809796	    1.600214	    1.062486	    1.005112	    1.694209	    1.231250	    1.118639
     5.170	0	0	    0	    0.957504	    0.839704	    0.778668	    1.813840	    1.455863	    1.478141	    1.711910	    1.233387	    1.339895	    0.319982	    0.238193	    0.222019	    1.009079	    0.737774	    0.811322	    1.620966	    1.067979	    1.010910	    1.696651	    1.239185	    1.130236
     5.225	0	0	    0	    0.957504	    0.841840	    0.776532	    1.803464	    1.455863	    1.484550	    1.711604	    1.260853	    1.337758	    0.323644	    0.240330	    0.223239	    1.006638	    0.738384	    0.819257	    1.638666	    1.084154	    1.014878	    1.716487	    1.239796	    1.136950
     5.280	0	0	    0	    0.960250	    0.845808	    0.780804	    1.818112	    1.465019	    1.494011	    1.719844	    1.258106	    1.339590	    0.324254	    0.239719	    0.222934	    1.018540	    0.741741	    0.820478	    1.652705	    1.066453	    1.017929	    1.724727	    1.247425	    1.135119
     5.335	0	0	    0	    0.953841	    0.835431	    0.775006	    1.817502	    1.460136	    1.479057	    1.689326	    1.244984	    1.319448	    0.319066	    0.237888	    0.220493	    1.013962	    0.740215	    0.811627	    1.608148	    1.053635	    0.995346	    1.698482	    1.226673	    1.119249
     5.390	0	0	    0	    0.943160	    0.826276	    0.766461	    1.794003	    1.446708	    1.464103	    1.671931	    1.224537	    1.302358	    0.315404	    0.231785	    0.218967	    0.996567	    0.728008	    0.800946	    1.574273	    1.034714	    0.986801	    1.671626	    1.215991	    1.109789
     5.445	0	0	    0	    0.947127	    0.825666	    0.763714	    1.788510	    1.443046	    1.463493	    1.664302	    1.213855	    1.307546	    0.314183	    0.232090	    0.216831	    0.992294	    0.726787	    0.800946	    1.581903	    1.028916	    0.991073	    1.672847	    1.208362	    1.100938
     5.500	0	0	    0	    0.946517	    0.828717	    0.767681	    1.793088	    1.440299	    1.458305	    1.674372	    1.217823	    1.300221	    0.314488	    0.232395	    0.216831	    0.991379	    0.723125	    0.798199	    1.581292	    1.032578	    0.980697	    1.671015	    1.206836	    1.099107
     5.555	0	0	    0	    0.946822	    0.831464	    0.770733	    1.795529	    1.432670	    1.463493	    1.671626	    1.230945	    1.298695	    0.315099	    0.232700	    0.217136	    0.998093	    0.725872	    0.801251	    1.589227	    1.037766	    0.979782	    1.675288	    1.214466	    1.103380
     5.610	0	0	    0	    0.949874	    0.832380	    0.768597	    1.796750	    1.438773	    1.468986	    1.674372	    1.228809	    1.321279	    0.315709	    0.234226	    0.218967	    0.998398	    0.723430	    0.803388	    1.585565	    1.044480	    0.990463	    1.676509	    1.215686	    1.111620
     5.665	0	0	    0	    0.950484	    0.833295	    0.767376	    1.796445	    1.440604	    1.464714	    1.689937	    1.244984	    1.305409	    0.315404	    0.234226	    0.218357	    0.999619	    0.729839	    0.804303	    1.576410	    1.046616	    1.007858	    1.683223	    1.218738	    1.111620
     5.720	0	0	    0	    0.951705	    0.837873	    0.771649	    1.797665	    1.446403	    1.469596	    1.674372	    1.246204	    1.315175	    0.317540	    0.234226	    0.220188	    1.000229	    0.731975	    0.807965	    1.609064	    1.049973	    1.004807	    1.690547	    1.221485	    1.114366
     5.775	0	0	    0	    0.955367	    0.837263	    0.774701	    1.799496	    1.450980	    1.479362	    1.695430	    1.254749	    1.317922	    0.318456	    0.236667	    0.220798	    1.003281	    0.735943	    0.814069	    1.610590	    1.070115	    1.000839	    1.690242	    1.225452	    1.113451
     5.830	0	0	    0	    0.955062	    0.836652	    0.776226	    1.802548	    1.456779	    1.481498	    1.692378	    1.250782	    1.327993	    0.319677	    0.238193	    0.222324	    1.005417	    0.738079	    0.813153	    1.624323	    1.061875	    1.021286	    1.700923	    1.233082	    1.126879
     5.885	0	0	    0	    0.958419	    0.836957	    0.776532	    1.811704	    1.458915	    1.483024	    1.711299	    1.251392	    1.332876	    0.319677	    0.238193	    0.222629	    1.013657	    0.742657	    0.822004	    1.627070	    1.067674	    1.023117	    1.714046	    1.238575	    1.132982
     5.940	0	0	    0	    0.956283	    0.836347	    0.774090	    1.818112	    1.455863	    1.489738	    1.717708	    1.247120	    1.335317	    0.319982	    0.237583	    0.222934	    1.014878	    0.739300	    0.818341	    1.616388	    1.062791	    1.012436	    1.703059	    1.233997	    1.121080
     5.995	0	0	    0	    0.947738	    0.829938	    0.765850	    1.799802	    1.448234	    1.474784	    1.682612	    1.235523	    1.299306	    0.315709	    0.233921	    0.218662	    1.002060	    0.734417	    0.809491	    1.579461	    1.038682	    0.989548	    1.674983	    1.216907	    1.103990
     6.050	0	0	    0	    0.940719	    0.828412	    0.763714	    1.796750	    1.438468	    1.461967	    1.657588	    1.228199	    1.297780	    0.313878	    0.231479	    0.216220	    1.000839	    0.727703	    0.802472	    1.579767	    1.039292	    0.985885	    1.679866	    1.208667	    1.103990
     6.105	0	0	    0	    0.943771	    0.825971	    0.765240	    1.793698	    1.439384	    1.457389	    1.672236	    1.213245	    1.299306	    0.312352	    0.231174	    0.215610	    0.990158	    0.723735	    0.799420	    1.559319	    1.029221	    0.989853	    1.659113	    1.203174	    1.094835
     6.160	0	0	    0	    0.941024	    0.826886	    0.761883	    1.785763	    1.437247	    1.462272	    1.660639	    1.209888	    1.305104	    0.313573	    0.231174	    0.216526	    0.989548	    0.724651	    0.802472	    1.568780	    1.023423	    0.979782	    1.662776	    1.196155	    1.096056
     6.215	0	0	    0	    0.946822	    0.825666	    0.766461	    1.792782	    1.438468	    1.465629	    1.685054	    1.217517	    1.299611	    0.313573	    0.232700	    0.216526	    0.998398	    0.724346	    0.806134	    1.583734	    1.033799	    0.986801	    1.674983	    1.205921	    1.098192
     6.270	0	0	    0	    0.942245	    0.829633	    0.767987	    1.795834	    1.441520	    1.463493	    1.671015	    1.226978	    1.314870	    0.313878	    0.233005	    0.216220	    0.998093	    0.728008	    0.803693	    1.591974	    1.027085	    0.988632	    1.672541	    1.207752	    1.101244
     6.325	0	0	    0	    0.949874	    0.831159	    0.769512	    1.801022	    1.441520	    1.465629	    1.678340	    1.236439	    1.314565	    0.314183	    0.233310	    0.219272	    0.996262	    0.728618	    0.806134	    1.574578	    1.042954	    1.001755	    1.675593	    1.220569	    1.107958
     6.380	0	0	    0	    0.953536	    0.833600	    0.768902	    1.795224	    1.445487	    1.469902	    1.699702	    1.251087	    1.316091	    0.316014	    0.234531	    0.219577	    1.001450	    0.732586	    0.810712	    1.589227	    1.053330	    1.009079	    1.679561	    1.223621	    1.116503
     6.435	0	0	    0	    0.954757	    0.836042	    0.773175	    1.805295	    1.448844	    1.477531	    1.695735	    1.246509	    1.317311	    0.319677	    0.236667	    0.218967	    1.007248	    0.735027	    0.812238	    1.615778	    1.062791	    1.008774	    1.696345	    1.226062	    1.116503
     6.490	0	0	    0	    0.951705	    0.840314	    0.777752	    1.811093	    1.454948	    1.472038	    1.676814	    1.255055	    1.331044	    0.319677	    0.236667	    0.220798	    1.007248	    0.737774	    0.816815	    1.623407	    1.066148	    1.007553	    1.703365	    1.235828	    1.125353
     6.545	0	0	    0	    0.957198	    0.837568	    0.777447	    1.811704	    1.456168	    1.483940	    1.706416	    1.255055	    1.345998	    0.319677	    0.238193	    0.222324	    1.015793	    0.738994	    0.820478	    1.612726	    1.072862	    1.020981	    1.705196	    1.237049	    1.132067
     6.600	0	0	    0	    0.951705	    0.831769	    0.769207	    1.815366	    1.459220	    1.480888	    1.688411	    1.230030	    1.314260	    0.318151	    0.235447	    0.219577	    1.010300	    0.739300	    0.817731	    1.600824	    1.049973	    1.005112	    1.687190	    1.221180	    1.115587
     6.655	0	0	    0	    0.947433	    0.828717	    0.763409	    1.796750	    1.442435	    1.464714	    1.664912	    1.228504	    1.293812	    0.312963	    0.231785	    0.215915	    0.998398	    0.729534	    0.803388	    1.590448	    1.038376	    0.973678	    1.673762	    1.204395	    1.098802
     6.710	0	0	    0	    0.942550	    0.826886	    0.765850	    1.790646	    1.438163	    1.458915	    1.656977	    1.216907	    1.299001	    0.312352	    0.231785	    0.215305	    0.994430	    0.721294	    0.800641	    1.576715	    1.034104	    0.978256	    1.669184	    1.210193	    1.093614
     6.765	0	0	    0	    0.944991	    0.823529	    0.762188	    1.792782	    1.437858	    1.459831	    1.669490	    1.206836	    1.302358	    0.311131	    0.230564	    0.215305	    0.994736	    0.724956	    0.801251	    1.561456	    1.027085	    0.977035	    1.664912	    1.200122	    1.095140
     6.820	0	0	    0	    0.943160	    0.827192	    0.764324	    1.789120	    1.438773	    1.464408	    1.670405	    1.220874	    1.299306	    0.313573	    0.231785	    0.215610	    0.993515	    0.724956	    0.804608	    1.577935	    1.025864	    0.976425	    1.662776	    1.197070	    1.089952
     6.875	0	0	    0	    0.945907	    0.829633	    0.765240	    1.792172	    1.436637	    1.462272	    1.673762	    1.223621	    1.300832	    0.313268	    0.230869	    0.216220	    0.995041	    0.726482	    0.804913	    1.575799	    1.022812	    0.974594	    1.668574	    1.201648	    1.094835
     6.930	0	0	    0	    0.947433	    0.828717	    0.769818	    1.792477	    1.439994	    1.459525	    1.684749	    1.233387	    1.323415	    0.314488	    0.230564	    0.216831	    0.995956	    0.728008	    0.802472	    1.572442	    1.040513	    0.987411	    1.669795	    1.205005	    1.097887
     6.985	0	0	    0	    0.945907	    0.829633	    0.769512	    1.797971	    1.445182	    1.460136	    1.684443	    1.234913	    1.317006	    0.314794	    0.233616	    0.218357	    1.000229	    0.733196	    0.805829	    1.595026	    1.031968	    0.998703	    1.678340	    1.214466	    1.106737
     7.040	0	0	    0	    0.954147	    0.832685	    0.771954	    1.799802	    1.450370	    1.474174	    1.693294	    1.242237	    1.324025	    0.315709	    0.234836	    0.218967	    1.003891	    0.734112	    0.814069	    1.588312	    1.053330	    0.997482	    1.686885	    1.224231	    1.112230
     7.095	0	0	    0	    0.953231	    0.837873	    0.774395	    1.806516	    1.455863	    1.473869	    1.700313	    1.245899	    1.327687	    0.317845	    0.234531	    0.219577	    1.007248	    0.737163	    0.816205	    1.608148	    1.054246	    1.001755	    1.698787	    1.222705	    1.119554
     7.150	0	0	    0	    0.956283	    0.841230	    0.775616	    1.815061	    1.454337	    1.480888	    1.709163	    1.253223	    1.337758	    0.318456	    0.235447	    0.220493	    1.010605	    0.740520	    0.818647	    1.621271	    1.069200	    1.009689	    1.699702	    1.233692	    1.125658
     7.205	0	0	    0	    0.958419	    0.841230	    0.777752	    1.821775	    1.460441	    1.486076	    1.703975	    1.250782	    1.346609	    0.318761	    0.237278	    0.221408	    1.014267	    0.740826	    0.822309	    1.625238	    1.075303	    1.020981	    1.716487	    1.241321	    1.132372
     7.260	0	0	    0	    0.948653	    0.831769	    0.769818	    1.817502	    1.459831	    1.480888	    1.668879	    1.241016	    1.327077	    0.317235	    0.235447	    0.219577	    1.010910	    0.741741	    0.813764	    1.589837	    1.044785	    0.990463	    1.692988	    1.219959	    1.115892
     7.315	0	0	    0	    0.949569	    0.827802	    0.762188	    1.797665	    1.444572	    1.468376	    1.674067	    1.230030	    1.292592	    0.313268	    0.231174	    0.216526	    0.997177	    0.727398	    0.805219	    1.566644	    1.028916	    0.973678	    1.674067	    1.208972	    1.105211
     7.370	0	0	    0	    0.944686	    0.825971	    0.764324	    1.795529	    1.437552	    1.462577	    1.671931	    1.235218	    1.293202	    0.312657	    0.229038	    0.214694	    0.992599	    0.724956	    0.804608	    1.566949	    1.039597	    0.981308	    1.675898	    1.208667	    1.098802
     7.425	0	0	    0	    0.944991	    0.828717	    0.768902	    1.790341	    1.439689	    1.459831	    1.668879	    1.241321	    1.318837	    0.312352	    0.231479	    0.214389	    0.990768	    0.726787	    0.802472	    1.577020	    1.030137	    0.970626	    1.675288	    1.211109	    1.099718
     7.480	0	0	    0	    0.946212	    0.830549	    0.767681	    1.797665	    1.439994	    1.460746	    1.671626	    1.231250	    1.307546	    0.311131	    0.230259	    0.215000	    0.995651	    0.727092	    0.801862	    1.560540	    1.045396	    0.984054	    1.674678	    1.215076	    1.102770
     7.535	0	0	    0	    0.947127	    0.828717	    0.764019	    1.789425	    1.444877	    1.463493	    1.674678	    1.231861	    1.314260	    0.313268	    0.231785	    0.216220	    0.990158	    0.728313	    0.803693	    1.585565	    1.038376	    0.989853	    1.677119	    1.215076	    1.107347
     7.590	0	0	    0	    0.947127	    0.833600	    0.765545	    1.794003	    1.442130	    1.468986	    1.688716	    1.255055	    1.318227	    0.314488	    0.232395	    0.216220	    0.992905	    0.729839	    0.804303	    1.595331	    1.040818	    0.998398	    1.685969	    1.215991	    1.108873
     7.645	0	0	    0	    0.949264	    0.836347	    0.771954	    1.807431	    1.448539	    1.468681	    1.692073	    1.243458	    1.346609	    0.315099	    0.232395	    0.218357	    1.003586	    0.733806	    0.807965	    1.601434	    1.043565	    1.003891	    1.690242	    1.219348	    1.114061
     7.700	0	0	    0	    0.952621	    0.837568	    0.774395	    1.810483	    1.457389	    1.469902	    1.693599	    1.253223	    1.340505	    0.317235	    0.233616	    0.218051	    1.001755	    0.735943	    0.809186	    1.592889	    1.060960	    1.007553	    1.690242	    1.222705	    1.115587
     7.755	0	0	    0	    0.959640	    0.836042	    0.776532	    1.811093	    1.454948	    1.478141	    1.695125	    1.262684	    1.333486	    0.317845	    0.234531	    0.220798	    1.006943	    0.739605	    0.814984	    1.621576	    1.064317	    1.012741	    1.696345	    1.225147	    1.121996
     7.810	0	0	    0	    0.958724	    0.838788	    0.777447	    1.812314	    1.461662	    1.485771	    1.715572	    1.274281	    1.344167	    0.320287	    0.235142	    0.220188	    1.005417	    0.742962	    0.821698	    1.635309	    1.059434	    1.009384	    1.713436	    1.231250	    1.120470
     7.865	0	0	    0	    0.949569	    0.832074	    0.772564	    1.817807	    1.458915	    1.480278	    1.696651	    1.252308	    1.335012	    0.316014	    0.234836	    0.217441	    1.007553	    0.735332	    0.816815	    1.614862	    1.041428	    0.990768	    1.687495	    1.223926	    1.108263
     7.920	0	0	    0	    0.947738	    0.827497	    0.765850	    1.800107	    1.443351	    1.467155	    1.694209	    1.242542	    1.317311	    0.312352	    0.230869	    0.216220	    0.993515	    0.726787	    0.803388	    1.574884	    1.034409	    0.994430	    1.671626	    1.212634	    1.101549
     7.975	0	0	    0	    0.943465	    0.825971	    0.766766	    1.794919	    1.440299	    1.468376	    1.681697	    1.241627	    1.310903	    0.311742	    0.228733	    0.215305	    0.991073	    0.725872	    0.802472	    1.575494	    1.036851	    0.988632	    1.667659	    1.208362	    1.099718
     8.030	0	0	    0	    0.943465	    0.830243	    0.767071	    1.794003	    1.436332	    1.462577	    1.671626	    1.240406	    1.310903	    0.312963	    0.228733	    0.213474	    0.995346	    0.728313	    0.801862	    1.591058	    1.035630	    0.984360	    1.680171	    1.201343	    1.098192
     8.085	0	0	    0	    0.945296	    0.831769	    0.766461	    1.801022	    1.440299	    1.465324	    1.685664	    1.246509	    1.306630	    0.313573	    0.230564	    0.215915	    0.990463	    0.728008	    0.805524	    1.574273	    1.031662	    0.971847	    1.678950	    1.212940	    1.104295
     8.140	0	0	    0	    0.948348	    0.825971	    0.769207	    1.801938	    1.442741	    1.463493	    1.695430	    1.248035	    1.325551	    0.313268	    0.230564	    0.215305	    0.995346	    0.726787	    0.805219	    1.580987	    1.053025	    0.994430	    1.679866	    1.214771	    1.105211
     8.195	0	0	    0	    0.952010	    0.829023	    0.770428	    1.795224	    1.444266	    1.469902	    1.689021	    1.243763	    1.328298	    0.314183	    0.231785	    0.216526	    0.991684	    0.733196	    0.807660	    1.593500	    1.036851	    0.989242	    1.683833	    1.216297	    1.106126
     8.250	0	0	    0	    0.955062	    0.834516	    0.771038	    1.802853	    1.447623	    1.472343	    1.710079	    1.275502	    1.342031	    0.316320	    0.232700	    0.218051	    0.995346	    0.732586	    0.810407	    1.594415	    1.049363	    0.997787	    1.686885	    1.219043	    1.114977
     8.305	0	0	    0	    0.955978	    0.839094	    0.773785	    1.803464	    1.447929	    1.474784	    1.696956	    1.272755	    1.340200	    0.316320	    0.232395	    0.217441	    0.997177	    0.735332	    0.815290	    1.618830	    1.048447	    1.008469	    1.696040	    1.227893	    1.118334
     8.360	0	0	    0	    0.951705	    0.838178	    0.778668	    1.810178	    1.451896	    1.479667	    1.685969	    1.272145	    1.356680	    0.317540	    0.236667	    0.219272	    1.000839	    0.737163	    0.818647	    1.609674	    1.059434	    1.003586	    1.702144	    1.234607	    1.125658
     8.415	0	0	    0	    0.959945	    0.842451	    0.776226	    1.819333	    1.462577	    1.488518	    1.724422	    1.266346	    1.347829	    0.317845	    0.234836	    0.220798	    1.007858	    0.740520	    0.817426	    1.619135	    1.062791	    1.017319	    1.710689	    1.235828	    1.134203
     8.470	0	0	    0	    0.952010	    0.833295	    0.768902	    1.812924	    1.459220	    1.476310	    1.708553	    1.256580	    1.324636	    0.315709	    0.233005	    0.217441	    1.001144	    0.737469	    0.814984	    1.595026	    1.037461	    0.991684	    1.688106	    1.220569	    1.110704
     8.525	0	0	    0	    0.945296	    0.829633	    0.763714	    1.793698	    1.439384	    1.459525	    1.679255	    1.237659	    1.320058	    0.310521	    0.229953	    0.214084	    0.992599	    0.726787	    0.802472	    1.569696	    1.031052	    0.979477	    1.671931	    1.202564	    1.100328
     8.580	0	0	    0	    0.944686	    0.828717	    0.766461	    1.794614	    1.438163	    1.459831	    1.679561	    1.233082	    1.323720	    0.311437	    0.228733	    0.213474	    0.986496	    0.722210	    0.799115	    1.573053	    1.038071	    0.976730	    1.675593	    1.209277	    1.091173
     8.635	0	0	    0	    0.943771	    0.823529	    0.768292	    1.791257	    1.439078	    1.453727	    1.683833	    1.236133	    1.316701	    0.309911	    0.229343	    0.213779	    0.991379	    0.722820	    0.798505	    1.567864	    1.033799	    0.974594	    1.669795	    1.205921	    1.099718
     8.690	0	0	    0	    0.950179	    0.828107	    0.766766	    1.795529	    1.438773	    1.462882	    1.677119	    1.242542	    1.332570	    0.309606	    0.230564	    0.213474	    0.988022	    0.722515	    0.804608	    1.573968	    1.049668	    0.983749	    1.674067	    1.209888	    1.101549
     8.745	0	0	    0	    0.948043	    0.829328	    0.767071	    1.796750	    1.439689	    1.464103	    1.682612	    1.256275	    1.330434	    0.310521	    0.229038	    0.215305	    0.990768	    0.726482	    0.801862	    1.574578	    1.033188	    0.980087	    1.678035	    1.211109	    1.100023
     8.800	0	0	    0	    0.949569	    0.829633	    0.767376	    1.802853	    1.441825	    1.463798	    1.691157	    1.250172	    1.332570	    0.312963	    0.231785	    0.215305	    0.990463	    0.727703	    0.804608	    1.574884	    1.049668	    0.998703	    1.683223	    1.214160	    1.105211
     8.855	0	0	    0	    0.946822	    0.835126	    0.774090	    1.805600	    1.445792	    1.466239	    1.692683	    1.262989	    1.347524	    0.313878	    0.230869	    0.216526	    1.000229	    0.730755	    0.807050	    1.591363	    1.049668	    0.998093	    1.686275	    1.218128	    1.107958
     8.910	0	0	    0	    0.955978	    0.840009	    0.773175	    1.800412	    1.452201	    1.476005	    1.703365	    1.260548	    1.334707	    0.314794	    0.231785	    0.217136	    0.994736	    0.731670	    0.811627	    1.587091	    1.052110	    1.003891	    1.685969	    1.217517	    1.112230
     8.965	0	0	    0	    0.951095	    0.837568	    0.776837	    1.804685	    1.452506	    1.474174	    1.709163	    1.263905	    1.348440	    0.316930	    0.233005	    0.217746	    0.995956	    0.735637	    0.810101	    1.603265	    1.067674	    1.021286	    1.697871	    1.225757	    1.117418
     9.020	0	0	    0	    0.956283	    0.841840	    0.781720	    1.818723	    1.457389	    1.482109	    1.729000	    1.282521	    1.369802	    0.317235	    0.234836	    0.219883	    1.008469	    0.740215	    0.820478	    1.606928	    1.059739	    1.027695	    1.707942	    1.233997	    1.125048
     9.075	0	0	    0	    0.948653	    0.830549	    0.773480	    1.817807	    1.456474	    1.481193	    1.695125	    1.261769	    1.348440	    0.315099	    0.233005	    0.218357	    1.005112	    0.733806	    0.814374	    1.582818	    1.055772	    0.990463	    1.692683	    1.227283	    1.113146
     9.130	0	0	    0	    0.945602	    0.828717	    0.762799	    1.797665	    1.438468	    1.463493	    1.677424	    1.257191	    1.316396	    0.310521	    0.228733	    0.213474	    0.991684	    0.726177	    0.805829	    1.572747	    1.027695	    0.986496	    1.671321	    1.205005	    1.095445
     9.185	0	0	    0	    0.940108	    0.827802	    0.761578	    1.787594	    1.434195	    1.461662	    1.661555	    1.243458	    1.312428	    0.310521	    0.227817	    0.212253	    0.981308	    0.720073	    0.800031	    1.566949	    1.025254	    0.971542	    1.663386	    1.203479	    1.090562
     9.240	0	0	    0	    0.941634	    0.828717	    0.765240	    1.792172	    1.430533	    1.449760	    1.674067	    1.250477	    1.326162	    0.309300	    0.227207	    0.212558	    0.983444	    0.721294	    0.791485	    1.552911	    1.030137	    0.972763	    1.658198	    1.200732	    1.089342
     9.295	0	0	    0	    0.939498	    0.827802	    0.766461	    1.784237	    1.436637	    1.451286	    1.681392	    1.239490	    1.323415	    0.309606	    0.227817	    0.212863	    0.981918	    0.720073	    0.792401	    1.563287	    1.019455	    0.981613	    1.666133	    1.199817	    1.094835
     9.350	0	0	    0	    0.942550	    0.828412	    0.764019	    1.791867	    1.439078	    1.460136	    1.666438	    1.252308	    1.326772	    0.310521	    0.228428	    0.212863	    0.985885	    0.720378	    0.797589	    1.573358	    1.032883	    0.980392	    1.664302	    1.197681	    1.088426
     9.405	0	0	    0	    0.943160	    0.826886	    0.763409	    1.789120	    1.436637	    1.460441	    1.682918	    1.244373	    1.323720	    0.311437	    0.227512	    0.213779	    0.985275	    0.721904	    0.804608	    1.578851	    1.036240	    0.974594	    1.669184	    1.196765	    1.093919
     9.460	0	0	    0	    0.947127	    0.829023	    0.767681	    1.794919	    1.432975	    1.461662	    1.687190	    1.257801	    1.344167	    0.311742	    0.230259	    0.213779	    0.989242	    0.722515	    0.800946	    1.579461	    1.044175	    0.973678	    1.670100	    1.205005	    1.093309
     9.515	0	0	    0	    0.951400	    0.832990	    0.770123	    1.801938	    1.439994	    1.465324	    1.701534	    1.252003	    1.340505	    0.312657	    0.231174	    0.215610	    0.992294	    0.724956	    0.808270	    1.577935	    1.037766	    0.992294	    1.678035	    1.213550	    1.106126
     9.570	0	0	    0	    0.951095	    0.834821	    0.775616	    1.801633	    1.450065	    1.468986	    1.686885	    1.275196	    1.353628	    0.312963	    0.231785	    0.218051	    0.997482	    0.728923	    0.808270	    1.602045	    1.048753	    1.004501	    1.691463	    1.223926	    1.114977
     9.625	0	0	    0	    0.953536	    0.838788	    0.772564	    1.803464	    1.453727	    1.472038	    1.707637	    1.263905	    1.348745	    0.313878	    0.230869	    0.217746	    0.998398	    0.732280	    0.809186	    1.605707	    1.051804	    0.999924	    1.695430	    1.223926	    1.114061
     9.680	0	0	    0	    0.949264	    0.836957	    0.775006	    1.804685	    1.451591	    1.478752	    1.704280	    1.273671	    1.353933	    0.315404	    0.232090	    0.217136	    0.996262	    0.733806	    0.814679	    1.595026	    1.057298	    0.998398	    1.696651	    1.225147	    1.113451
     9.735	0	0	    0	    0.941634	    0.826581	    0.765240	    1.797055	    1.441520	    1.455558	    1.674067	    1.255055	    1.336538	    0.311437	    0.229648	    0.213169	    0.988937	    0.724651	    0.801251	    1.569390	    1.038682	    0.973678	    1.670100	    1.200427	    1.092088
     9.790	0	0	    0	    0.940719	    0.821393	    0.762493	    1.791562	    1.433585	    1.456779	    1.657282	    1.231556	    1.332265	    0.307469	    0.226291	    0.211337	    0.984970	    0.717327	    0.795148	    1.546807	    1.024033	    0.972763	    1.655451	    1.191272	    1.085985
     9.845	0	0	    0	    0.942855	    0.824445	    0.757916	    1.784543	    1.425040	    1.452811	    1.672847	    1.245899	    1.317922	    0.306554	    0.224155	    0.211032	    0.978256	    0.717021	    0.794537	    1.558709	    1.013352	    0.963912	    1.655146	    1.187610	    1.083848
     9.900	0	0	    0	    0.942855	    0.825971	    0.763104	    1.783017	    1.428702	    1.451896	    1.673457	    1.250477	    1.334707	    0.307164	    0.227512	    0.211643	    0.977340	    0.714885	    0.794232	    1.555962	    1.028916	    0.967269	    1.661555	    1.194934	    1.085985
     9.955	0	0	    0	    0.936751	    0.823835	    0.761578	    1.791257	    1.429923	    1.449454	    1.665522	    1.233997	    1.320668	    0.308995	    0.226902	    0.212253	    0.981613	    0.717937	    0.793927	    1.558404	    1.025559	    0.971542	    1.665522	    1.199207	    1.087205
    10.010	0	0	    0	    0.940414	    0.824140	    0.764324	    1.790341	    1.427176	    1.456168	    1.669795	    1.259632	    1.326162	    0.308385	    0.228122	    0.212253	    0.981613	    0.721904	    0.797284	    1.558709	    1.033188	    0.972457	    1.660029	    1.197681	    1.090867
    10.065	0	0	    0	    0.944686	    0.829938	    0.765545	    1.779049	    1.435416	    1.454032	    1.685359	    1.256886	    1.330129	    0.308690	    0.226902	    0.212253	    0.979477	    0.719463	    0.796674	    1.568780	    1.033799	    0.976730	    1.655756	    1.200427	    1.094835
    10.120	0	0	    0	    0.947433	    0.829328	    0.766461	    1.796445	    1.437247	    1.455863	    1.698787	    1.253223	    1.348745	    0.311131	    0.229648	    0.213779	    0.985580	    0.721294	    0.798199	    1.586786	    1.031357	    0.991684	    1.678340	    1.205310	    1.099718
    10.175	0	0	    0	    0.949874	    0.832380	    0.769512	    1.791257	    1.441215	    1.463798	    1.696040	    1.259632	    1.344472	    0.311742	    0.231174	    0.215305	    0.986801	    0.727398	    0.801251	    1.593194	    1.047532	    0.987411	    1.685969	    1.212634	    1.098802
    10.230	0	0	    0	    0.947127	    0.834211	    0.773480	    1.797055	    1.445487	    1.467460	    1.702449	    1.274281	    1.357290	    0.311742	    0.230564	    0.215610	    0.987106	    0.728923	    0.802167	    1.582513	    1.051499	    0.986191	    1.686885	    1.215686	    1.103990
    10.285	0	0	    0	    0.953536	    0.836347	    0.772869	    1.806516	    1.445487	    1.473259	    1.705806	    1.265126	    1.346304	    0.312047	    0.230564	    0.217136	    0.991989	    0.729534	    0.808270	    1.588617	    1.056382	    1.002365	    1.687495	    1.221180	    1.116503
    10.340	0	0	    0	    0.949569	    0.833600	    0.766155	    1.804685	    1.444572	    1.474784	    1.699092	    1.261769	    1.339284	    0.315099	    0.230564	    0.215915	    0.998703	    0.728618	    0.813764	    1.587396	    1.043259	    0.988022	    1.691157	    1.208667	    1.104906
    10.395	0	0	    0	    0.945296	    0.826886	    0.762799	    1.795529	    1.433585	    1.453117	    1.683223	    1.244678	    1.331350	    0.308080	    0.226902	    0.211643	    0.988632	    0.720684	    0.797284	    1.568475	    1.006943	    0.962387	    1.663081	    1.191272	    1.083238
    10.450	0	0	    0	    0.938582	    0.825055	    0.760357	    1.784237	    1.427787	    1.448844	    1.669795	    1.245289	    1.332570	    0.306249	    0.225681	    0.211032	    0.977035	    0.715801	    0.790265	    1.553216	    1.023728	    0.969406	    1.650263	    1.190967	    1.085679
    10.505	0	0	    0	    0.941329	    0.822004	    0.761578	    1.782406	    1.428702	    1.442130	    1.684138	    1.235523	    1.332876	    0.307164	    0.225681	    0.211643	    0.973373	    0.714885	    0.787518	    1.539788	    1.014878	    0.966354	    1.648127	    1.188830	    1.078660
    10.560	0	0	    0	    0.941939	    0.825055	    0.764019	    1.779355	    1.425040	    1.448844	    1.682002	    1.241016	    1.334401	    0.307164	    0.224765	    0.210422	    0.981918	    0.713664	    0.791180	    1.551995	    1.018845	    0.962997	    1.649958	    1.184863	    1.078660
    10.615	0	0	    0	    0.942855	    0.826581	    0.764019	    1.783627	    1.424430	    1.443046	    1.669184	    1.248951	    1.327993	    0.306859	    0.226596	    0.212863	    0.977951	    0.713970	    0.790265	    1.557794	    1.017624	    0.969100	    1.643854	    1.184253	    1.078965
    10.670	0	0	    0	    0.941329	    0.825666	    0.765545	    1.787289	    1.431144	    1.444877	    1.670405	    1.253529	    1.336843	    0.308080	    0.227817	    0.212558	    0.983139	    0.717327	    0.790265	    1.564202	    1.032883	    0.973373	    1.652399	    1.189441	    1.084154
    10.725	0	0	    0	    0.945602	    0.825666	    0.765850	    1.790951	    1.425040	    1.454337	    1.682002	    1.263600	    1.340810	    0.309606	    0.227817	    0.212253	    0.983444	    0.719463	    0.795758	    1.562982	    1.022812	    0.977951	    1.657893	    1.193713	    1.087510
    10.780	0	0	    0	    0.947127	    0.832990	    0.766766	    1.793088	    1.436637	    1.457389	    1.692683	    1.265431	    1.347829	    0.309911	    0.229343	    0.214084	    0.983139	    0.722210	    0.800641	    1.586481	    1.032578	    0.984665	    1.661250	    1.196765	    1.092699
    10.835	0	0	    0	    0.950179	    0.833906	    0.770428	    1.801328	    1.438468	    1.459220	    1.703670	    1.270924	    1.353017	    0.311437	    0.229038	    0.215000	    0.989853	    0.725872	    0.800641	    1.573968	    1.029526	    0.988937	    1.670100	    1.201038	    1.095445
    10.890	0	0	    0	    0.952010	    0.834821	    0.773785	    1.801328	    1.446098	    1.462882	    1.709468	    1.280995	    1.355764	    0.314488	    0.230564	    0.214694	    0.990768	    0.723430	    0.802167	    1.591669	    1.047532	    0.986496	    1.682307	    1.210193	    1.098497
    10.945	0	0	    0	    0.951705	    0.835431	    0.776226	    1.797665	    1.451286	    1.472953	    1.705501	    1.280385	    1.348440	    0.314794	    0.231479	    0.216526	    0.992599	    0.728618	    0.808270	    1.607538	    1.046006	    1.002670	    1.684749	    1.215076	    1.102770
    11.000	0	0	    0	    0.950790	    0.833295	    0.770123	    1.808347	    1.447929	    1.474174	    1.697871	    1.261463	    1.339284	    0.311437	    0.229648	    0.215915	    0.994736	    0.726787	    0.807660	    1.572137	    1.047532	    0.989548	    1.669490	    1.201343	    1.093919
    11.055	0	0	    0	    0.944686	    0.828107	    0.764019	    1.790951	    1.426566	    1.451286	    1.675593	    1.252918	    1.335317	    0.308080	    0.227207	    0.212253	    0.984054	    0.716411	    0.792401	    1.551080	    1.011826	    0.963607	    1.643854	    1.186084	    1.081407
    11.110	0	0	    0	    0.941634	    0.825360	    0.763714	    1.787900	    1.428092	    1.450370	    1.669795	    1.250782	    1.330739	    0.306554	    0.226596	    0.210117	    0.978561	    0.715801	    0.790265	    1.566033	    1.030747	    0.959945	    1.652399	    1.186999	    1.081712
    11.165	0	0	    0	    0.939803	    0.823529	    0.764935	    1.785458	    1.426261	    1.450675	    1.664912	    1.255055	    1.345083	    0.306554	    0.225071	    0.211032	    0.977951	    0.713359	    0.789654	    1.556878	    1.004501	    0.967269	    1.646296	    1.183337	    1.078965
    11.220	0	0	    0	    0.944381	    0.825360	    0.765850	    1.783627	    1.427176	    1.448844	    1.673457	    1.238575	    1.329824	    0.307469	    0.226902	    0.211643	    0.976425	    0.713359	    0.788434	    1.548028	    1.017929	    0.968795	    1.649653	    1.184863	    1.082628
    11.275	0	0	    0	    0.942550	    0.824750	    0.765850	    1.779049	    1.427787	    1.455863	    1.672236	    1.243458	    1.324025	    0.307164	    0.225071	    0.211032	    0.975204	    0.715496	    0.794232	    1.546197	    1.018540	    0.990158	    1.658503	    1.184863	    1.085069
    11.330	0	0	    0	    0.944991	    0.825971	    0.767987	    1.782101	    1.428092	    1.450370	    1.676814	    1.247120	    1.337453	    0.308995	    0.226596	    0.210727	    0.976120	    0.714885	    0.794232	    1.573053	    1.024643	    0.967269	    1.659724	    1.190967	    1.083543
    11.385	0	0	    0	    0.943771	    0.829938	    0.769512	    1.792782	    1.429007	    1.452506	    1.681697	    1.255360	    1.353017	    0.308080	    0.228733	    0.212558	    0.981308	    0.716106	    0.794842	    1.575189	    1.029526	    0.979477	    1.656062	    1.201038	    1.089647
    11.440	0	0	    0	    0.952010	    0.831464	    0.769207	    1.792782	    1.434806	    1.460746	    1.688106	    1.274281	    1.351186	    0.311742	    0.229038	    0.214389	    0.987106	    0.721904	    0.800336	    1.568170	    1.039597	    0.988327	    1.665827	    1.201038	    1.096056
    11.495	0	0	    0	    0.950790	    0.833600	    0.771038	    1.799191	    1.442130	    1.467460	    1.692988	    1.280690	    1.362173	    0.313268	    0.230564	    0.214084	    0.988632	    0.723430	    0.802777	    1.594110	    1.044480	    0.997787	    1.680171	    1.210193	    1.099718
    11.550	0	0	    0	    0.953841	    0.839094	    0.773175	    1.807736	    1.445487	    1.465629	    1.707942	    1.279774	    1.376516	    0.314183	    0.230869	    0.216220	    0.986801	    0.728313	    0.802777	    1.598383	    1.049058	    0.989242	    1.686885	    1.218738	    1.105821
    11.605	0	0	    0	    0.950484	    0.835126	    0.776532	    1.811704	    1.449454	    1.466239	    1.700923	    1.281910	    1.365530	    0.311437	    0.230564	    0.214694	    0.991989	    0.725566	    0.802777	    1.594110	    1.051499	    0.994430	    1.679255	    1.212329	    1.107347
    11.660	0	0	    0	    0.944381	    0.826886	    0.767987	    1.800107	    1.437247	    1.456168	    1.677119	    1.257801	    1.338979	    0.309911	    0.228122	    0.211948	    0.985885	    0.722515	    0.794232	    1.559625	    1.027390	    0.973373	    1.661250	    1.195544	    1.091478
    11.715	0	0	    0	    0.944991	    0.827192	    0.766155	    1.783322	    1.429618	    1.450980	    1.675898	    1.253223	    1.343557	    0.308995	    0.225071	    0.211032	    0.974594	    0.712139	    0.789960	    1.555962	    1.022812	    0.970626	    1.663691	    1.186694	    1.078965
    11.770	0	0	    0	    0.939803	    0.825360	    0.764935	    1.785458	    1.423514	    1.448539	    1.678340	    1.254139	    1.320058	    0.306859	    0.225376	    0.210727	    0.975204	    0.711223	    0.787518	    1.548943	    1.023728	    0.972152	    1.653925	    1.190356	    1.079881
    11.825	0	0	    0	    0.942245	    0.826886	    0.766461	    1.788510	    1.425956	    1.447318	    1.686580	    1.262989	    1.356985	    0.305638	    0.226291	    0.210422	    0.977951	    0.710002	    0.789960	    1.568780	    1.023117	    0.975509	    1.652094	    1.196765	    1.084154
    11.880	0	0	    0	    0.943771	    0.824750	    0.768597	    1.787289	    1.431449	    1.452506	    1.678645	    1.249561	    1.355459	    0.308690	    0.228122	    0.211948	    0.980087	    0.716106	    0.791180	    1.551690	    1.021592	    0.977035	    1.660029	    1.194629	    1.085985
    11.935	0	0	    0	    0.945907	    0.830243	    0.765850	    1.783627	    1.432975	    1.455863	    1.667659	    1.250172	    1.342947	    0.307164	    0.226291	    0.213169	    0.977035	    0.717021	    0.792096	    1.566033	    1.017319	    0.985885	    1.662776	    1.194018	    1.089647
    11.990	0	0	    0	    0.943465	    0.832685	    0.769207	    1.793088	    1.431449	    1.452811	    1.683528	    1.263905	    1.358206	    0.309606	    0.227817	    0.212558	    0.982528	    0.716716	    0.793622	    1.572442	    1.032883	    0.981308	    1.663996	    1.201648	    1.093004
    12.045	0	0	    0	    0.948959	    0.836042	    0.774701	    1.796750	    1.437552	    1.459831	    1.690242	    1.273365	    1.358816	    0.309300	    0.228733	    0.216220	    0.982834	    0.720684	    0.798810	    1.573968	    1.044785	    0.989242	    1.678340	    1.205921	    1.099718
    12.100	0	0	    0	    0.953231	    0.833295	    0.774701	    1.797971	    1.445182	    1.465629	    1.703059	    1.284657	    1.364614	    0.312963	    0.229953	    0.215915	    0.984054	    0.724956	    0.803388	    1.572442	    1.045396	    1.005112	    1.678035	    1.211719	    1.104601
    12.155	0	0	    0	    0.954757	    0.834516	    0.777447	    1.798276	    1.448844	    1.466545	    1.710384	    1.282216	    1.378347	    0.312657	    0.230869	    0.216831	    0.993210	    0.724651	    0.804303	    1.577630	    1.048753	    1.009079	    1.685664	    1.218738	    1.109483
    12.210	0	0	    0	    0.956283	    0.842145	    0.775616	    1.808957	    1.447623	    1.468986	    1.705501	    1.296559	    1.374685	    0.315404	    0.231785	    0.217441	    0.992905	    0.728313	    0.807355	    1.607843	    1.041733	    1.003891	    1.690852	    1.220874	    1.108263
    12.265	0	0	    0	    0.949264	    0.831464	    0.770123	    1.808652	    1.439078	    1.468070	    1.676509	    1.268482	    1.353323	    0.312963	    0.228733	    0.214389	    0.992294	    0.720684	    0.800946	    1.579156	    1.035019	    0.977646	    1.672236	    1.200427	    1.093309
    12.320	0	0	    0	    0.939803	    0.824140	    0.766461	    1.791867	    1.428702	    1.449760	    1.680781	    1.245594	    1.335927	    0.307469	    0.226291	    0.211337	    0.979477	    0.713054	    0.791180	    1.549554	    1.022202	    0.972763	    1.653620	    1.189746	    1.080491
    12.375	0	0	    0	    0.940414	    0.827192	    0.767376	    1.786374	    1.430228	    1.454032	    1.666438	    1.251392	    1.349355	    0.307164	    0.225681	    0.210422	    0.972457	    0.711833	    0.790265	    1.564813	    1.022507	    0.961471	    1.652399	    1.191882	    1.085374
    12.430	0	0	    0	    0.941634	    0.827192	    0.765850	    1.776608	    1.420462	    1.452201	    1.666133	    1.245899	    1.342641	    0.307164	    0.225071	    0.210422	    0.968795	    0.710918	    0.788434	    1.563287	    1.010910	    0.964523	    1.653925	    1.186389	    1.082628
    12.485	0	0	    0	    0.943465	    0.827497	    0.766155	    1.786374	    1.428397	    1.451896	    1.691463	    1.253834	    1.343862	    0.308080	    0.225681	    0.210117	    0.977340	    0.714580	    0.790265	    1.575494	    1.015793	    0.978866	    1.663081	    1.194629	    1.083238
    12.540	0	0	    0	    0.938582	    0.825971	    0.771344	    1.790341	    1.429618	    1.454643	    1.677119	    1.261463	    1.342336	    0.308995	    0.226902	    0.211337	    0.978866	    0.716411	    0.790265	    1.557488	    1.021286	    0.977646	    1.650263	    1.191577	    1.083848
    12.595	0	0	    0	    0.946517	    0.830854	    0.766155	    1.790646	    1.432670	    1.453727	    1.692378	    1.267567	    1.344778	    0.306859	    0.225681	    0.213169	    0.977340	    0.714275	    0.791485	    1.561456	    1.032273	    0.973068	    1.652705	    1.191882	    1.087205
    12.650	0	0	    0	    0.947738	    0.832380	    0.768597	    1.793393	    1.432364	    1.459831	    1.698177	    1.272145	    1.338369	    0.307774	    0.228733	    0.214084	    0.981613	    0.716411	    0.800031	    1.554742	    1.036240	    0.991379	    1.661555	    1.201038	    1.094530
    12.705	0	0	    0	    0.947127	    0.836042	    0.772259	    1.799802	    1.441215	    1.461967	    1.697871	    1.281300	    1.364920	    0.311742	    0.229953	    0.213779	    0.985580	    0.720073	    0.796979	    1.576410	    1.042039	    0.988327	    1.678950	    1.208667	    1.095445
    12.760	0	0	    0	    0.952926	    0.838178	    0.777447	    1.806821	    1.441825	    1.468986	    1.689937	    1.280995	    1.368887	    0.311742	    0.230259	    0.216220	    0.986801	    0.722210	    0.802167	    1.590753	    1.060655	    0.991989	    1.676814	    1.213855	    1.108873
    12.815	0	0	    0	    0.952010	    0.839399	    0.778058	    1.801022	    1.450065	    1.468986	    1.707332	    1.284352	    1.367971	    0.313573	    0.231785	    0.217746	    0.984970	    0.727398	    0.803998	    1.584649	    1.057298	    1.006027	    1.689326	    1.220569	    1.115587
    12.870	0	0	    0	    0.955062	    0.841840	    0.775006	    1.808652	    1.454032	    1.475395	    1.696040	    1.282826	    1.364614	    0.313878	    0.230259	    0.216526	    0.990463	    0.727703	    0.805524	    1.603876	    1.055772	    0.998093	    1.696651	    1.218128	    1.110399
    12.925	0	0	    0	    0.945907	    0.831769	    0.768292	    1.801938	    1.441215	    1.463188	    1.678645	    1.255970	    1.353017	    0.313268	    0.229648	    0.214694	    0.982223	    0.721904	    0.798199	    1.574578	    1.022812	    0.974594	    1.668574	    1.195544	    1.086290
    12.980	0	0	    0	    0.942245	    0.828717	    0.768597	    1.784237	    1.429923	    1.446403	    1.660029	    1.265431	    1.330434	    0.307469	    0.226596	    0.210727	    0.971542	    0.713664	    0.785992	    1.547417	    1.019150	    0.971542	    1.649958	    1.187610	    1.078355
    13.035	0	0	    0	    0.940414	    0.823835	    0.762493	    1.782712	    1.424125	    1.447623	    1.679255	    1.250172	    1.336538	    0.305028	    0.227207	    0.211337	    0.972152	    0.710002	    0.786297	    1.535210	    1.027085	    0.970016	    1.642634	    1.188525	    1.081102
    13.090	0	0	    0	    0.941329	    0.825666	    0.765545	    1.783017	    1.422599	    1.447623	    1.675898	    1.247120	    1.344167	    0.305333	    0.224765	    0.211032	    0.971542	    0.711833	    0.789044	    1.550774	    1.019150	    0.971237	    1.649958	    1.188830	    1.081712
    13.145	0	0	    0	    0.941329	    0.828717	    0.764935	    1.786679	    1.425345	    1.452506	    1.666438	    1.261463	    1.338064	    0.307469	    0.225376	    0.210422	    0.971542	    0.710613	    0.789044	    1.551690	    1.020981	    0.977035	    1.654231	    1.185779	    1.080491
    13.200	0	0	    0	    0.939803	    0.830243	    0.769512	    1.789731	    1.424125	    1.448844	    1.669490	    1.257801	    1.345998	    0.306249	    0.226596	    0.210727	    0.973068	    0.711528	    0.787518	    1.555047	    1.027085	    0.975204	    1.653925	    1.190356	    1.082017
    13.255	0	0	    0	    0.942550	    0.829328	    0.768597	    1.786984	    1.432975	    1.450370	    1.667353	    1.258106	    1.353628	    0.306859	    0.228428	    0.212253	    0.977951	    0.713054	    0.789960	    1.551995	    1.024643	    0.989242	    1.660334	    1.195850	    1.089342
    13.310	0	0	    0	    0.942550	    0.832074	    0.771344	    1.786374	    1.436027	    1.453727	    1.691768	    1.249256	    1.365835	    0.308995	    0.227207	    0.212253	    0.977340	    0.721294	    0.793622	    1.560235	    1.037461	    0.981308	    1.667353	    1.203174	    1.090257
    13.365	0	0	    0	    0.950790	    0.835737	    0.772564	    1.795529	    1.439994	    1.459831	    1.685664	    1.269398	    1.357900	    0.308690	    0.229343	    0.212863	    0.980697	    0.723430	    0.797284	    1.569085	    1.035325	    0.980087	    1.666438	    1.205005	    1.100328
    13.420	0	0	    0	    0.948959	    0.842145	    0.773175	    1.803159	    1.439689	    1.464408	    1.681086	    1.279774	    1.367361	    0.311437	    0.231479	    0.215915	    0.985580	    0.720989	    0.799725	    1.580072	    1.047227	    0.990158	    1.680781	    1.212940	    1.103990
    13.475	0	0	    0	    0.955062	    0.841535	    0.780804	    1.808347	    1.447318	    1.473564	    1.696345	    1.281300	    1.380484	    0.312657	    0.233616	    0.216526	    0.993210	    0.725872	    0.807050	    1.585870	    1.058518	    1.014267	    1.687800	    1.219959	    1.110399
    13.530	0	0	    0	    0.953841	    0.841535	    0.784161	    1.809873	    1.453117	    1.477836	    1.702144	    1.285267	    1.375906	    0.313573	    0.231785	    0.218662	    0.989548	    0.729839	    0.811627	    1.579156	    1.065537	    1.008469	    1.696040	    1.222705	    1.115892
    13.585	0	0	    0	    0.952621	    0.837568	    0.774395	    1.813230	    1.454337	    1.471427	    1.703365	    1.265126	    1.349966	    0.311131	    0.231174	    0.215305	    0.991989	    0.729839	    0.802777	    1.574273	    1.046006	    0.981003	    1.667659	    1.199512	    1.095750
    13.640	0	0	    0	    0.940108	    0.829633	    0.768597	    1.786069	    1.432975	    1.453117	    1.683833	    1.254444	    1.343557	    0.308690	    0.226902	    0.212253	    0.975204	    0.717021	    0.790265	    1.569696	    1.031052	    0.971542	    1.650874	    1.193103	    1.082933
    13.695	0	0	    0	    0.940719	    0.828412	    0.770123	    1.787289	    1.430533	    1.451286	    1.661860	    1.257496	    1.336843	    0.306859	    0.226596	    0.210727	    0.973068	    0.713664	    0.787823	    1.549554	    1.020371	    0.974289	    1.652094	    1.189441	    1.074388
    13.750	0	0	    0	    0.941329	    0.829023	    0.766461	    1.786679	    1.430228	    1.446403	    1.671015	    1.252308	    1.345083	    0.306249	    0.226596	    0.210422	    0.973983	    0.710307	    0.787518	    1.532769	    1.011521	    0.959335	    1.640192	    1.182116	    1.074083
    13.805	0	0	    0	    0.942245	    0.829023	    0.764935	    1.782712	    1.429923	    1.454337	    1.685969	    1.260243	    1.329824	    0.305943	    0.226291	    0.211032	    0.971542	    0.713359	    0.788434	    1.547723	    1.024033	    0.976425	    1.644770	    1.186999	    1.079881
    13.860	0	0	    0	    0.942855	    0.829328	    0.765240	    1.780880	    1.428397	    1.455558	    1.659113	    1.259327	    1.332570	    0.306554	    0.225986	    0.211032	    0.969406	    0.710307	    0.792706	    1.548943	    1.025254	    0.974289	    1.650263	    1.188830	    1.076219
    13.915	0	0	    0	    0.941329	    0.833906	    0.767987	    1.794308	    1.432059	    1.454948	    1.674678	    1.254444	    1.341115	    0.306859	    0.227512	    0.213474	    0.977951	    0.714885	    0.793927	    1.551385	    1.021592	    0.958419	    1.650568	    1.190051	    1.082933
    13.970	0	0	    0	    0.945907	    0.832990	    0.770428	    1.786069	    1.437552	    1.453727	    1.677119	    1.258412	    1.344167	    0.306859	    0.228733	    0.213474	    0.976120	    0.719768	    0.792706	    1.555962	    1.033799	    0.983139	    1.653925	    1.197986	    1.092699
    14.025	0	0	    0	    0.947127	    0.838483	    0.775006	    1.790341	    1.440299	    1.464408	    1.689631	    1.285878	    1.350576	    0.308995	    0.229648	    0.215915	    0.978866	    0.722820	    0.795758	    1.572442	    1.037461	    0.986191	    1.664607	    1.203784	    1.099413
    14.080	0	0	    0	    0.950179	    0.835431	    0.778668	    1.798581	    1.448234	    1.472038	    1.711910	    1.265126	    1.362478	    0.312657	    0.231174	    0.214694	    0.977646	    0.723430	    0.802472	    1.594110	    1.048447	    0.987411	    1.675288	    1.209583	    1.097581
    14.135	0	0	    0	    0.950484	    0.841840	    0.781720	    1.808347	    1.447013	    1.474479	    1.704891	    1.290150	    1.364920	    0.312657	    0.231479	    0.217441	    0.989242	    0.727398	    0.803388	    1.577325	    1.050584	    0.996872	    1.685054	    1.216602	    1.109483
    14.190	0	0	    0	    0.955673	    0.839399	    0.784466	    1.806821	    1.456168	    1.476921	    1.704280	    1.282521	    1.372549	    0.314183	    0.233310	    0.218051	    0.988937	    0.726482	    0.809186	    1.594110	    1.065537	    1.014878	    1.692378	    1.224537	    1.117113
    14.245	0	0	    0	    0.952621	    0.841840	    0.776226	    1.816587	    1.454337	    1.489128	    1.715877	    1.283742	    1.359731	    0.315709	    0.232090	    0.218967	    0.992905	    0.729229	    0.810712	    1.577630	    1.046311	    0.984360	    1.687800	    1.214771	    1.106737
    14.300	0	0	    0	    0.943465	    0.834516	    0.772564	    1.801022	    1.441520	    1.468681	    1.671015	    1.262379	    1.351492	    0.309911	    0.229038	    0.214694	    0.981918	    0.720378	    0.802167	    1.563592	    1.031357	    0.968795	    1.663996	    1.192798	    1.089342
    14.355	0	0	    0	    0.939498	    0.832990	    0.772564	    1.793088	    1.432670	    1.453727	    1.674678	    1.260548	    1.344778	    0.307774	    0.228122	    0.212558	    0.975509	    0.713359	    0.792096	    1.541924	    1.025254	    0.978256	    1.647822	    1.191577	    1.082322
    14.410	0	0	    0	    0.942855	    0.830549	    0.769818	    1.789731	    1.430533	    1.453117	    1.676814	    1.261463	    1.329519	    0.305943	    0.227512	    0.212863	    0.970626	    0.713359	    0.788434	    1.549859	    1.013657	    0.984054	    1.650568	    1.190967	    1.085985
    14.465	0	0	    0	    0.941939	    0.832074	    0.769818	    1.785458	    1.433890	    1.456168	    1.678035	    1.247730	    1.339895	    0.306859	    0.226291	    0.213169	    0.972763	    0.714275	    0.790875	    1.544976	    1.030137	    0.974899	    1.653620	    1.190661	    1.088121
    14.520	0	0	    0	    0.945907	    0.831159	    0.772869	    1.794919	    1.436027	    1.458915	    1.694209	    1.253223	    1.335927	    0.309606	    0.228122	    0.212863	    0.974289	    0.715801	    0.793622	    1.557488	    1.020371	    0.978561	    1.658198	    1.194629	    1.086595
    14.575	0	0	    0	    0.945602	    0.835737	    0.777142	    1.789120	    1.433280	    1.460136	    1.691463	    1.278859	    1.359731	    0.308690	    0.229038	    0.213474	    0.973373	    0.713970	    0.792706	    1.567864	    1.030442	    0.968490	    1.659724	    1.193713	    1.082933
    14.630	0	0	    0	    0.945296	    0.835126	    0.778668	    1.797055	    1.439078	    1.465019	    1.686580	    1.272145	    1.354849	    0.308690	    0.230259	    0.215915	    0.980392	    0.717632	    0.798810	    1.559625	    1.049668	    0.983444	    1.666133	    1.205310	    1.095445
    14.685	0	0	    0	    0.948348	    0.836347	    0.777752	    1.797665	    1.442435	    1.471122	    1.685969	    1.281300	    1.352712	    0.311437	    0.229953	    0.216220	    0.983139	    0.721294	    0.801556	    1.569696	    1.038071	    0.992599	    1.671015	    1.205005	    1.103990
    14.740	0	0	    0	    0.949874	    0.841535	    0.781415	    1.800107	    1.451896	    1.473259	    1.700313	    1.275502	    1.370108	    0.311131	    0.230869	    0.217136	    0.978866	    0.724346	    0.806134	    1.581292	    1.041428	    1.006943	    1.680476	    1.209277	    1.107958
    14.795	0	0	    0	    0.957198	    0.847333	    0.784771	    1.806821	    1.456474	    1.479667	    1.709773	    1.277943	    1.371023	    0.314183	    0.233005	    0.218051	    0.984054	    0.729839	    0.808576	    1.591058	    1.056992	    1.000534	    1.681392	    1.211414	    1.110704
    14.850	0	0	    0	    0.955367	    0.847944	    0.785992	    1.808652	    1.461051	    1.482414	    1.715267	    1.293507	    1.383536	    0.314794	    0.233921	    0.219272	    0.991379	    0.735027	    0.809796	    1.602350	    1.067674	    1.017624	    1.690547	    1.225147	    1.113146
    14.905	0	0	    0	    0.949264	    0.841535	    0.778058	    1.811398	    1.460441	    1.479667	    1.698177	    1.278553	    1.356069	    0.311437	    0.232090	    0.217441	    0.991073	    0.731365	    0.807355	    1.556573	    1.043870	    1.003891	    1.658503	    1.206226	    1.098192
    14.960	0	0	    0	    0.943465	    0.836957	    0.774395	    1.793698	    1.439689	    1.467155	    1.694209	    1.272450	    1.350271	    0.308995	    0.228122	    0.214694	    0.978256	    0.716716	    0.796063	    1.541009	    1.022202	    0.979171	    1.653010	    1.194324	    1.086595
    15.015	0	0	    0	    0.945296	    0.836957	    0.772564	    1.793088	    1.433280	    1.466239	    1.680781	    1.262989	    1.341726	    0.308995	    0.228122	    0.215305	    0.972457	    0.715190	    0.793317	    1.555047	    1.027695	    0.977646	    1.667659	    1.200732	    1.092088
    15.070	0	0	    0	    0.944991	    0.834821	    0.778363	    1.794308	    1.437552	    1.463493	    1.670100	    1.255055	    1.353323	    0.309606	    0.227817	    0.213474	    0.974289	    0.715496	    0.792706	    1.551080	    1.030442	    0.983139	    1.670710	    1.203784	    1.090867
    15.125	0	0	    0	    0.942245	    0.838483	    0.778973	    1.799496	    1.443351	    1.463798	    1.676204	    1.264515	    1.359731	    0.308690	    0.229953	    0.214389	    0.976425	    0.720684	    0.795758	    1.547112	    1.036851	    0.992294	    1.665217	    1.207446	    1.103990
    15.180	0	0	    0	    0.947738	    0.836652	    0.777752	    1.788205	    1.442741	    1.467765	    1.705196	    1.267567	    1.357595	    0.307164	    0.227512	    0.215305	    0.971542	    0.719463	    0.796368	    1.535210	    1.025864	    0.986191	    1.665217	    1.207752	    1.105211
    15.235	0	0	    0	    0.950179	    0.842451	    0.778973	    1.792172	    1.442435	    1.471427	    1.692683	    1.267567	    1.360952	    0.310521	    0.230869	    0.216526	    0.972763	    0.720073	    0.799420	    1.569085	    1.045396	    0.991379	    1.680781	    1.211109	    1.107042
    15.290	0	0	    0	    0.950484	    0.838788	    0.782635	    1.803464	    1.445487	    1.469596	    1.685359	    1.275196	    1.374990	    0.311131	    0.231479	    0.215305	    0.981918	    0.723430	    0.798505	    1.588312	    1.045396	    0.995346	    1.690547	    1.220874	    1.108568
    15.345	0	0	    0	    0.952010	    0.845502	    0.785687	    1.806821	    1.450065	    1.477226	    1.707942	    1.279774	    1.375906	    0.311131	    0.233921	    0.218051	    0.984360	    0.724346	    0.804608	    1.573663	    1.061570	    1.005417	    1.688716	    1.225452	    1.121080
    15.400	0	0	    0	    0.955978	    0.846418	    0.786908	    1.801022	    1.455253	    1.483940	    1.721981	    1.285573	    1.369497	    0.312963	    0.232700	    0.220493	    0.985275	    0.731365	    0.808881	    1.591669	    1.061875	    1.017624	    1.701228	    1.233692	    1.128710
    15.455	0	0	    0	    0.954147	    0.848554	    0.788128	    1.816281	    1.457389	    1.490043	    1.723201	    1.282216	    1.397574	    0.316014	    0.234836	    0.219883	    0.987411	    0.733501	    0.815290	    1.606317	    1.068894	    1.025559	    1.714046	    1.239796	    1.139696
    15.510	0	0	    0	    0.950790	    0.848554	    0.785992	    1.821164	    1.463188	    1.489738	    1.692073	    1.286183	    1.374685	    0.313878	    0.234531	    0.219883	    0.992599	    0.731975	    0.811017	    1.580987	    1.053635	    1.003281	    1.706416	    1.233387	    1.125353
    15.565	0	0	    0	    0.947127	    0.837568	    0.779889	    1.799496	    1.450065	    1.472648	    1.690242	    1.251698	    1.352407	    0.310216	    0.230564	    0.216831	    0.977646	    0.723430	    0.803388	    1.548333	    1.031662	    0.991379	    1.685664	    1.214160	    1.111315
    15.620	0	0	    0	    0.944686	    0.838178	    0.776837	    1.793393	    1.443656	    1.470207	    1.688411	    1.264210	    1.344472	    0.307774	    0.230259	    0.215000	    0.975814	    0.719768	    0.795453	    1.539483	    1.028611	    0.995346	    1.681392	    1.212329	    1.103380
    15.675	0	0	    0	    0.945907	    0.836652	    0.776226	    1.794003	    1.445182	    1.468070	    1.686885	    1.268482	    1.346609	    0.308080	    0.228428	    0.213779	    0.974289	    0.717632	    0.794842	    1.548943	    1.029221	    0.981613	    1.679561	    1.209888	    1.100633
    15.730	0	0	    0	    0.946822	    0.837873	    0.780194	    1.794003	    1.442741	    1.468986	    1.683223	    1.270924	    1.348745	    0.307469	    0.229343	    0.214694	    0.976120	    0.714885	    0.797894	    1.545586	    1.033494	    0.979171	    1.669795	    1.208057	    1.108263
    15.785	0	0	    0	    0.944991	    0.836957	    0.780499	    1.797360	    1.441215	    1.469596	    1.688106	    1.270924	    1.349050	    0.308080	    0.228733	    0.215610	    0.977646	    0.716411	    0.797894	    1.559014	    1.042954	    0.991073	    1.672541	    1.217212	    1.109789
    15.840	0	0	    0	    0.947127	    0.839399	    0.779583	    1.796750	    1.444877	    1.471427	    1.690242	    1.273976	    1.354543	    0.308690	    0.230259	    0.215915	    0.980087	    0.720073	    0.800336	    1.564813	    1.038071	    0.990463	    1.680781	    1.216907	    1.107652
    15.895	0	0	    0	    0.951705	    0.843977	    0.781109	    1.797971	    1.447623	    1.479362	    1.687800	    1.282216	    1.361563	    0.309911	    0.230564	    0.218051	    0.974899	    0.720073	    0.802777	    1.566644	    1.058824	    0.995041	    1.687190	    1.219959	    1.118029
    15.950	0	0	    0	    0.952010	    0.845502	    0.785382	    1.805295	    1.452506	    1.480583	    1.695735	    1.290150	    1.369497	    0.310826	    0.232090	    0.217136	    0.984360	    0.724956	    0.803998	    1.579767	    1.048142	    1.001144	    1.695125	    1.229419	    1.121386
    16.005	0	0	    0	    0.951095	    0.849165	    0.788434	    1.813230	    1.454032	    1.485161	    1.710079	    1.292897	    1.374990	    0.312657	    0.234531	    0.220798	    0.987106	    0.727398	    0.804913	    1.594110	    1.052720	    1.012741	    1.702144	    1.231250	    1.123522
    16.060	0	0	    0	    0.955062	    0.847944	    0.791791	    1.817502	    1.463188	    1.490654	    1.695430	    1.288930	    1.379873	    0.315099	    0.235447	    0.219272	    0.988937	    0.731060	    0.813764	    1.586786	    1.064317	    1.018845	    1.705806	    1.239490	    1.126268
    16.115	0	0	    0	    0.958114	    0.851301	    0.793927	    1.816892	    1.469596	    1.498283	    1.729000	    1.301442	    1.393606	    0.313878	    0.234836	    0.220493	    0.991989	    0.735943	    0.816205	    1.592584	    1.078660	    1.024338	    1.705196	    1.244373	    1.132982
    16.170	0	0	    0	    0.954452	    0.850385	    0.784161	    1.818723	    1.465019	    1.496757	    1.706111	    1.298695	    1.349355	    0.312657	    0.234531	    0.218967	    0.992905	    0.731365	    0.815900	    1.582208	    1.040208	    0.996262	    1.697261	    1.227893	    1.118029
    16.225	0	0	    0	    0.940414	    0.841535	    0.779889	    1.801328	    1.450980	    1.475090	    1.684443	    1.266651	    1.342336	    0.310216	    0.230869	    0.216526	    0.976120	    0.720684	    0.800336	    1.550164	    1.039902	    0.981918	    1.678950	    1.215076	    1.100023
    16.280	0	0	    0	    0.943465	    0.836957	    0.779889	    1.791562	    1.447929	    1.471122	    1.687190	    1.262684	    1.345388	    0.307469	    0.230869	    0.214694	    0.969100	    0.721294	    0.795758	    1.533684	    1.028305	    0.981613	    1.663386	    1.207752	    1.099107
    16.335	0	0	    0	    0.944381	    0.838483	    0.777447	    1.788510	    1.440299	    1.473564	    1.663081	    1.267567	    1.342947	    0.305638	    0.227512	    0.215610	    0.973983	    0.715801	    0.796674	    1.540398	    1.021592	    0.980087	    1.665217	    1.204089	    1.098497
    16.390	0	0	    0	    0.946212	    0.838483	    0.778973	    1.790646	    1.440909	    1.469902	    1.694514	    1.254749	    1.344167	    0.307164	    0.229343	    0.214389	    0.970016	    0.717632	    0.797284	    1.554131	    1.020066	    0.980697	    1.672236	    1.205615	    1.101244
    16.445	0	0	    0	    0.944381	    0.840620	    0.782330	    1.787900	    1.442435	    1.462577	    1.688411	    1.266346	    1.352407	    0.309300	    0.230564	    0.215000	    0.972152	    0.716716	    0.797589	    1.553826	    1.028916	    0.979171	    1.674067	    1.211414	    1.103380
    16.500	0	0	    0	    0.944686	    0.842756	    0.784771	    1.795224	    1.446403	    1.471733	    1.691768	    1.259937	    1.353933	    0.305943	    0.229343	    0.216526	    0.971847	    0.720378	    0.796674	    1.556268	    1.039902	    0.988937	    1.667659	    1.214160	    1.110094
    16.555	0	0	    0	    0.947127	    0.843366	    0.782635	    1.799191	    1.449454	    1.479362	    1.683223	    1.270314	    1.359121	    0.309300	    0.230564	    0.217136	    0.979477	    0.720684	    0.800031	    1.556878	    1.043565	    0.991989	    1.678950	    1.216907	    1.111315
    16.610	0	0	    0	    0.949264	    0.848249	    0.785992	    1.795529	    1.447013	    1.483635	    1.711910	    1.281300	    1.365225	    0.311131	    0.232700	    0.218357	    0.978256	    0.722820	    0.806439	    1.562982	    1.040513	    1.001450	    1.691768	    1.225452	    1.115587
    16.665	0	0	    0	    0.951705	    0.851911	    0.790875	    1.805600	    1.458000	    1.484550	    1.693904	    1.285267	    1.378347	    0.312657	    0.232090	    0.218357	    0.982223	    0.725261	    0.806134	    1.584344	    1.049973	    0.998703	    1.698177	    1.230945	    1.123827
    16.720	0	0	    0	    0.953231	    0.850996	    0.793011	    1.812619	    1.461051	    1.488823	    1.715877	    1.281300	    1.377127	    0.311131	    0.235447	    0.220798	    0.986801	    0.729534	    0.807050	    1.593805	    1.065232	    1.017624	    1.700008	    1.237659	    1.133593
    16.775	0	0	    0	    0.958114	    0.850996	    0.793927	    1.811093	    1.472038	    1.490043	    1.719844	    1.292897	    1.383536	    0.313878	    0.235447	    0.221103	    0.991379	    0.735943	    0.813458	    1.589532	    1.061875	    1.018540	    1.710079	    1.246204	    1.136645
    16.830	0	0	    0	    0.950790	    0.847333	    0.784161	    1.802548	    1.464714	    1.491875	    1.707027	    1.269398	    1.351492	    0.311437	    0.233005	    0.219272	    0.981308	    0.730449	    0.811933	    1.572442	    1.050584	    0.986801	    1.692988	    1.221790	    1.112840
    16.885	0	0	    0	    0.943771	    0.840314	    0.782330	    1.792782	    1.446098	    1.466850	    1.692073	    1.260853	    1.344778	    0.307164	    0.230869	    0.215915	    0.976120	    0.717327	    0.796979	    1.539178	    1.031357	    0.982223	    1.667964	    1.210193	    1.099413
    16.940	0	0	    0	    0.941024	    0.839704	    0.778973	    1.785153	    1.439994	    1.467155	    1.676509	    1.258412	    1.328908	    0.305028	    0.231174	    0.215610	    0.967880	    0.716411	    0.793317	    1.531548	    1.033494	    0.975204	    1.664302	    1.209583	    1.100328
    16.995	0	0	    0	    0.944686	    0.839094	    0.781720	    1.785458	    1.446403	    1.462577	    1.685054	    1.259632	    1.341421	    0.305333	    0.229648	    0.215305	    0.970016	    0.715496	    0.791180	    1.536736	    1.028611	    0.977646	    1.662470	    1.199817	    1.098497
    17.050	0	0	    0	    0.944076	    0.841840	    0.780804	    1.791867	    1.442435	    1.474479	    1.676204	    1.253834	    1.341726	    0.307774	    0.229648	    0.215305	    0.970626	    0.717937	    0.797589	    1.546197	    1.018235	    0.970626	    1.668269	    1.206531	    1.102770
    17.105	0	0	    0	    0.944076	    0.843671	    0.782330	    1.791562	    1.439994	    1.476310	    1.694209	    1.268177	    1.345998	    0.307469	    0.229038	    0.216526	    0.974899	    0.715496	    0.798505	    1.553826	    1.028916	    0.978866	    1.672847	    1.209888	    1.104295
    17.160	0	0	    0	    0.946212	    0.844282	    0.784161	    1.786679	    1.446403	    1.468986	    1.684749	    1.267567	    1.356680	    0.307164	    0.231479	    0.216831	    0.970016	    0.718242	    0.794537	    1.564202	    1.032883	    0.978561	    1.677729	    1.214771	    1.106126
    17.215	0	0	    0	    0.946822	    0.846723	    0.785992	    1.790036	    1.450980	    1.478752	    1.682002	    1.271839	    1.352102	    0.309606	    0.231174	    0.216831	    0.975204	    0.722515	    0.800946	    1.559319	    1.030747	    1.003586	    1.681392	    1.221180	    1.111925
    17.270	0	0	    0	    0.952926	    0.847944	    0.789349	    1.799496	    1.460136	    1.483635	    1.712520	    1.279469	    1.373465	    0.309300	    0.232395	    0.220188	    0.978256	    0.725872	    0.807355	    1.556573	    1.048142	    0.992905	    1.679255	    1.219348	    1.115892
    17.325	0	0	    0	    0.953231	    0.850690	    0.788434	    1.804990	    1.451896	    1.487602	    1.712520	    1.276112	    1.368582	    0.311131	    0.234226	    0.220493	    0.983139	    0.726482	    0.808270	    1.563592	    1.056382	    1.002365	    1.693904	    1.230640	    1.120470
    17.380	0	0	    0	    0.955367	    0.853132	    0.793011	    1.810178	    1.464408	    1.488518	    1.715572	    1.295949	    1.384756	    0.312657	    0.235752	    0.218967	    0.987106	    0.729229	    0.811322	    1.583734	    1.064622	    1.003281	    1.705501	    1.237964	    1.129015
    17.435	0	0	    0	    0.957198	    0.853437	    0.792401	    1.814145	    1.469596	    1.494926	    1.722896	    1.296559	    1.388418	    0.314183	    0.236057	    0.221408	    0.989853	    0.735027	    0.813153	    1.597162	    1.071031	    1.014267	    1.703365	    1.240406	    1.134508
    17.490	0	0	    0	    0.945907	    0.845197	    0.786297	    1.804379	    1.458000	    1.481193	    1.681086	    1.273060	    1.345388	    0.309300	    0.232395	    0.219577	    0.985275	    0.725872	    0.803693	    1.550164	    1.032578	    0.991684	    1.673152	    1.215076	    1.108873
    17.545	0	0	    0	    0.940414	    0.842756	    0.779889	    1.789120	    1.444266	    1.476310	    1.683223	    1.262684	    1.339895	    0.307164	    0.229648	    0.216831	    0.972457	    0.717327	    0.796368	    1.544366	    1.032578	    0.977035	    1.671015	    1.209583	    1.103075
    17.600	0	0	    0	    0.939498	    0.838178	    0.780804	    1.790951	    1.442741	    1.469902	    1.673152	    1.259327	    1.340505	    0.306859	    0.229953	    0.214389	    0.968795	    0.714580	    0.796368	    1.552911	    1.021897	    0.975509	    1.668574	    1.211414	    1.098802
    17.655	0	0	    0	    0.941024	    0.836957	    0.784161	    1.787289	    1.446098	    1.468681	    1.672236	    1.264515	    1.337148	    0.306554	    0.229038	    0.215000	    0.970016	    0.714885	    0.793622	    1.551080	    1.018845	    0.978866	    1.672541	    1.212329	    1.104295
    17.710	0	0	    0	    0.942550	    0.837568	    0.780194	    1.790951	    1.441520	    1.469291	    1.665522	    1.270619	    1.354849	    0.305638	    0.229343	    0.216220	    0.969100	    0.718242	    0.797589	    1.548943	    1.025559	    0.980392	    1.667964	    1.209888	    1.104906
    17.765	0	0	    0	    0.944076	    0.840314	    0.780499	    1.781796	    1.446403	    1.476310	    1.696651	    1.257191	    1.341726	    0.307469	    0.229953	    0.217136	    0.969100	    0.717632	    0.796979	    1.547723	    1.029831	    0.978866	    1.671321	    1.207446	    1.103075
    17.820	0	0	    0	    0.944076	    0.844892	    0.782940	    1.791867	    1.446708	    1.474784	    1.688716	    1.262989	    1.344778	    0.308690	    0.232090	    0.216220	    0.976120	    0.722515	    0.800031	    1.554131	    1.038376	    0.995651	    1.679866	    1.213550	    1.104601
    17.875	0	0	    0	    0.943160	    0.843671	    0.786297	    1.792172	    1.452201	    1.472343	    1.698482	    1.288930	    1.368276	    0.308995	    0.232700	    0.218662	    0.977646	    0.722210	    0.799725	    1.566033	    1.049363	    1.001755	    1.685969	    1.222095	    1.118639
    17.930	0	0	    0	    0.949874	    0.848249	    0.789654	    1.791867	    1.458610	    1.484245	    1.699397	    1.290455	    1.357290	    0.309911	    0.233921	    0.220493	    0.975204	    0.726177	    0.807660	    1.585565	    1.056687	    1.001755	    1.690547	    1.224842	    1.123217
    17.985	0	0	    0	    0.948653	    0.850385	    0.791485	    1.799802	    1.458305	    1.490043	    1.706722	    1.287098	    1.372854	    0.312657	    0.233005	    0.219883	    0.976730	    0.729839	    0.809186	    1.566339	    1.062486	    1.002976	    1.696040	    1.233692	    1.124132
    18.040	0	0	    0	    0.955062	    0.854658	    0.796063	    1.807736	    1.465934	    1.489433	    1.719844	    1.299611	    1.376211	    0.313268	    0.234531	    0.222019	    0.987716	    0.731365	    0.814679	    1.589532	    1.064012	    1.020066	    1.705806	    1.244373	    1.136339
    18.095	0	0	    0	    0.947738	    0.847944	    0.787518	    1.805295	    1.462272	    1.490349	    1.688106	    1.284047	    1.364004	    0.311437	    0.234531	    0.219883	    0.988022	    0.728313	    0.808576	    1.564813	    1.052110	    0.987106	    1.684443	    1.226062	    1.112535
    18.150	0	0	    0	    0.942855	    0.837568	    0.784771	    1.793698	    1.447013	    1.476921	    1.682002	    1.257191	    1.364309	    0.306554	    0.230564	    0.216526	    0.975509	    0.720684	    0.799115	    1.541924	    1.032578	    0.985275	    1.664302	    1.208667	    1.100938
    18.205	0	0	    0	    0.941024	    0.836347	    0.780499	    1.783932	    1.442130	    1.472038	    1.705501	    1.272450	    1.349966	    0.305638	    0.229648	    0.215915	    0.969100	    0.717021	    0.793927	    1.546197	    1.028916	    0.984360	    1.656062	    1.202564	    1.097581
    18.260	0	0	    0	    0.941329	    0.840009	    0.779889	    1.786984	    1.438163	    1.466850	    1.682002	    1.267872	    1.343252	    0.303807	    0.229343	    0.215610	    0.969711	    0.713970	    0.794537	    1.539178	    1.020371	    0.975509	    1.661555	    1.204700	    1.099413
    18.315	0	0	    0	    0.941024	    0.841535	    0.782635	    1.786069	    1.438468	    1.466239	    1.675898	    1.260548	    1.353628	    0.307164	    0.230564	    0.216831	    0.967880	    0.713970	    0.794537	    1.549859	    1.033799	    0.987716	    1.665827	    1.206226	    1.102464
    18.370	0	0	    0	    0.943771	    0.841840	    0.781720	    1.783322	    1.449149	    1.468986	    1.692073	    1.267872	    1.350271	    0.307164	    0.230564	    0.216526	    0.971542	    0.719463	    0.794842	    1.547112	    1.029526	    0.981003	    1.672236	    1.210803	    1.104601
    18.425	0	0	    0	    0.943771	    0.843061	    0.782635	    1.787289	    1.444877	    1.469291	    1.691463	    1.267262	    1.350576	    0.305638	    0.230564	    0.216526	    0.973068	    0.718547	    0.798810	    1.558404	    1.029221	    0.985885	    1.663386	    1.211109	    1.107958
    18.480	0	0	    0	    0.944076	    0.846113	    0.783246	    1.788205	    1.446708	    1.475090	    1.695430	    1.272755	    1.349966	    0.308385	    0.230869	    0.218357	    0.974899	    0.721599	    0.801251	    1.560540	    1.036545	    0.995346	    1.674983	    1.219348	    1.112840
    18.535	0	0	    0	    0.948043	    0.848249	    0.785687	    1.798581	    1.449454	    1.482414	    1.707942	    1.277638	    1.364004	    0.310216	    0.233005	    0.218967	    0.979477	    0.723125	    0.804303	    1.564813	    1.041733	    1.004196	    1.683223	    1.226368	    1.117418
    18.590	0	0	    0	    0.945296	    0.847944	    0.791180	    1.802243	    1.459525	    1.486076	    1.697871	    1.283131	    1.374380	    0.309911	    0.234836	    0.221103	    0.986191	    0.728923	    0.808270	    1.586175	    1.052720	    0.999619	    1.692073	    1.228809	    1.123522
    18.645	0	0	    0	    0.954452	    0.851301	    0.792706	    1.807126	    1.463493	    1.489128	    1.713130	    1.296254	    1.382010	    0.311742	    0.235142	    0.221714	    0.986191	    0.729534	    0.812543	    1.595331	    1.060655	    1.013046	    1.699397	    1.236439	    1.130236
    18.700	0	0	    0	    0.948959	    0.847944	    0.784771	    1.802853	    1.463798	    1.491875	    1.704585	    1.280995	    1.361257	    0.309911	    0.233921	    0.219577	    0.980392	    0.731975	    0.810407	    1.591363	    1.039902	    0.994736	    1.688716	    1.223316	    1.116808
    18.755	0	0	    0	    0.941024	    0.837263	    0.782635	    1.794919	    1.448539	    1.468986	    1.700008	    1.261463	    1.350881	    0.308690	    0.232090	    0.216526	    0.977035	    0.720684	    0.794232	    1.558099	    1.027390	    0.979171	    1.667048	    1.210803	    1.102159
    18.810	0	0	    0	    0.936141	    0.837873	    0.779889	    1.788815	    1.440604	    1.467765	    1.675288	    1.251087	    1.356374	    0.307469	    0.230259	    0.215610	    0.967880	    0.716106	    0.795453	    1.539483	    1.029526	    0.979171	    1.665522	    1.205615	    1.098497
    18.865	0	0	    0	    0.940414	    0.839399	    0.781109	    1.779355	    1.440299	    1.470512	    1.691463	    1.259937	    1.347524	    0.305638	    0.229343	    0.215305	    0.966659	    0.715801	    0.795148	    1.538262	    1.026780	    0.978256	    1.660334	    1.207141	    1.103380
    18.920	0	0	    0	    0.941634	    0.841230	    0.780804	    1.780880	    1.438468	    1.473259	    1.674067	    1.253529	    1.351186	    0.305333	    0.228733	    0.215610	    0.970321	    0.719463	    0.797284	    1.541314	    1.026474	    0.986496	    1.662776	    1.207752	    1.105821
    18.975	0	0	    0	    0.941024	    0.840314	    0.782635	    1.788205	    1.436332	    1.471427	    1.688411	    1.271839	    1.357595	    0.307164	    0.229953	    0.215305	    0.973983	    0.716411	    0.797589	    1.563592	    1.025559	    0.980392	    1.668879	    1.211414	    1.099107
    19.030	0	0	    0	    0.941939	    0.840620	    0.781109	    1.790341	    1.443351	    1.465324	    1.700008	    1.265126	    1.351797	    0.305028	    0.230869	    0.216526	    0.974899	    0.717937	    0.796979	    1.559625	    1.040513	    0.981003	    1.670405	    1.213550	    1.107652
    19.085	0	0	    0	    0.946517	    0.840925	    0.785382	    1.790036	    1.444877	    1.470512	    1.705196	    1.270619	    1.353017	    0.306249	    0.231479	    0.217441	    0.971847	    0.717937	    0.799420	    1.567254	    1.034104	    0.998093	    1.676204	    1.216907	    1.113756
    19.140	0	0	    0	    0.949264	    0.843977	    0.786908	    1.789731	    1.451286	    1.477836	    1.697261	    1.280385	    1.375601	    0.309300	    0.230564	    0.217746	    0.977646	    0.725261	    0.801556	    1.572747	    1.045396	    0.993820	    1.684443	    1.222095	    1.116808
    19.195	0	0	    0	    0.949264	    0.847333	    0.788434	    1.797360	    1.454643	    1.480583	    1.702449	    1.297475	    1.369802	    0.311742	    0.233921	    0.219883	    0.979782	    0.724956	    0.808881	    1.585870	    1.054246	    1.001450	    1.694514	    1.229419	    1.116808
    19.250	0	0	    0	    0.951095	    0.849775	    0.792401	    1.808347	    1.460746	    1.485771	    1.720760	    1.284962	    1.370108	    0.312352	    0.235142	    0.218967	    0.988022	    0.732586	    0.811933	    1.579461	    1.066758	    1.009079	    1.699092	    1.235828	    1.126574
    19.305	0	0	    0	    0.948348	    0.840620	    0.783856	    1.806210	    1.455863	    1.482109	    1.683528	    1.266346	    1.347524	    0.308080	    0.231479	    0.217746	    0.985580	    0.727703	    0.808270	    1.556268	    1.039292	    0.981918	    1.669490	    1.213550	    1.108263
    19.360	0	0	    0	    0.938888	    0.836042	    0.777142	    1.783627	    1.439689	    1.466850	    1.685969	    1.255665	    1.341726	    0.305028	    0.229343	    0.215610	    0.973373	    0.720378	    0.797284	    1.535821	    1.017929	    0.980697	    1.657893	    1.197070	    1.095445
    19.415	0	0	    0	    0.938582	    0.835431	    0.776837	    1.782101	    1.436637	    1.460746	    1.663691	    1.251087	    1.341115	    0.306249	    0.228428	    0.214389	    0.971542	    0.713970	    0.792706	    1.560845	    1.026780	    0.968490	    1.652705	    1.197375	    1.089036
    19.470	0	0	    0	    0.935836	    0.835737	    0.776837	    1.776608	    1.430228	    1.455558	    1.666743	    1.254749	    1.347524	    0.303197	    0.229038	    0.214084	    0.970321	    0.712444	    0.789044	    1.542535	    1.025864	    0.975204	    1.654536	    1.202258	    1.093309
    19.525	0	0	    0	    0.939193	    0.835737	    0.775311	    1.785153	    1.441825	    1.462577	    1.678340	    1.254749	    1.338674	    0.304723	    0.229343	    0.215305	    0.974899	    0.714885	    0.796368	    1.550164	    1.026780	    0.987106	    1.658198	    1.205921	    1.100938
    19.580	0	0	    0	    0.939803	    0.836957	    0.776532	    1.780575	    1.436637	    1.462272	    1.684138	    1.267872	    1.342336	    0.305333	    0.228122	    0.213169	    0.970626	    0.716716	    0.794842	    1.541924	    1.030137	    0.973373	    1.658503	    1.204700	    1.093614
    19.635	0	0	    0	    0.944686	    0.838788	    0.779583	    1.785763	    1.438773	    1.466545	    1.685664	    1.269398	    1.358206	    0.306554	    0.228122	    0.215610	    0.972457	    0.718242	    0.797284	    1.558099	    1.028611	    0.983139	    1.663081	    1.199512	    1.098192
    19.690	0	0	    0	    0.947738	    0.839094	    0.779583	    1.788815	    1.442741	    1.470512	    1.699092	    1.276112	    1.353933	    0.306859	    0.231785	    0.216220	    0.976730	    0.718547	    0.798505	    1.561761	    1.038376	    0.980392	    1.668269	    1.217517	    1.106126
    19.745	0	0	    0	    0.945296	    0.839094	    0.785077	    1.795529	    1.445182	    1.473869	    1.713741	    1.287098	    1.366445	    0.307774	    0.233005	    0.217746	    0.981308	    0.723125	    0.802777	    1.579767	    1.051499	    0.987716	    1.680781	    1.217517	    1.114061
    19.800	0	0	    0	    0.949569	    0.842756	    0.785687	    1.795529	    1.455863	    1.482414	    1.723812	    1.287709	    1.359731	    0.308995	    0.231785	    0.219577	    0.984054	    0.728313	    0.809796	    1.577020	    1.048447	    1.006943	    1.685664	    1.224842	    1.119860
    19.855	0	0	    0	    0.951705	    0.849165	    0.786908	    1.802548	    1.455253	    1.481193	    1.717403	    1.297780	    1.378042	    0.310521	    0.234226	    0.220188	    0.984970	    0.730144	    0.807965	    1.598077	    1.041733	    1.015183	    1.691463	    1.226368	    1.125658
    19.910	0	0	    0	    0.946212	    0.846723	    0.788128	    1.801938	    1.461051	    1.487907	    1.702449	    1.289235	    1.369497	    0.312352	    0.234531	    0.220493	    0.983444	    0.729839	    0.809796	    1.582208	    1.061570	    1.001450	    1.688106	    1.230335	    1.119860
    19.965	0	0	    0	    0.941634	    0.835737	    0.777142	    1.789425	    1.449149	    1.468986	    1.689021	    1.251087	    1.349966	    0.308080	    0.230564	    0.215305	    0.979782	    0.722820	    0.800336	    1.556268	    1.025864	    0.981308	    1.669184	    1.208972	    1.095750
    20.020	0	0	    0	    0.941634	    0.833295	    0.775921	    1.782406	    1.439994	    1.459220	    1.680171	    1.254444	    1.344472	    0.304417	    0.227207	    0.214694	    0.973373	    0.716411	    0.790875	    1.542840	    1.019150	    0.977340	    1.647822	    1.201953	    1.100023
    20.075	0	0	    0	    0.937972	    0.829328	    0.771649	    1.776913	    1.430228	    1.461967	    1.688411	    1.246509	    1.328298	    0.304112	    0.228122	    0.212863	    0.967575	    0.711528	    0.791485	    1.541619	    1.012436	    0.964523	    1.644160	    1.194934	    1.093919
    20.130	0	0	    0	    0.933700	    0.832685	    0.772869	    1.782712	    1.427481	    1.459220	    1.673457	    1.262074	    1.334096	    0.305333	    0.227512	    0.213169	    0.968185	    0.710918	    0.788739	    1.543450	    1.022202	    0.963607	    1.655756	    1.199817	    1.090867
    20.185	0	0	    0	    0.941634	    0.834821	    0.773175	    1.783017	    1.435721	    1.460441	    1.674067	    1.253223	    1.341421	    0.304723	    0.228428	    0.214084	    0.972152	    0.713664	    0.794232	    1.547112	    1.030747	    0.966964	    1.663081	    1.197375	    1.089952
    20.240	0	0	    0	    0.940414	    0.834516	    0.775921	    1.785458	    1.437247	    1.460746	    1.692073	    1.249256	    1.346304	    0.304723	    0.228428	    0.214694	    0.970016	    0.715801	    0.793927	    1.558404	    1.024338	    0.978256	    1.658198	    1.206226	    1.098192
    20.295	0	0	    0	    0.943465	    0.831769	    0.775921	    1.779965	    1.436027	    1.463493	    1.694209	    1.271839	    1.333791	    0.306554	    0.229343	    0.215915	    0.967880	    0.713970	    0.795758	    1.556878	    1.026780	    0.982528	    1.656977	    1.203174	    1.101549
    20.350	0	0	    0	    0.944076	    0.840314	    0.780499	    1.790341	    1.440299	    1.467155	    1.700313	    1.283131	    1.354849	    0.307774	    0.230259	    0.213779	    0.977951	    0.718853	    0.799725	    1.554437	    1.038682	    0.988632	    1.674678	    1.212329	    1.102464
    20.405	0	0	    0	    0.946822	    0.841535	    0.779889	    1.794919	    1.447318	    1.472038	    1.702754	    1.274281	    1.367971	    0.308080	    0.231174	    0.217746	    0.983444	    0.721599	    0.800946	    1.568170	    1.042344	    1.001450	    1.672236	    1.219043	    1.112230
    20.460	0	0	    0	    0.950790	    0.843366	    0.783856	    1.797665	    1.448234	    1.478141	    1.698177	    1.278553	    1.368887	    0.308995	    0.232700	    0.217746	    0.981308	    0.723735	    0.806439	    1.570306	    1.054856	    0.998093	    1.681697	    1.223316	    1.117418
    20.515	0	0	    0	    0.948043	    0.845808	    0.785992	    1.802853	    1.455863	    1.486076	    1.716487	    1.287404	    1.377432	    0.311131	    0.233616	    0.219577	    0.982834	    0.726787	    0.809186	    1.581903	    1.043565	    1.010300	    1.691157	    1.228809	    1.122911
    20.570	0	0	    0	    0.947738	    0.843366	    0.779278	    1.804685	    1.454948	    1.484550	    1.714351	    1.286793	    1.357900	    0.312657	    0.231479	    0.218662	    0.989548	    0.730449	    0.809796	    1.585565	    1.039597	    1.008774	    1.692073	    1.219348	    1.116197
    20.625	0	0	    0	    0.940108	    0.836347	    0.774701	    1.792172	    1.443351	    1.461357	    1.683528	    1.264515	    1.347829	    0.307469	    0.229648	    0.215305	    0.975204	    0.717021	    0.793927	    1.558404	    1.027085	    0.976730	    1.664912	    1.207752	    1.097276
    20.680	0	0	    0	    0.938277	    0.829938	    0.771344	    1.777829	    1.434195	    1.459831	    1.689937	    1.248646	    1.333791	    0.305333	    0.227817	    0.212863	    0.969406	    0.717327	    0.792401	    1.530327	    1.022812	    0.975814	    1.659419	    1.203784	    1.092393
    20.735	0	0	    0	    0.937362	    0.830243	    0.768292	    1.777523	    1.432059	    1.458915	    1.685664	    1.251087	    1.314260	    0.304112	    0.227207	    0.213169	    0.966964	    0.713359	    0.787823	    1.537346	    1.015793	    0.963302	    1.653010	    1.194629	    1.091478
    20.790	0	0	    0	    0.940108	    0.829023	    0.772869	    1.777829	    1.430533	    1.457694	    1.681392	    1.260243	    1.338979	    0.304723	    0.226596	    0.211337	    0.972152	    0.714275	    0.788434	    1.551385	    1.022507	    0.973373	    1.659113	    1.201648	    1.092088
    20.845	0	0	    0	    0.937667	    0.831769	    0.773785	    1.782101	    1.430228	    1.458000	    1.676204	    1.259022	    1.336538	    0.305638	    0.227817	    0.213474	    0.972152	    0.711223	    0.790570	    1.549859	    1.021897	    0.976120	    1.660639	    1.203479	    1.093919
    20.900	0	0	    0	    0.939193	    0.828412	    0.771344	    1.782101	    1.439689	    1.458305	    1.684443	    1.251087	    1.334707	    0.305638	    0.227817	    0.213779	    0.975204	    0.716716	    0.795148	    1.544060	    1.020676	    0.979782	    1.660639	    1.201038	    1.096361
    20.955	0	0	    0	    0.943465	    0.836042	    0.773785	    1.783627	    1.435721	    1.467765	    1.692378	    1.261463	    1.345998	    0.307469	    0.227817	    0.215000	    0.974594	    0.719463	    0.797894	    1.564202	    1.025254	    0.976425	    1.667964	    1.202564	    1.101854
    21.010	0	0	    0	    0.945602	    0.838788	    0.777142	    1.792782	    1.441215	    1.467155	    1.704280	    1.271534	    1.349966	    0.307774	    0.229343	    0.215305	    0.977035	    0.721904	    0.797894	    1.562676	    1.045396	    0.991989	    1.671626	    1.212329	    1.104601
    21.065	0	0	    0	    0.945296	    0.840925	    0.779583	    1.789425	    1.445182	    1.468376	    1.690852	    1.273365	    1.357595	    0.308995	    0.230564	    0.215610	    0.978256	    0.721904	    0.800031	    1.573358	    1.051804	    1.006332	    1.672541	    1.217823	    1.110399
    21.120	0	0	    0	    0.943160	    0.842756	    0.783856	    1.798581	    1.452201	    1.474479	    1.696956	    1.287709	    1.369497	    0.309911	    0.231785	    0.218662	    0.982528	    0.724956	    0.804303	    1.572137	    1.043870	    0.993515	    1.690242	    1.223011	    1.120470
    21.175	0	0	    0	    0.949264	    0.841840	    0.784466	    1.800717	    1.454643	    1.480583	    1.714656	    1.265126	    1.373159	    0.312047	    0.232395	    0.218662	    0.988632	    0.729534	    0.807355	    1.580072	    1.051194	    1.011826	    1.700008	    1.228504	    1.125048
    21.230	0	0	    0	    0.954147	    0.846418	    0.783551	    1.804685	    1.455558	    1.487602	    1.714351	    1.291676	    1.364920	    0.312963	    0.233921	    0.220188	    0.989242	    0.731060	    0.812543	    1.598077	    1.064622	    1.019150	    1.700008	    1.233997	    1.125658
    21.285	0	0	    0	    0.944076	    0.835126	    0.777752	    1.807431	    1.447013	    1.480278	    1.685054	    1.266651	    1.349966	    0.311742	    0.231785	    0.217136	    0.986191	    0.724651	    0.806744	    1.566644	    1.036851	    0.987106	    1.674983	    1.215686	    1.101549
    21.340	0	0	    0	    0.937362	    0.830243	    0.772869	    1.789120	    1.440604	    1.458610	    1.688106	    1.247425	    1.345388	    0.305638	    0.228428	    0.213779	    0.976425	    0.714275	    0.795453	    1.559930	    1.025559	    0.981613	    1.662165	    1.202869	    1.093004
    21.395	0	0	    0	    0.940719	    0.830854	    0.771038	    1.783322	    1.435721	    1.458000	    1.681392	    1.252308	    1.336233	    0.303807	    0.226291	    0.212558	    0.974899	    0.714885	    0.791180	    1.537346	    1.019455	    0.975509	    1.657893	    1.198596	    1.093309
    21.450	0	0	    0	    0.943771	    0.830549	    0.772564	    1.776913	    1.436332	    1.458000	    1.681086	    1.246509	    1.342641	    0.306249	    0.226291	    0.214084	    0.964523	    0.713054	    0.791485	    1.547723	    1.021897	    0.970932	    1.658808	    1.196765	    1.091783
    21.505	0	0	    0	    0.938277	    0.829023	    0.772564	    1.785763	    1.436942	    1.457694	    1.671931	    1.248646	    1.342031	    0.307469	    0.227817	    0.212863	    0.971542	    0.715801	    0.791485	    1.548333	    1.025254	    0.975814	    1.666133	    1.207141	    1.095140
    21.560	0	0	    0	    0.941634	    0.832685	    0.772869	    1.785763	    1.437858	    1.459831	    1.683528	    1.264210	    1.345693	    0.306249	    0.228428	    0.213474	    0.972457	    0.717327	    0.794842	    1.562066	    1.030137	    0.977035	    1.668269	    1.208667	    1.101549
    21.615	0	0	    0	    0.943771	    0.835737	    0.775616	    1.786679	    1.436332	    1.461967	    1.692378	    1.267567	    1.352102	    0.305943	    0.227817	    0.213779	    0.975204	    0.717632	    0.796674	    1.554742	    1.040208	    0.984970	    1.666133	    1.205921	    1.102770
    21.670	0	0	    0	    0.948348	    0.836042	    0.776226	    1.788815	    1.436637	    1.472343	    1.691768	    1.265431	    1.348745	    0.307164	    0.229038	    0.215915	    0.975814	    0.720073	    0.799725	    1.545892	    1.033188	    0.998703	    1.674983	    1.214771	    1.109178
    21.725	0	0	    0	    0.944381	    0.841230	    0.780499	    1.794308	    1.445182	    1.472343	    1.706416	    1.281605	    1.352712	    0.309300	    0.229648	    0.215610	    0.982834	    0.721599	    0.806439	    1.584344	    1.044785	    0.999924	    1.693599	    1.217212	    1.109789
    21.780	0	0	    0	    0.948653	    0.842756	    0.779889	    1.806210	    1.443961	    1.471122	    1.705806	    1.281300	    1.352102	    0.311131	    0.231479	    0.216220	    0.988022	    0.724651	    0.804913	    1.583124	    1.051194	    1.000534	    1.693904	    1.221485	    1.117418
    21.835	0	0	    0	    0.950484	    0.842756	    0.781720	    1.799191	    1.456168	    1.480888	    1.723201	    1.286793	    1.364309	    0.312352	    0.232700	    0.219577	    0.984360	    0.728618	    0.809186	    1.588312	    1.054856	    1.013962	    1.690242	    1.230335	    1.127184
    21.890	0	0	    0	    0.955978	    0.843671	    0.785687	    1.804990	    1.454643	    1.485771	    1.717403	    1.273060	    1.372244	    0.311131	    0.232395	    0.219883	    0.987106	    0.731060	    0.809186	    1.598077	    1.060349	    1.012436	    1.709163	    1.234913	    1.127184
    21.945	0	0	    0	    0.950179	    0.837263	    0.776532	    1.802853	    1.454337	    1.483330	    1.704280	    1.268177	    1.346304	    0.311437	    0.231479	    0.216831	    0.988937	    0.728008	    0.810712	    1.582818	    1.043870	    0.981918	    1.680781	    1.217517	    1.110094
    22.000	0	0	    0	    0.943465	    0.830854	    0.771649	    1.793393	    1.442741	    1.458305	    1.683528	    1.260548	    1.348440	    0.306249	    0.229038	    0.212863	    0.979782	    0.721599	    0.796368	    1.560540	    1.025559	    0.978561	    1.660945	    1.209888	    1.093309
    22.055	0	0	    0	    0.939498	    0.832990	    0.771344	    1.782101	    1.439689	    1.463493	    1.665827	    1.252003	    1.345998	    0.307469	    0.229343	    0.214389	    0.970932	    0.715496	    0.794232	    1.547112	    1.021592	    0.981003	    1.661250	    1.205615	    1.100328
    22.110	0	0	    0	    0.939193	    0.831769	    0.769512	    1.784237	    1.439384	    1.462272	    1.687495	    1.257191	    1.331044	    0.306249	    0.227512	    0.213779	    0.973678	    0.715496	    0.792706	    1.545892	    1.027390	    0.973678	    1.659113	    1.202869	    1.103685
    22.165	0	0	    0	    0.944076	    0.834211	    0.770123	    1.786679	    1.440299	    1.465324	    1.690547	    1.265126	    1.336843	    0.305943	    0.227817	    0.213474	    0.973373	    0.718853	    0.798199	    1.546807	    1.033494	    0.984360	    1.666133	    1.205921	    1.099718
    22.220	0	0	    0	    0.939803	    0.833600	    0.773480	    1.787594	    1.438773	    1.463493	    1.685359	    1.264820	    1.335622	    0.305333	    0.228428	    0.213474	    0.974594	    0.717632	    0.796674	    1.552300	    1.034714	    0.982528	    1.659419	    1.200122	    1.101549
    22.275	0	0	    0	    0.943160	    0.835737	    0.775006	    1.792172	    1.445487	    1.463493	    1.694209	    1.259022	    1.360342	    0.307164	    0.229648	    0.215610	    0.981308	    0.719158	    0.797284	    1.556573	    1.031052	    0.984054	    1.670405	    1.212634	    1.105821
    22.330	0	0	    0	    0.948348	    0.839704	    0.776226	    1.789120	    1.447318	    1.473259	    1.721981	    1.259022	    1.368582	    0.309606	    0.229648	    0.216526	    0.977035	    0.722820	    0.801862	    1.577325	    1.037461	    1.004196	    1.682002	    1.214771	    1.110704
    22.385	0	0	    0	    0.950790	    0.841535	    0.779278	    1.796445	    1.451286	    1.475700	    1.710384	    1.280690	    1.360037	    0.309911	    0.231479	    0.216220	    0.981003	    0.725566	    0.802472	    1.563287	    1.052720	    1.012436	    1.677424	    1.221180	    1.113451
