
0   3   6	
   0.0000000e+00	  -2.9033060e-02	   1.1353253e-01	
   5.5000000e-02	  -2.3019057e-02	   1.0670308e-01	
   1.1000000e-01	  -1.6717029e-02	   9.8995750e-02	
   1.6500000e-01	  -9.8605591e-03	   9.0819208e-02	
   2.2000000e-01	  -2.1977661e-03	   8.2569515e-02	
   2.7500000e-01	   6.4942167e-03	   7.4609580e-02	
   3.3000000e-01	   1.6399011e-02	   6.7253152e-02	
   3.8500000e-01	   2.7656287e-02	   6.0755427e-02	
   4.4000000e-01	   4.0363111e-02	   5.5311732e-02	
   4.9500000e-01	   5.4579429e-02	   5.1062806e-02	
   5.5000000e-01	   7.0333451e-02	   4.8102025e-02	
   6.0500000e-01	   8.7623501e-02	   4.6480140e-02	
   6.6000000e-01	   1.0641625e-01	   4.6206407e-02	
   7.1500000e-01	   1.2664345e-01	   4.7247786e-02	
   7.7000000e-01	   1.4819930e-01	   4.9527900e-02	
   8.2500000e-01	   1.7093924e-01	   5.2926453e-02	
   8.8000000e-01	   1.9468063e-01	   5.7280087e-02	
   9.3500000e-01	   2.1920649e-01	   6.2386521e-02	
   9.9000000e-01	   2.4427369e-01	   6.8013270e-02	
   1.0450000e+00	   2.6962639e-01	   7.3910734e-02	
   1.1000000e+00	   2.9501264e-01	   7.9828228e-02	
   1.1550000e+00	   3.2020141e-01	   8.5530612e-02	
   1.2100000e+00	   3.4499619e-01	   9.0812810e-02	
   1.2650000e+00	   3.6924237e-01	   9.5510109e-02	
   1.3200000e+00	   3.9282724e-01	   9.9503483e-02	
   1.3750000e+00	   4.1567378e-01	   1.0272036e-01	
   1.4300000e+00	   4.3772959e-01	   1.0513150e-01	
   1.4850000e+00	   4.5895196e-01	   1.0674473e-01	
   1.5400000e+00	   4.7929170e-01	   1.0759657e-01	
   1.5950000e+00	   4.9868175e-01	   1.0774435e-01	
   1.6500000e+00	   5.1703730e-01	   1.0726140e-01	
   1.7050000e+00	   5.3426855e-01	   1.0623684e-01	
   1.7600000e+00	   5.5030070e-01	   1.0477813e-01	
   1.8150000e+00	   5.6509126e-01	   1.0301375e-01	
   1.8700000e+00	   5.7863815e-01	   1.0109320e-01	
   1.9250000e+00	   5.9097762e-01	   9.9182796e-02	
   1.9800000e+00	   6.0217442e-01	   9.7456923e-02	
   2.0350000e+00	   6.1230681e-01	   9.6085430e-02	
   2.0900000e+00	   6.2144862e-01	   9.5219579e-02	
   2.1450000e+00	   6.2965139e-01	   9.4979194e-02	
   2.2000000e+00	   6.3693064e-01	   9.5443248e-02	
   2.2550000e+00	   6.4326049e-01	   9.6645103e-02	
   2.3100000e+00	   6.4857993e-01	   9.8573070e-02	
   2.3650000e+00	   6.5281060e-01	   1.0117623e-01	
   2.4200000e+00	   6.5588166e-01	   1.0437406e-01	
   2.4750000e+00	   6.5775412e-01	   1.0806784e-01	
   2.5300000e+00	   6.5843765e-01	   1.1215157e-01	
   2.5850000e+00	   6.5799612e-01	   1.1652007e-01	
   2.6400000e+00	   6.5654234e-01	   1.2107223e-01	
   2.6950000e+00	   6.5422560e-01	   1.2570955e-01	
   2.7500000e+00	   6.5121561e-01	   1.3033201e-01	
   2.8050000e+00	   6.4768570e-01	   1.3483293e-01	
   2.8600000e+00	   6.4379593e-01	   1.3909461e-01	
   2.9150000e+00	   6.3967937e-01	   1.4298723e-01	
   2.9700000e+00	   6.3543623e-01	   1.4637356e-01	
   3.0250000e+00	   6.3113757e-01	   1.4911811e-01	
   3.0800000e+00	   6.2683200e-01	   1.5109691e-01	
   3.1350000e+00	   6.2254850e-01	   1.5220460e-01	
   3.1900000e+00	   6.1829432e-01	   1.5235816e-01	
   3.2450000e+00	   6.1405142e-01	   1.5149751e-01	
   3.3000000e+00	   6.0977308e-01	   1.4958314e-01	
   3.3550000e+00	   6.0538069e-01	   1.4659111e-01	
   3.4100000e+00	   6.0076192e-01	   1.4250755e-01	
   3.4650000e+00	   5.9577287e-01	   1.3732536e-01	
   3.5200000e+00	   5.9024643e-01	   1.3104517e-01	
   3.5750000e+00	   5.8400694e-01	   1.2368042e-01	
   3.6300000e+00	   5.7688945e-01	   1.1526429e-01	
   3.6850000e+00	   5.6875987e-01	   1.0585494e-01	
   3.7400000e+00	   5.5953005e-01	   9.5536238e-02	
   3.7950000e+00	   5.4916245e-01	   8.4413668e-02	
   3.8500000e+00	   5.3766311e-01	   7.2607259e-02	
   3.9050000e+00	   5.2506726e-01	   6.0243631e-02	
   3.9600000e+00	   5.1142307e-01	   4.7448103e-02	
   4.0150000e+00	   4.9677696e-01	   3.4337152e-02	
   4.0700000e+00	   4.8116251e-01	   2.1012432e-02	
   4.1250000e+00	   4.6459617e-01	   7.5587739e-03	
   4.1800000e+00	   4.4708164e-01	  -5.9522364e-03	
   4.2350000e+00	   4.2862042e-01	  -1.9454263e-02	
   4.2900000e+00	   4.0922326e-01	  -3.2877313e-02	
   4.3450000e+00	   3.8891808e-01	  -4.6141970e-02	
   4.4000000e+00	   3.6775339e-01	  -5.9159338e-02	
   4.4550000e+00	   3.4579933e-01	  -7.1836274e-02	
   4.5100000e+00	   3.2314903e-01	  -8.4083151e-02	
   4.5650000e+00	   2.9992202e-01	  -9.5821365e-02	
   4.6200000e+00	   2.7626858e-01	  -1.0698871e-01	
   4.6750000e+00	   2.5237471e-01	  -1.1754107e-01	
   4.7300000e+00	   2.2846934e-01	  -1.2744927e-01	
   4.7850000e+00	   2.0483383e-01	  -1.3669147e-01	
   4.8400000e+00	   1.8180882e-01	  -1.4524463e-01	
   4.8950000e+00	   1.5979176e-01	  -1.5307848e-01	
   4.9500000e+00	   1.3922327e-01	  -1.6015364e-01	
   5.0050000e+00	   1.2056547e-01	  -1.6642305e-01	
   5.0600000e+00	   1.0427574e-01	  -1.7183648e-01	
   5.1150000e+00	   9.0778295e-02	  -1.7634814e-01	
   5.1700000e+00	   8.0437380e-02	  -1.7992601e-01	
   5.2250000e+00	   7.3537354e-02	  -1.8255919e-01	
   5.2800000e+00	   7.0273110e-02	  -1.8425979e-01	
   5.3350000e+00	   7.0749451e-02	  -1.8505871e-01	
   5.3900000e+00	   7.4985560e-02	  -1.8499872e-01	
   5.4450000e+00	   8.2921960e-02	  -1.8412855e-01	
   5.5000000e+00	   9.4428643e-02	  -1.8249949e-01	
   5.5550000e+00	   1.0931228e-01	  -1.8016345e-01	
   5.6100000e+00	   1.2732042e-01	  -1.7717185e-01	
   5.6650000e+00	   1.4814294e-01	  -1.7357597e-01	
   5.7200000e+00	   1.7141374e-01	  -1.6942914e-01	
   5.7750000e+00	   1.9671570e-01	  -1.6479056e-01	
   5.8300000e+00	   2.2359073e-01	  -1.5972869e-01	
   5.8850000e+00	   2.5155506e-01	  -1.5432174e-01	
   5.9400000e+00	   2.8012016e-01	  -1.4865349e-01	
   5.9950000e+00	   3.0881725e-01	  -1.4280571e-01	
   6.0500000e+00	   3.3721968e-01	  -1.3685042e-01	
   6.1050000e+00	   3.6495787e-01	  -1.3084486e-01	
   6.1600000e+00	   3.9172548e-01	  -1.2483044e-01	
   6.2150000e+00	   4.1727955e-01	  -1.1883552e-01	
   6.2700000e+00	   4.4143757e-01	  -1.1288149e-01	
   6.3250000e+00	   4.6407316e-01	  -1.0699047e-01	
   6.3800000e+00	   4.8511126e-01	  -1.0119180e-01	
   6.4350000e+00	   5.0452319e-01	  -9.5525217e-02	
   6.4900000e+00	   5.2232072e-01	  -9.0039815e-02	
   6.5450000e+00	   5.3854832e-01	  -8.4789493e-02	
   6.6000000e+00	   5.5327420e-01	  -7.9826633e-02	
   6.6550000e+00	   5.6658158e-01	  -7.5196297e-02	
   6.7100000e+00	   5.7856044e-01	  -7.0932489e-02	
   6.7650000e+00	   5.8929943e-01	  -6.7056748e-02	
   6.8200000e+00	   5.9887708e-01	  -6.3578945e-02	
   6.8750000e+00	   6.0735274e-01	  -6.0500428e-02	
   6.9300000e+00	   6.1475780e-01	  -5.7819691e-02	
   6.9850000e+00	   6.2108963e-01	  -5.5539641e-02	
   7.0400000e+00	   6.2631098e-01	  -5.3673765e-02	
   7.0950000e+00	   6.3035703e-01	  -5.2247863e-02	
   7.1500000e+00	   6.3314927e-01	  -5.1295831e-02	
   7.2050000e+00	   6.3461184e-01	  -5.0851085e-02	
   7.2600000e+00	   6.3468574e-01	  -5.0936882e-02	
   7.3150000e+00	   6.3333890e-01	  -5.1558457e-02	
   7.3700000e+00	   6.3057126e-01	  -5.2699060e-02	
   7.4250000e+00	   6.2641478e-01	  -5.4320647e-02	
   7.4800000e+00	   6.2092943e-01	  -5.6368435e-02	
   7.5350000e+00	   6.1419750e-01	  -5.8778076e-02	
   7.5900000e+00	   6.0631706e-01	  -6.1484691e-02	
   7.6450000e+00	   5.9739460e-01	  -6.4432443e-02	
   7.7000000e+00	   5.8753706e-01	  -6.7581760e-02	
   7.7550000e+00	   5.7684592e-01	  -7.0911011e-02	
   7.8100000e+00	   5.6541629e-01	  -7.4411595e-02	
   7.8650000e+00	   5.5334295e-01	  -7.8078680e-02	
   7.9200000e+00	   5.4073147e-01	  -8.1901457e-02	
   7.9750000e+00	   5.2770975e-01	  -8.5856150e-02	
   8.0300000e+00	   5.1443532e-01	  -8.9903391e-02	
   8.0850000e+00	   5.0109623e-01	  -9.3989974e-02	
   8.1400000e+00	   4.8790558e-01	  -9.8053712e-02	
   8.1950000e+00	   4.7509082e-01	  -1.0202981e-01	
   8.2500000e+00	   4.6287936e-01	  -1.0585790e-01	
   8.3050000e+00	   4.5148278e-01	  -1.0948898e-01	
   8.3600000e+00	   4.4108349e-01	  -1.1289006e-01	
   8.4150000e+00	   4.3182762e-01	  -1.1604372e-01	
   8.4700000e+00	   4.2382443e-01	  -1.1894171e-01	
   8.5250000e+00	   4.1714897e-01	  -1.2157607e-01	
   8.5800000e+00	   4.1184438e-01	  -1.2393191e-01	
   8.6350000e+00	   4.0792309e-01	  -1.2598421e-01	
   8.6900000e+00	   4.0536767e-01	  -1.2769836e-01	
   8.7450000e+00	   4.0413217e-01	  -1.2903394e-01	
   8.8000000e+00	   4.0414344e-01	  -1.2995112e-01	
   8.8550000e+00	   4.0530132e-01	  -1.3041836e-01	
   8.9100000e+00	   4.0747789e-01	  -1.3041958e-01	
   8.9650000e+00	   4.1051871e-01	  -1.2995895e-01	
   9.0200000e+00	   4.1424827e-01	  -1.2906198e-01	
   9.0750000e+00	   4.1847975e-01	  -1.2777253e-01	
   9.1300000e+00	   4.2302751e-01	  -1.2614687e-01	
   9.1850000e+00	   4.2771867e-01	  -1.2424727e-01	
   9.2400000e+00	   4.3239975e-01	  -1.2213791e-01	
   9.2950000e+00	   4.3693836e-01	  -1.1988402e-01	
   9.3500000e+00	   4.4122206e-01	  -1.1755323e-01	
   9.4050000e+00	   4.4515585e-01	  -1.1521742e-01	
   9.4600000e+00	   4.4865802e-01	  -1.1295458e-01	
   9.5150000e+00	   4.5165473e-01	  -1.1084979e-01	
   9.5700000e+00	   4.5407513e-01	  -1.0899431e-01	
   9.6250000e+00	   4.5584935e-01	  -1.0748125e-01	
   9.6800000e+00	   4.5691134e-01	  -1.0639839e-01	
   9.7350000e+00	   4.5720678e-01	  -1.0581977e-01	
   9.7900000e+00	   4.5670305e-01	  -1.0579794e-01	
   9.8450000e+00	   4.5539713e-01	  -1.0635812e-01	
   9.9000000e+00	   4.5331807e-01	  -1.0749595e-01	
   9.9550000e+00	   4.5052361e-01	  -1.0917996e-01	
   1.0010000e+01	   4.4709325e-01	  -1.1135880e-01	
   1.0065000e+01	   4.4311941e-01	  -1.1397196e-01	
   1.0120000e+01	   4.3869682e-01	  -1.1696149e-01	
   1.0175000e+01	   4.3391053e-01	  -1.2028198e-01	
   1.0230000e+01	   4.2882493e-01	  -1.2390595e-01	
   1.0285000e+01	   4.2347893e-01	  -1.2782341e-01	
   1.0340000e+01	   4.1789022e-01	  -1.3203599e-01	
   1.0395000e+01	   4.1206593e-01	  -1.3654811e-01	
   1.0450000e+01	   4.0601315e-01	  -1.4135817e-01	
   1.0505000e+01	   3.9974492e-01	  -1.4645224e-01	
   1.0560000e+01	   3.9328043e-01	  -1.5180116e-01	
   1.0615000e+01	   3.8664036e-01	  -1.5736095e-01	
   1.0670000e+01	   3.7984064e-01	  -1.6307620e-01	
   1.0725000e+01	   3.7288723e-01	  -1.6888606e-01	
   1.0780000e+01	   3.6577144e-01	  -1.7473204e-01	
   1.0835000e+01	   3.5846354e-01	  -1.8056655e-01	
   1.0890000e+01	   3.5090623e-01	  -1.8635961e-01	
   1.0945000e+01	   3.4301441e-01	  -1.9210056e-01	
   1.1000000e+01	   3.3468591e-01	  -1.9779400e-01	
   1.1055000e+01	   3.2581995e-01	  -2.0345205e-01	
   1.1110000e+01	   3.1633421e-01	  -2.0908662e-01	
   1.1165000e+01	   3.0617326e-01	  -2.1470411e-01	
   1.1220000e+01	   2.9530774e-01	  -2.2030375e-01	
   1.1275000e+01	   2.8372845e-01	  -2.2587975e-01	
   1.1330000e+01	   2.7143931e-01	  -2.3142649e-01	
   1.1385000e+01	   2.5845024e-01	  -2.3694523e-01	
   1.1440000e+01	   2.4476888e-01	  -2.4245035e-01	
   1.1495000e+01	   2.3039134e-01	  -2.4797454e-01	
   1.1550000e+01	   2.1529493e-01	  -2.5357190e-01	
   1.1605000e+01	   1.9943675e-01	  -2.5931717e-01	
   1.1660000e+01	   1.8276086e-01	  -2.6529944e-01	
   1.1715000e+01	   1.6521300e-01	  -2.7161014e-01	
   1.1770000e+01	   1.4675875e-01	  -2.7832837e-01	
   1.1825000e+01	   1.2740036e-01	  -2.8550726e-01	
   1.1880000e+01	   1.0718768e-01	  -2.9316509e-01	
   1.1935000e+01	   8.6220266e-02	  -3.0128255e-01	
   1.1990000e+01	   6.4640675e-02	  -3.0980578e-01	
   1.2045000e+01	   4.2621345e-02	  -3.1865320e-01	
   1.2100000e+01	   2.0347349e-02	  -3.2772517e-01	
   1.2155000e+01	  -2.0019825e-03	  -3.3691585e-01	
   1.2210000e+01	  -2.4268577e-02	  -3.4612606e-01	
   1.2265000e+01	  -4.6323988e-02	  -3.5527391e-01	
   1.2320000e+01	  -6.8067161e-02	  -3.6429954e-01	
   1.2375000e+01	  -8.9410926e-02	  -3.7316178e-01	
   1.2430000e+01	  -1.1026153e-01	  -3.8182897e-01	
   1.2485000e+01	  -1.3049910e-01	  -3.9026833e-01	
   1.2540000e+01	  -1.4996576e-01	  -3.9843715e-01	
   1.2595000e+01	  -1.6846474e-01	  -4.0627718e-01	
   1.2650000e+01	  -1.8577056e-01	  -4.1371308e-01	
   1.2705000e+01	  -2.0164621e-01	  -4.2065463e-01	
   1.2760000e+01	  -2.1586087e-01	  -4.2700145e-01	
   1.2815000e+01	  -2.2820417e-01	  -4.3264904e-01	
   1.2870000e+01	  -2.3849718e-01	  -4.3749522e-01	
   1.2925000e+01	  -2.4659989e-01	  -4.4144521e-01	
   1.2980000e+01	  -2.5241341e-01	  -4.4441326e-01	
   1.3035000e+01	  -2.5587676e-01	  -4.4632080e-01	
   1.3090000e+01	  -2.5696092e-01	  -4.4709352e-01	
   1.3145000e+01	  -2.5566277e-01	  -4.4665960e-01	
   1.3200000e+01	  -2.5199929e-01	  -4.4494986e-01	
   1.3255000e+01	  -2.4600237e-01	  -4.4189977e-01	
   1.3310000e+01	  -2.3771636e-01	  -4.3745380e-01	
   1.3365000e+01	  -2.2720065e-01	  -4.3157245e-01	
   1.3420000e+01	  -2.1453625e-01	  -4.2424097e-01	
   1.3475000e+01	  -1.9983327e-01	  -4.1547710e-01	
   1.3530000e+01	  -1.8323576e-01	  -4.0533455e-01	
   1.3585000e+01	  -1.6492059e-01	  -3.9390021e-01	
   1.3640000e+01	  -1.4508977e-01	  -3.8128564e-01	
   1.3695000e+01	  -1.2395921e-01	  -3.6761535e-01	
   1.3750000e+01	  -1.0174982e-01	  -3.5301544e-01	
   1.3805000e+01	  -7.8685115e-02	  -3.3760533e-01	
   1.3860000e+01	  -5.4993896e-02	  -3.2149358e-01	
   1.3915000e+01	  -3.0912996e-02	  -3.0477717e-01	
   1.3970000e+01	  -6.6870398e-03	  -2.8754357e-01	
   1.4025000e+01	   1.7433839e-02	  -2.6987562e-01	
   1.4080000e+01	   4.1197331e-02	  -2.5185784e-01	
   1.4135000e+01	   6.4355245e-02	  -2.3358143e-01	
   1.4190000e+01	   8.6675509e-02	  -2.1514524e-01	
   1.4245000e+01	   1.0795926e-01	  -1.9665205e-01	
   1.4300000e+01	   1.2805839e-01	  -1.7820212e-01	
   1.4355000e+01	   1.4688864e-01	  -1.5988635e-01	
   1.4410000e+01	   1.6443517e-01	  -1.4178184e-01	
   1.4465000e+01	   1.8074830e-01	  -1.2395053e-01	
   1.4520000e+01	   1.9592916e-01	  -1.0644075e-01	
   1.4575000e+01	   2.1010751e-01	  -8.9291262e-02	
   1.4630000e+01	   2.2341521e-01	  -7.2537703e-02	
   1.4685000e+01	   2.3595804e-01	  -5.6220736e-02	
   1.4740000e+01	   2.4779074e-01	  -4.0393105e-02	
   1.4795000e+01	   2.5890154e-01	  -2.5122224e-02	
   1.4850000e+01	   2.6921149e-01	  -1.0486685e-02	
   1.4905000e+01	   2.7858785e-01	   3.4322715e-03	
   1.4960000e+01	   2.8686623e-01	   1.6561781e-02	
   1.5015000e+01	   2.9387449e-01	   2.8848006e-02	
   1.5070000e+01	   2.9945366e-01	   4.0263753e-02	
   1.5125000e+01	   3.0347403e-01	   5.0811107e-02	
   1.5180000e+01	   3.0584649e-01	   6.0518625e-02	
   1.5235000e+01	   3.0652954e-01	   6.9434212e-02	
   1.5290000e+01	   3.0553067e-01	   7.7615388e-02	
   1.5345000e+01	   3.0289976e-01	   8.5118562e-02	
   1.5400000e+01	   2.9871422e-01	   9.1988962e-02	
   1.5455000e+01	   2.9306050e-01	   9.8253113e-02	
   1.5510000e+01	   2.8601860e-01	   1.0391542e-01	
   1.5565000e+01	   2.7765487e-01	   1.0895949e-01	
   1.5620000e+01	   2.6802453e-01	   1.1335369e-01	
   1.5675000e+01	   2.5718093e-01	   1.1705944e-01	
   1.5730000e+01	   2.4518713e-01	   1.2004007e-01	
   1.5785000e+01	   2.3212598e-01	   1.2226809e-01	
   1.5840000e+01	   2.1810661e-01	   1.2372942e-01	
   1.5895000e+01	   2.0326686e-01	   1.2442395e-01	
   1.5950000e+01	   1.8777294e-01	   1.2436322e-01	
   1.6005000e+01	   1.7181577e-01	   1.2356587e-01	
   1.6060000e+01	   1.5560197e-01	   1.2205154e-01	
   1.6115000e+01	   1.3933826e-01	   1.1983467e-01	
   1.6170000e+01	   1.2321333e-01	   1.1692030e-01	
   1.6225000e+01	   1.0738313e-01	   1.1330420e-01	
   1.6280000e+01	   9.1964636e-02	   1.0897762e-01	
   1.6335000e+01	   7.7038673e-02	   1.0393588e-01	
   1.6390000e+01	   6.2659271e-02	   9.8188418e-02	
   1.6445000e+01	   4.8865356e-02	   9.1766931e-02	
   1.6500000e+01	   3.5690599e-02	   8.4728910e-02	
   1.6555000e+01	   2.3168362e-02	   7.7156082e-02	
   1.6610000e+01	   1.1330776e-02	   6.9149068e-02	
   1.6665000e+01	   2.0270586e-04	   6.0819564e-02	
   1.6720000e+01	  -1.0207899e-02	   5.2280775e-02	
   1.6775000e+01	  -1.9920818e-02	   4.3637213e-02	
   1.6830000e+01	  -2.8992596e-02	   3.4975718e-02	
   1.6885000e+01	  -3.7521880e-02	   2.6359383e-02	
   1.6940000e+01	  -4.5649747e-02	   1.7825431e-02	
   1.6995000e+01	  -5.3553126e-02	   9.3875724e-03	
   1.7050000e+01	  -6.1430857e-02	   1.0424824e-03	
   1.7105000e+01	  -6.9485553e-02	  -7.2215531e-03	
   1.7160000e+01	  -7.7906570e-02	  -1.5416970e-02	
   1.7215000e+01	  -8.6857078e-02	  -2.3552554e-02	
   1.7270000e+01	  -9.6464541e-02	  -3.1632458e-02	
   1.7325000e+01	  -1.0681361e-01	  -3.9657335e-02	
   1.7380000e+01	  -1.1794279e-01	  -4.7626484e-02	
   1.7435000e+01	  -1.2984678e-01	  -5.5540633e-02	
   1.7490000e+01	  -1.4248431e-01	  -6.3405410e-02	
   1.7545000e+01	  -1.5578866e-01	  -7.1234854e-02	
   1.7600000e+01	  -1.6967688e-01	  -7.9053239e-02	
   1.7655000e+01	  -1.8405550e-01	  -8.6893259e-02	
   1.7710000e+01	  -1.9882153e-01	  -9.4789739e-02	
   1.7765000e+01	  -2.1385877e-01	  -1.0276989e-01	
   1.7820000e+01	  -2.2903215e-01	  -1.1084285e-01	
   1.7875000e+01	  -2.4418528e-01	  -1.1899173e-01	
   1.7930000e+01	  -2.5914413e-01	  -1.2716968e-01	
   1.7985000e+01	  -2.7372548e-01	  -1.3529996e-01	
   1.8040000e+01	  -2.8774740e-01	  -1.4327959e-01	
   1.8095000e+01	  -3.0104169e-01	  -1.5098793e-01	
   1.8150000e+01	  -3.1346933e-01	  -1.5830030e-01	
   1.8205000e+01	  -3.2493668e-01	  -1.6510495e-01	
   1.8260000e+01	  -3.3540737e-01	  -1.7131962e-01	
   1.8315000e+01	  -3.4490658e-01	  -1.7690404e-01	
   1.8370000e+01	  -3.5351641e-01	  -1.8186486e-01	
   1.8425000e+01	  -3.6136296e-01	  -1.8625076e-01	
   1.8480000e+01	  -3.6859714e-01	  -1.9013925e-01	
   1.8535000e+01	  -3.7537393e-01	  -1.9361998e-01	
   1.8590000e+01	  -3.8183491e-01	  -1.9677977e-01	
   1.8645000e+01	  -3.8809575e-01	  -1.9969178e-01	
   1.8700000e+01	  -3.9424005e-01	  -2.0240992e-01	
   1.8755000e+01	  -4.0032138e-01	  -2.0496883e-01	
   1.8810000e+01	  -4.0637433e-01	  -2.0738938e-01	
   1.8865000e+01	  -4.1243140e-01	  -2.0968829e-01	
   1.8920000e+01	  -4.1853996e-01	  -2.1188916e-01	
   1.8975000e+01	  -4.2477542e-01	  -2.1403188e-01	
   1.9030000e+01	  -4.3124930e-01	  -2.1617825e-01	
   1.9085000e+01	  -4.3811076e-01	  -2.1841222e-01	
   1.9140000e+01	  -4.4553854e-01	  -2.2083327e-01	
   1.9195000e+01	  -4.5372347e-01	  -2.2354325e-01	
   1.9250000e+01	  -4.6284650e-01	  -2.2663039e-01	
   1.9305000e+01	  -4.7305808e-01	  -2.3015541e-01	
   1.9360000e+01	  -4.8446094e-01	  -2.3414283e-01	
   1.9415000e+01	  -4.9709807e-01	  -2.3857846e-01	
   1.9470000e+01	  -5.1094831e-01	  -2.4341270e-01	
   1.9525000e+01	  -5.2593013e-01	  -2.4856762e-01	
   1.9580000e+01	  -5.4191150e-01	  -2.5394516e-01	
   1.9635000e+01	  -5.5872348e-01	  -2.5943527e-01	
   1.9690000e+01	  -5.7617457e-01	  -2.6492411e-01	
   1.9745000e+01	  -5.9406386e-01	  -2.7030149e-01	
   1.9800000e+01	  -6.1219076e-01	  -2.7546548e-01	
   1.9855000e+01	  -6.3035991e-01	  -2.8032300e-01	
   1.9910000e+01	  -6.4838135e-01	  -2.8478734e-01	
   1.9965000e+01	  -6.6606753e-01	  -2.8877488e-01	
   2.0020000e+01	  -6.8322961e-01	  -2.9220278e-01	
   2.0075000e+01	  -6.9967553e-01	  -2.9498909e-01	
   2.0130000e+01	  -7.1521311e-01	  -2.9705620e-01	
   2.0185000e+01	  -7.2965848e-01	  -2.9833771e-01	
   2.0240000e+01	  -7.4284647e-01	  -2.9878720e-01	
   2.0295000e+01	  -7.5463875e-01	  -2.9838643e-01	
   2.0350000e+01	  -7.6492818e-01	  -2.9715025e-01	
   2.0405000e+01	  -7.7363886e-01	  -2.9512657e-01	
   2.0460000e+01	  -7.8072129e-01	  -2.9239093e-01	
   2.0515000e+01	  -7.8614273e-01	  -2.8903616e-01	
   2.0570000e+01	  -7.8987561e-01	  -2.8515901e-01	
   2.0625000e+01	  -7.9188794e-01	  -2.8084710e-01	
   2.0680000e+01	  -7.9213867e-01	  -2.7616933e-01	
   2.0735000e+01	  -7.9057818e-01	  -2.7117066e-01	
   2.0790000e+01	  -7.8715418e-01	  -2.6587127e-01	
   2.0845000e+01	  -7.8182263e-01	  -2.6026937e-01	
   2.0900000e+01	  -7.7456073e-01	  -2.5434710e-01	
   2.0955000e+01	  -7.6537822e-01	  -2.4807730e-01	
   2.1010000e+01	  -7.5432514e-01	  -2.4142911e-01	
   2.1065000e+01	  -7.4149455e-01	  -2.3437080e-01	
   2.1120000e+01	  -7.2701702e-01	  -2.2686977e-01	
   2.1175000e+01	  -7.1104613e-01	  -2.1888991e-01	
   2.1230000e+01	  -6.9373970e-01	  -2.1038879e-01	
   2.1285000e+01	  -6.7524394e-01	  -2.0131726e-01	
   2.1340000e+01	  -6.5568485e-01	  -1.9162298e-01	
   2.1395000e+01	  -6.3516728e-01	  -1.8125698e-01	
   2.1450000e+01	  -6.1378068e-01	  -1.7018262e-01	
   2.1505000e+01	  -5.9160994e-01	  -1.5838629e-01	
   2.1560000e+01	  -5.6874829e-01	  -1.4588820e-01	
   2.1615000e+01	  -5.4530797e-01	  -1.3275054e-01	
   2.1670000e+01	  -5.2142610e-01	  -1.1908079e-01	
   2.1725000e+01	  -4.9726483e-01	  -1.0502823e-01	
   2.1780000e+01	  -4.7300469e-01	  -9.0773052e-02	
   2.1835000e+01	  -4.4883182e-01	  -7.6509092e-02	
   2.1890000e+01	  -4.2492250e-01	  -6.2423748e-02	
   2.1945000e+01	  -4.0142951e-01	  -4.8679650e-02	
   2.2000000e+01	  -3.7847371e-01	  -3.5401188e-02	
   2.2055000e+01	  -3.5614336e-01	  -2.2667431e-02	
   2.2110000e+01	  -3.3450179e-01	  -1.0512153e-02	
   2.2165000e+01	  -3.1360124e-01	   1.0688275e-03	
   2.2220000e+01	  -2.9349861e-01	   1.2104309e-02	
   2.2275000e+01	  -2.7426841e-01	   2.2631837e-02	
   2.2330000e+01	  -2.5600867e-01	   3.2683650e-02	
   2.2385000e+01	  -2.3883908e-01	   4.2277847e-02	
   2.2440000e+01	  -2.2289269e-01	   5.1416364e-02	
   2.2495000e+01	  -2.0830314e-01	   6.0089490e-02	
   2.2550000e+01	  -1.9518900e-01	   6.8284800e-02	
   2.2605000e+01	  -1.8363677e-01	   7.5997066e-02	
   2.2660000e+01	  -1.7368499e-01	   8.3236023e-02	
   2.2715000e+01	  -1.6531159e-01	   9.0030555e-02	
   2.2770000e+01	  -1.5842759e-01	   9.6429265e-02	
   2.2825000e+01	  -1.5288034e-01	   1.0249714e-01	
   2.2880000e+01	  -1.4846756e-01	   1.0830778e-01	
   2.2935000e+01	  -1.4495960e-01	   1.1393203e-01	
   2.2990000e+01	  -1.4212449e-01	   1.1942566e-01	
   2.3045000e+01	  -1.3975108e-01	   1.2481882e-01	
   2.3100000e+01	  -1.3766773e-01	   1.3010929e-01	
   2.3155000e+01	  -1.3575455e-01	   1.3526152e-01	
   2.3210000e+01	  -1.3394675e-01	   1.4021307e-01	
   2.3265000e+01	  -1.3222909e-01	   1.4488739e-01	
   2.3320000e+01	  -1.3062467e-01	   1.4920907e-01	
   2.3375000e+01	  -1.2918187e-01	   1.5311664e-01	
   2.3430000e+01	  -1.2796197e-01	   1.5657054e-01	
   2.3485000e+01	  -1.2702997e-01	   1.5955570e-01	
   2.3540000e+01	  -1.2645086e-01	   1.6207909e-01	
   2.3595000e+01	  -1.2629252e-01	   1.6416265e-01	
   2.3650000e+01	  -1.2663277e-01	   1.6583241e-01	
   2.3705000e+01	  -1.2756743e-01	   1.6710564e-01	
   2.3760000e+01	  -1.2921767e-01	   1.6797853e-01	
   2.3815000e+01	  -1.3173536e-01	   1.6841677e-01	
   2.3870000e+01	  -1.3530290e-01	   1.6835124e-01	
   2.3925000e+01	  -1.4012314e-01	   1.6768038e-01	
   2.3980000e+01	  -1.4639883e-01	   1.6627906e-01	
   2.4035000e+01	  -1.5430617e-01	   1.6401284e-01	
   2.4090000e+01	  -1.6396810e-01	   1.6075463e-01	
   2.4145000e+01	  -1.7543199e-01	   1.5640062e-01	
   2.4200000e+01	  -1.8865663e-01	   1.5088320e-01	
   2.4255000e+01	  -2.0351257e-01	   1.4417919e-01	
   2.4310000e+01	  -2.1979683e-01	   1.3631256e-01	
   2.4365000e+01	  -2.3725812e-01	   1.2735189e-01	
   2.4420000e+01	  -2.5562729e-01	   1.1740243e-01	
   2.4475000e+01	  -2.7464805e-01	   1.0659363e-01	
   2.4530000e+01	  -2.9410399e-01	   9.5064830e-02	
   2.4585000e+01	  -3.1383771e-01	   8.2952089e-02	
   2.4640000e+01	  -3.3375928e-01	   7.0378485e-02	
   2.4695000e+01	  -3.5384231e-01	   5.7449175e-02	
   2.4750000e+01	  -3.7410794e-01	   4.4252609e-02	
   2.4805000e+01	  -3.9459961e-01	   3.0867892e-02	
   2.4860000e+01	  -4.1535474e-01	   1.7375490e-02	
   2.4915000e+01	  -4.3638100e-01	   3.8666649e-03	
   2.4970000e+01	  -4.5764154e-01	  -9.5517882e-03	
   2.5025000e+01	  -4.7905002e-01	  -2.2758295e-02	
   2.5080000e+01	  -5.0047536e-01	  -3.5622157e-02	
   2.5135000e+01	  -5.2175547e-01	  -4.8013210e-02	
   2.5190000e+01	  -5.4271550e-01	  -5.9813608e-02	
   2.5245000e+01	  -5.6318413e-01	  -7.0928980e-02	
   2.5300000e+01	  -5.8300473e-01	  -8.1297004e-02	
   2.5355000e+01	  -6.0204201e-01	  -9.0892690e-02	
   2.5410000e+01	  -6.2018410e-01	  -9.9729192e-02	
   2.5465000e+01	  -6.3733871e-01	  -1.0785258e-01	
   2.5520000e+01	  -6.5342464e-01	  -1.1533113e-01	
   2.5575000e+01	  -6.6836257e-01	  -1.2224274e-01	
   2.5630000e+01	  -6.8206838e-01	  -1.2866408e-01	
   2.5685000e+01	  -6.9444985e-01	  -1.3466350e-01	
   2.5740000e+01	  -7.0540770e-01	  -1.4029804e-01	
   2.5795000e+01	  -7.1484200e-01	  -1.4561442e-01	
   2.5850000e+01	  -7.2266327e-01	  -1.5065357e-01	
   2.5905000e+01	  -7.2880536e-01	  -1.5545719e-01	
   2.5960000e+01	  -7.3323629e-01	  -1.6007353e-01	
   2.6015000e+01	  -7.3596420e-01	  -1.6455933e-01	
   2.6070000e+01	  -7.3703656e-01	  -1.6897671e-01	
   2.6125000e+01	  -7.3653293e-01	  -1.7338496e-01	
   2.6180000e+01	  -7.3455313e-01	  -1.7782855e-01	
   2.6235000e+01	  -7.3120417e-01	  -1.8232493e-01	
   2.6290000e+01	  -7.2658915e-01	  -1.8685629e-01	
   2.6345000e+01	  -7.2079996e-01	  -1.9136716e-01	
   2.6400000e+01	  -7.1391384e-01	  -1.9576742e-01	
   2.6455000e+01	  -7.0599297e-01	  -1.9993977e-01	
   2.6510000e+01	  -6.9708819e-01	  -2.0375111e-01	
   2.6565000e+01	  -6.8724848e-01	  -2.0706677e-01	
   2.6620000e+01	  -6.7653460e-01	  -2.0976512e-01	
   2.6675000e+01	  -6.6503149e-01	  -2.1175003e-01	
   2.6730000e+01	  -6.5285454e-01	  -2.1295885e-01	
   2.6785000e+01	  -6.4014774e-01	  -2.1336411e-01	
   2.6840000e+01	  -6.2707407e-01	  -2.1296916e-01	
   2.6895000e+01	  -6.1380154e-01	  -2.1180035e-01	
   2.6950000e+01	  -6.0049017e-01	  -2.0989957e-01	
   2.7005000e+01	  -5.8728420e-01	  -2.0731991e-01	
   2.7060000e+01	  -5.7430958e-01	  -2.0412437e-01	
   2.7115000e+01	  -5.6167521e-01	  -2.0038673e-01	
   2.7170000e+01	  -5.4947685e-01	  -1.9619300e-01	
   2.7225000e+01	  -5.3780335e-01	  -1.9164269e-01	
   2.7280000e+01	  -5.2674477e-01	  -1.8684975e-01	
   2.7335000e+01	  -5.1640056e-01	  -1.8194238e-01	
   2.7390000e+01	  -5.0688481e-01	  -1.7706092e-01	
   2.7445000e+01	  -4.9832438e-01	  -1.7235238e-01	
   2.7500000e+01	  -4.9084762e-01	  -1.6796152e-01	
   2.7555000e+01	  -4.8456494e-01	  -1.6401977e-01	
   2.7610000e+01	  -4.7954739e-01	  -1.6063422e-01	
   2.7665000e+01	  -4.7581036e-01	  -1.5787888e-01	
   2.7720000e+01	  -4.7330672e-01	  -1.5578963e-01	
   2.7775000e+01	  -4.7192903e-01	  -1.5436380e-01	
   2.7830000e+01	  -4.7151892e-01	  -1.5356532e-01	
   2.7885000e+01	  -4.7188266e-01	  -1.5333538e-01	
   2.7940000e+01	  -4.7281148e-01	  -1.5360581e-01	
   2.7995000e+01	  -4.7410460e-01	  -1.5431152e-01	
   2.8050000e+01	  -4.7559161e-01	  -1.5539944e-01	
   2.8105000e+01	  -4.7715082e-01	  -1.5683409e-01	
   2.8160000e+01	  -4.7871929e-01	  -1.5859869e-01	
   2.8215000e+01	  -4.8029137e-01	  -1.6069055e-01	
   2.8270000e+01	  -4.8190553e-01	  -1.6311133e-01	
   2.8325000e+01	  -4.8362325e-01	  -1.6585555e-01	
   2.8380000e+01	  -4.8550520e-01	  -1.6890162e-01	
   2.8435000e+01	  -4.8758951e-01	  -1.7220771e-01	
   2.8490000e+01	  -4.8987607e-01	  -1.7571271e-01	
   2.8545000e+01	  -4.9232070e-01	  -1.7934198e-01	
   2.8600000e+01	  -4.9484127e-01	  -1.8301720e-01	
   2.8655000e+01	  -4.9733409e-01	  -1.8666830e-01	
   2.8710000e+01	  -4.9969538e-01	  -1.9024462e-01	
   2.8765000e+01	  -5.0184278e-01	  -1.9372326e-01	
   2.8820000e+01	  -5.0373102e-01	  -1.9711227e-01	
   2.8875000e+01	  -5.0535656e-01	  -2.0044718e-01	
   2.8930000e+01	  -5.0674914e-01	  -2.0378075e-01	
   2.8985000e+01	  -5.0795420e-01	  -2.0716909e-01	
   2.9040000e+01	  -5.0901368e-01	  -2.1065827e-01	
   2.9095000e+01	  -5.0995126e-01	  -2.1427404e-01	
   2.9150000e+01	  -5.1076362e-01	  -2.1801677e-01	
   2.9205000e+01	  -5.1141839e-01	  -2.2186249e-01	
   2.9260000e+01	  -5.1186022e-01	  -2.2576991e-01	
   2.9315000e+01	  -5.1202494e-01	  -2.2969136e-01	
   2.9370000e+01	  -5.1185681e-01	  -2.3358459e-01	
   2.9425000e+01	  -5.1132214e-01	  -2.3742229e-01	
   2.9480000e+01	  -5.1041513e-01	  -2.4119700e-01	
   2.9535000e+01	  -5.0915533e-01	  -2.4492024e-01	
   2.9590000e+01	  -5.0757807e-01	  -2.4861670e-01	
   2.9645000e+01	  -5.0572036e-01	  -2.5231645e-01	
   2.9700000e+01	  -5.0360695e-01	  -2.5604810e-01	
   2.9755000e+01	  -5.0123955e-01	  -2.5983376e-01	
   2.9810000e+01	  -4.9858896e-01	  -2.6368492e-01	
   2.9865000e+01	  -4.9558973e-01	  -2.6759890e-01	
   2.9920000e+01	  -4.9213906e-01	  -2.7155711e-01	
   2.9975000e+01	  -4.8810221e-01	  -2.7552581e-01	
   3.0030000e+01	  -4.8332239e-01	  -2.7945811e-01	
   3.0085000e+01	  -4.7763115e-01	  -2.8329511e-01	
   3.0140000e+01	  -4.7085577e-01	  -2.8696448e-01	
   3.0195000e+01	  -4.6282350e-01	  -2.9037639e-01	
   3.0250000e+01	  -4.5336366e-01	  -2.9341851e-01	
   3.0305000e+01	  -4.4230908e-01	  -2.9595316e-01	
   3.0360000e+01	  -4.2949835e-01	  -2.9782024e-01	
   3.0415000e+01	  -4.1478069e-01	  -2.9884700e-01	
   3.0470000e+01	  -3.9802520e-01	  -2.9886336e-01	
   3.0525000e+01	  -3.7913593e-01	  -2.9771976e-01	
   3.0580000e+01	  -3.5807149e-01	  -2.9530482e-01	
   3.0635000e+01	  -3.3486508e-01	  -2.9156009e-01	
   3.0690000e+01	  -3.0963848e-01	  -2.8648965e-01	
   3.0745000e+01	  -2.8260328e-01	  -2.8016193e-01	
   3.0800000e+01	  -2.5404718e-01	  -2.7270273e-01	
   3.0855000e+01	  -2.2430941e-01	  -2.6428145e-01	
   3.0910000e+01	  -1.9375134e-01	  -2.5509394e-01	
   3.0965000e+01	  -1.6272729e-01	  -2.4534569e-01	
   3.1020000e+01	  -1.3155956e-01	  -2.3523827e-01	
   3.1075000e+01	  -1.0052261e-01	  -2.2496091e-01	
   3.1130000e+01	  -6.9840238e-02	  -2.1468797e-01	
   3.1185000e+01	  -3.9694632e-02	  -2.0458114e-01	
   3.1240000e+01	  -1.0242609e-02	  -1.9479414e-01	
   3.1295000e+01	   1.8366427e-02	  -1.8547795e-01	
   3.1350000e+01	   4.5975789e-02	  -1.7678434e-01	
   3.1405000e+01	   7.2414825e-02	  -1.6886545e-01	
   3.1460000e+01	   9.7501925e-02	  -1.6186780e-01	
   3.1515000e+01	   1.2105473e-01	  -1.5592225e-01	
   3.1570000e+01	   1.4290363e-01	  -1.5113296e-01	
   3.1625000e+01	   1.6290493e-01	  -1.4756925e-01	
   3.1680000e+01	   1.8095003e-01	  -1.4526246e-01	
   3.1735000e+01	   1.9696853e-01	  -1.4420821e-01	
   3.1790000e+01	   2.1092666e-01	  -1.4437286e-01	
   3.1845000e+01	   2.2282307e-01	  -1.4570212e-01	
   3.1900000e+01	   2.3268229e-01	  -1.4813015e-01	
   3.1955000e+01	   2.4054514e-01	  -1.5158801e-01	
   3.2010000e+01	   2.4645826e-01	  -1.5601047e-01	
   3.2065000e+01	   2.5046711e-01	  -1.6133913e-01	
   3.2120000e+01	   2.5261484e-01	  -1.6752001e-01	
   3.2175000e+01	   2.5294724e-01	  -1.7449666e-01	
   3.2230000e+01	   2.5152186e-01	  -1.8220131e-01	
   3.2285000e+01	   2.4841938e-01	  -1.9054755e-01	
   3.2340000e+01	   2.4375356e-01	  -1.9942663e-01	
   3.2395000e+01	   2.3767472e-01	  -2.0870848e-01	
   3.2450000e+01	   2.3036391e-01	  -2.1824743e-01	
   3.2505000e+01	   2.2201938e-01	  -2.2789132e-01	
   3.2560000e+01	   2.1284024e-01	  -2.3749246e-01	
   3.2615000e+01	   2.0301149e-01	  -2.4691844e-01	
   3.2670000e+01	   1.9269274e-01	  -2.5606153e-01	
   3.2725000e+01	   1.8201322e-01	  -2.6484554e-01	
   3.2780000e+01	   1.7107547e-01	  -2.7322872e-01	
   3.2835000e+01	   1.5996712e-01	  -2.8120221e-01	
   3.2890000e+01	   1.4877698e-01	  -2.8878480e-01	
   3.2945000e+01	   1.3761125e-01	  -2.9601572e-01	
   3.3000000e+01	   1.2660696e-01	  -3.0294641e-01	
   3.3055000e+01	   1.1594047e-01	  -3.0963241e-01	
   3.3110000e+01	   1.0582872e-01	  -3.1612650e-01	
   3.3165000e+01	   9.6522085e-02	  -3.2247459e-01	
   3.3220000e+01	   8.8289205e-02	  -3.2871401e-01	
   3.3275000e+01	   8.1396132e-02	  -3.3487334e-01	
   3.3330000e+01	   7.6084124e-02	  -3.4097256e-01	
   3.3385000e+01	   7.2551919e-02	  -3.4702194e-01	
   3.3440000e+01	   7.0947413e-02	  -3.5301880e-01	
   3.3495000e+01	   7.1369127e-02	  -3.5894309e-01	
   3.3550000e+01	   7.3873063e-02	  -3.6475414e-01	
   3.3605000e+01	   7.8479425e-02	  -3.7039052e-01	
   3.3660000e+01	   8.5175977e-02	  -3.7577300e-01	
   3.3715000e+01	   9.3917476e-02	  -3.8080976e-01	
   3.3770000e+01	   1.0462145e-01	  -3.8540340e-01	
   3.3825000e+01	   1.1716079e-01	  -3.8945970e-01	
   3.3880000e+01	   1.3135490e-01	  -3.9289656e-01	
   3.3935000e+01	   1.4696353e-01	  -3.9565065e-01	
   3.3990000e+01	   1.6368682e-01	  -3.9767983e-01	
   3.4045000e+01	   1.8117428e-01	  -3.9896071e-01	
   3.4100000e+01	   1.9904366e-01	  -3.9948168e-01	
   3.4155000e+01	   2.1691065e-01	  -3.9923299e-01	
   3.4210000e+01	   2.3442502e-01	  -3.9819678e-01	
   3.4265000e+01	   2.5130472e-01	  -3.9634074e-01	
   3.4320000e+01	   2.6735876e-01	  -3.9361734e-01	
   3.4375000e+01	   2.8249413e-01	  -3.8996815e-01	
   3.4430000e+01	   2.9670726e-01	  -3.8533239e-01	
   3.4485000e+01	   3.1006346e-01	  -3.7965819e-01	
   3.4540000e+01	   3.2267061e-01	  -3.7291429e-01	
   3.4595000e+01	   3.3465381e-01	  -3.6509957e-01	
   3.4650000e+01	   3.4613664e-01	  -3.5624820e-01	
   3.4705000e+01	   3.5723074e-01	  -3.4642937e-01	
   3.4760000e+01	   3.6803336e-01	  -3.3574169e-01	
   3.4815000e+01	   3.7863165e-01	  -3.2430408e-01	
   3.4870000e+01	   3.8911007e-01	  -3.1224621e-01	
   3.4925000e+01	   3.9955505e-01	  -2.9970156e-01	
   3.4980000e+01	   4.1005381e-01	  -2.8680387e-01	
   3.5035000e+01	   4.2068873e-01	  -2.7368626e-01	
   3.5090000e+01	   4.3152991e-01	  -2.6048148e-01	
   3.5145000e+01	   4.4262715e-01	  -2.4732282e-01	
   3.5200000e+01	   4.5400295e-01	  -2.3434518e-01	
   3.5255000e+01	   4.6564975e-01	  -2.2168453e-01	
   3.5310000e+01	   4.7753416e-01	  -2.0947425e-01	
   3.5365000e+01	   4.8960810e-01	  -1.9783749e-01	
   3.5420000e+01	   5.0182281e-01	  -1.8687663e-01	
   3.5475000e+01	   5.1414003e-01	  -1.7666186e-01	
   3.5530000e+01	   5.2653686e-01	  -1.6722141e-01	
   3.5585000e+01	   5.3900443e-01	  -1.5853593e-01	
   3.5640000e+01	   5.5154351e-01	  -1.5053883e-01	
   3.5695000e+01	   5.6416025e-01	  -1.4312267e-01	
   3.5750000e+01	   5.7686224e-01	  -1.3615016e-01	
   3.5805000e+01	   5.8965241e-01	  -1.2946846e-01	
   3.5860000e+01	   6.0251958e-01	  -1.2292431e-01	
   3.5915000e+01	   6.1542847e-01	  -1.1637780e-01	
   3.5970000e+01	   6.2831281e-01	  -1.0971301e-01	
   3.6025000e+01	   6.4107341e-01	  -1.0284501e-01	
   3.6080000e+01	   6.5358067e-01	  -9.5722703e-02	
   3.6135000e+01	   6.6568067e-01	  -8.8327731e-02	
   3.6190000e+01	   6.7720359e-01	  -8.0669692e-02	
   3.6245000e+01	   6.8797305e-01	  -7.2779203e-02	
   3.6300000e+01	   6.9781496e-01	  -6.4700781e-02	
   3.6355000e+01	   7.0656470e-01	  -5.6487312e-02	
   3.6410000e+01	   7.1407119e-01	  -4.8196932e-02	
   3.6465000e+01	   7.2019740e-01	  -3.9892671e-02	
   3.6520000e+01	   7.2481734e-01	  -3.1644776e-02	
   3.6575000e+01	   7.2781231e-01	  -2.3534406e-02	
   3.6630000e+01	   7.2906926e-01	  -1.5656320e-02	
   3.6685000e+01	   7.2848290e-01	  -8.1185690e-03	
   3.6740000e+01	   7.2596181e-01	  -1.0383197e-03	
   3.6795000e+01	   7.2143881e-01	   5.4661386e-03	
   3.6850000e+01	   7.1488372e-01	   1.1285814e-02	
   3.6905000e+01	   7.0631442e-01	   1.6330978e-02	
   3.6960000e+01	   6.9580172e-01	   2.0537942e-02	
   3.7015000e+01	   6.8346704e-01	   2.3871810e-02	
   3.7070000e+01	   6.6947472e-01	   2.6325786e-02	
   3.7125000e+01	   6.5402196e-01	   2.7917768e-02	
   3.7180000e+01	   6.3732807e-01	   2.8684753e-02	
   3.7235000e+01	   6.1962294e-01	   2.8675799e-02	
   3.7290000e+01	   6.0113458e-01	   2.7944161e-02	
   3.7345000e+01	   5.8207749e-01	   2.6539300e-02	
   3.7400000e+01	   5.6264422e-01	   2.4500591e-02	
   3.7455000e+01	   5.4300239e-01	   2.1855582e-02	
   3.7510000e+01	   5.2329861e-01	   1.8624427e-02	
   3.7565000e+01	   5.0366802e-01	   1.4828869e-02	
   3.7620000e+01	   4.8424468e-01	   1.0501701e-02	
   3.7675000e+01	   4.6516780e-01	   5.6928756e-03	
   3.7730000e+01	   4.4658224e-01	   4.7085048e-04	
   3.7785000e+01	   4.2863411e-01	  -5.0800763e-03	
   3.7840000e+01	   4.1146117e-01	  -1.0865087e-02	
   3.7895000e+01	   3.9517874e-01	  -1.6785734e-02	
   3.7950000e+01	   3.7986530e-01	  -2.2747109e-02	
   3.8005000e+01	   3.6555473e-01	  -2.8663302e-02	
   3.8060000e+01	   3.5223921e-01	  -3.4458971e-02	
   3.8115000e+01	   3.3988250e-01	  -4.0066167e-02	
   3.8170000e+01	   3.2844000e-01	  -4.5418065e-02	
   3.8225000e+01	   3.1788012e-01	  -5.0443128e-02	
   3.8280000e+01	   3.0819956e-01	  -5.5062646e-02	
   3.8335000e+01	   2.9942658e-01	  -5.9192338e-02	
   3.8390000e+01	   2.9161231e-01	  -6.2746717e-02	
   3.8445000e+01	   2.8481438e-01	  -6.5644549e-02	
   3.8500000e+01	   2.7907795e-01	  -6.7814683e-02	
   3.8555000e+01	   2.7441828e-01	  -6.9202420e-02	
   3.8610000e+01	   2.7080876e-01	  -6.9775671e-02	
   3.8665000e+01	   2.6817717e-01	  -6.9528750e-02	
   3.8720000e+01	   2.6641003e-01	  -6.8481842e-02	
   3.8775000e+01	   2.6536163e-01	  -6.6676497e-02	
   3.8830000e+01	   2.6486461e-01	  -6.4169243e-02	
   3.8885000e+01	   2.6474127e-01	  -6.1025090e-02	
   3.8940000e+01	   2.6481500e-01	  -5.7311714e-02	
   3.8995000e+01	   2.6492147e-01	  -5.3094955e-02	
   3.9050000e+01	   2.6491866e-01	  -4.8436282e-02	
   3.9105000e+01	   2.6469395e-01	  -4.3392332e-02	
   3.9160000e+01	   2.6416639e-01	  -3.8015788e-02	
   3.9215000e+01	   2.6328355e-01	  -3.2356598e-02	
   3.9270000e+01	   2.6201567e-01	  -2.6462137e-02	
   3.9325000e+01	   2.6035082e-01	  -2.0374430e-02	
   3.9380000e+01	   2.5829385e-01	  -1.4123917e-02	
   3.9435000e+01	   2.5586767e-01	  -7.7219901e-03	
   3.9490000e+01	   2.5311366e-01	  -1.1560503e-03	
   3.9545000e+01	   2.5008950e-01	   5.6105620e-03	
   3.9600000e+01	   2.4686516e-01	   1.2633859e-02	
   3.9655000e+01	   2.4351777e-01	   1.9981030e-02	
   3.9710000e+01	   2.4012401e-01	   2.7719608e-02	
   3.9765000e+01	   2.3674801e-01	   3.5904722e-02	
   3.9820000e+01	   2.3342731e-01	   4.4566507e-02	
   3.9875000e+01	   2.3016242e-01	   5.3700618e-02	
   3.9930000e+01	   2.2691435e-01	   6.3264104e-02	
   3.9985000e+01	   2.2361142e-01	   7.3177995e-02	
   4.0040000e+01	   2.2016395e-01	   8.3336716e-02	
   4.0095000e+01	   2.1648341e-01	   9.3622023e-02	
   4.0150000e+01	   2.1250038e-01	   1.0391750e-01	
   4.0205000e+01	   2.0817710e-01	   1.1412057e-01	
   4.0260000e+01	   2.0351285e-01	   1.2415070e-01	
   4.0315000e+01	   1.9854283e-01	   1.3395238e-01	
   4.0370000e+01	   1.9333112e-01	   1.4349162e-01	
   4.0425000e+01	   1.8795925e-01	   1.5274660e-01	
   4.0480000e+01	   1.8251300e-01	   1.6169587e-01	
   4.0535000e+01	   1.7707085e-01	   1.7030844e-01	
   4.0590000e+01	   1.7169593e-01	   1.7853863e-01	
   4.0645000e+01	   1.6643298e-01	   1.8632722e-01	
   4.0700000e+01	   1.6131052e-01	   1.9360788e-01	
   4.0755000e+01	   1.5634663e-01	   2.0031626e-01	
   4.0810000e+01	   1.5155507e-01	   2.0639832e-01	
   4.0865000e+01	   1.4694939e-01	   2.1181611e-01	
   4.0920000e+01	   1.4254519e-01	   2.1655043e-01	
   4.0975000e+01	   1.3836028e-01	   2.2060028e-01	
   4.1030000e+01	   1.3441222e-01	   2.2397887e-01	
   4.1085000e+01	   1.3071277e-01	   2.2670693e-01	
   4.1140000e+01	   1.2726213e-01	   2.2880636e-01	
   4.1195000e+01	   1.2404751e-01	   2.3029854e-01	
   4.1250000e+01	   1.2104809e-01	   2.3120895e-01	
   4.1305000e+01	   1.1824465e-01	   2.3157643e-01	
   4.1360000e+01	   1.1563091e-01	   2.3146296e-01	
   4.1415000e+01	   1.1322388e-01	   2.3096057e-01	
   4.1470000e+01	   1.1106905e-01	   2.3019284e-01	
   4.1525000e+01	   1.0923686e-01	   2.2931030e-01	
   4.1580000e+01	   1.0781113e-01	   2.2848045e-01	
   4.1635000e+01	   1.0687328e-01	   2.2787447e-01	
   4.1690000e+01	   1.0648615e-01	   2.2765247e-01	
   4.1745000e+01	   1.0668007e-01	   2.2794956e-01	
   4.1800000e+01	   1.0744551e-01	   2.2886578e-01	
   4.1855000e+01	   1.0873578e-01	   2.3046260e-01	
   4.1910000e+01	   1.1047845e-01	   2.3276597e-01	
   4.1965000e+01	   1.1258973e-01	   2.3577298e-01	
   4.2020000e+01	   1.1498705e-01	   2.3945939e-01	
   4.2075000e+01	   1.1759885e-01	   2.4378619e-01	
   4.2130000e+01	   1.2037226e-01	   2.4870495e-01	
   4.2185000e+01	   1.2327859e-01	   2.5416132e-01	
   4.2240000e+01	   1.2631617e-01	   2.6009612e-01	
   4.2295000e+01	   1.2951062e-01	   2.6644375e-01	
   4.2350000e+01	   1.3291313e-01	   2.7312896e-01	
   4.2405000e+01	   1.3659750e-01	   2.8006376e-01	
   4.2460000e+01	   1.4065708e-01	   2.8714704e-01	
   4.2515000e+01	   1.4520335e-01	   2.9426909e-01	
   4.2570000e+01	   1.5036628e-01	   3.0132101e-01	
   4.2625000e+01	   1.5629576e-01	   3.0820695e-01	
   4.2680000e+01	   1.6316247e-01	   3.1485615e-01	
   4.2735000e+01	   1.7115604e-01	   3.2123149e-01	
   4.2790000e+01	   1.8047798e-01	   3.2733232e-01	
   4.2845000e+01	   1.9132631e-01	   3.3319067e-01	
   4.2900000e+01	   2.0387190e-01	   3.3886190e-01	
   4.2955000e+01	   2.1823058e-01	   3.4441169e-01	
   4.3010000e+01	   2.3443723e-01	   3.4990159e-01	
   4.3065000e+01	   2.5242531e-01	   3.5537543e-01	
   4.3120000e+01	   2.7201462e-01	   3.6084878e-01	
   4.3175000e+01	   2.9291129e-01	   3.6630339e-01	
   4.3230000e+01	   3.1472329e-01	   3.7168878e-01	
   4.3285000e+01	   3.3699009e-01	   3.7693157e-01	
   4.3340000e+01	   3.5921992e-01	   3.8195034e-01	
   4.3395000e+01	   3.8092869e-01	   3.8667226e-01	
   4.3450000e+01	   4.0167618e-01	   3.9104735e-01	
   4.3505000e+01	   4.2109512e-01	   3.9505738e-01	
   4.3560000e+01	   4.3890788e-01	   3.9871712e-01	
   4.3615000e+01	   4.5492972e-01	   4.0206839e-01	
   4.3670000e+01	   4.6906078e-01	   4.0516886e-01	
   4.3725000e+01	   4.8126885e-01	   4.0807790e-01	
   4.3780000e+01	   4.9156472e-01	   4.1084191e-01	
   4.3835000e+01	   4.9997416e-01	   4.1348210e-01	
   4.3890000e+01	   5.0651332e-01	   4.1598757e-01	
   4.3945000e+01	   5.1117335e-01	   4.1831462e-01	
   4.4000000e+01	   5.1391830e-01	   4.2039232e-01	
   4.4055000e+01	   5.1469675e-01	   4.2213402e-01	
   4.4110000e+01	   5.1346369e-01	   4.2345268e-01	
   4.4165000e+01	   5.1020535e-01	   4.2427586e-01	
   4.4220000e+01	   5.0495995e-01	   4.2455686e-01	
   4.4275000e+01	   4.9783045e-01	   4.2428096e-01	
   4.4330000e+01	   4.8898836e-01	   4.2346703e-01	
   4.4385000e+01	   4.7866939e-01	   4.2216465e-01	
   4.4440000e+01	   4.6716258e-01	   4.2044711e-01	
   4.4495000e+01	   4.5479446e-01	   4.1840041e-01	
   4.4550000e+01	   4.4190854e-01	   4.1610983e-01	
   4.4605000e+01	   4.2884105e-01	   4.1364609e-01	
   4.4660000e+01	   4.1589556e-01	   4.1105338e-01	
   4.4715000e+01	   4.0332174e-01	   4.0834182e-01	
   4.4770000e+01	   3.9130353e-01	   4.0548669e-01	
   4.4825000e+01	   3.7995955e-01	   4.0243528e-01	
   4.4880000e+01	   3.6935332e-01	   3.9911953e-01	
   4.4935000e+01	   3.5950808e-01	   3.9547073e-01	
   4.4990000e+01	   3.5042177e-01	   3.9143282e-01	
   4.5045000e+01	   3.4207891e-01	   3.8697199e-01	
   4.5100000e+01	   3.3445689e-01	   3.8208104e-01	
   4.5155000e+01	   3.2752595e-01	   3.7677795e-01	
   4.5210000e+01	   3.2124562e-01	   3.7110038e-01	
   4.5265000e+01	   3.1556042e-01	   3.6509774e-01	
   4.5320000e+01	   3.1039566e-01	   3.5882243e-01	
   4.5375000e+01	   3.0565374e-01	   3.5232179e-01	
   4.5430000e+01	   3.0121262e-01	   3.4563243e-01	
   4.5485000e+01	   2.9692874e-01	   3.3877843e-01	
   4.5540000e+01	   2.9264575e-01	   3.3177399e-01	
   4.5595000e+01	   2.8821014e-01	   3.2462949e-01	
   4.5650000e+01	   2.8349214e-01	   3.1735902e-01	
   4.5705000e+01	   2.7840521e-01	   3.0998655e-01	
   4.5760000e+01	   2.7291640e-01	   3.0254890e-01	
   4.5815000e+01	   2.6704351e-01	   2.9509420e-01	
   4.5870000e+01	   2.6084203e-01	   2.8767641e-01	
   4.5925000e+01	   2.5438791e-01	   2.8034689e-01	
   4.5980000e+01	   2.4776040e-01	   2.7314321e-01	
   4.6035000e+01	   2.4102472e-01	   2.6607644e-01	
   4.6090000e+01	   2.3421533e-01	   2.5911949e-01	
   4.6145000e+01	   2.2732258e-01	   2.5219985e-01	
   4.6200000e+01	   2.2028581e-01	   2.4519867e-01	
   4.6255000e+01	   2.1299420e-01	   2.3795718e-01	
   4.6310000e+01	   2.0529700e-01	   2.3029105e-01	
   4.6365000e+01	   1.9702245e-01	   2.2201014e-01	
   4.6420000e+01	   1.8800132e-01	   2.1293961e-01	
   4.6475000e+01	   1.7808908e-01	   2.0293784e-01	
   4.6530000e+01	   1.6718275e-01	   1.9190877e-01	
   4.6585000e+01	   1.5523147e-01	   1.7980800e-01	
   4.6640000e+01	   1.4224006e-01	   1.6664268e-01	
   4.6695000e+01	   1.2826475e-01	   1.5246592e-01	
   4.6750000e+01	   1.1340089e-01	   1.3736634e-01	
   4.6805000e+01	   9.7765424e-02	   1.2145545e-01	
   4.6860000e+01	   8.1478355e-02	   1.0485596e-01	
   4.6915000e+01	   6.4648261e-02	   8.7693717e-02	
   4.6970000e+01	   4.7365804e-02	   7.0094951e-02	
   4.7025000e+01	   2.9705830e-02	   5.2189171e-02	
   4.7080000e+01	   1.1735078e-02	   3.4115026e-02	
   4.7135000e+01	  -6.4791569e-03	   1.6025344e-02	
   4.7190000e+01	  -2.4862014e-02	  -1.9113464e-03	
   4.7245000e+01	  -4.3325211e-02	  -1.9512914e-02	
   4.7300000e+01	  -6.1761836e-02	  -3.6588734e-02	
   4.7355000e+01	  -8.0043922e-02	  -5.2948006e-02	
   4.7410000e+01	  -9.8025289e-02	  -6.8411291e-02	
   4.7465000e+01	  -1.1554934e-01	  -8.2823109e-02	
   4.7520000e+01	  -1.3245816e-01	  -9.6061656e-02	
   4.7575000e+01	  -1.4859768e-01	  -1.0804206e-01	
   4.7630000e+01	  -1.6381500e-01	  -1.1871181e-01	
   4.7685000e+01	  -1.7794916e-01	  -1.2804023e-01	
   4.7740000e+01	  -1.9082065e-01	  -1.3600639e-01	
   4.7795000e+01	  -2.0222560e-01	  -1.4259036e-01	
   4.7850000e+01	  -2.1193881e-01	  -1.4777047e-01	
   4.7905000e+01	  -2.1972577e-01	  -1.5152629e-01	
   4.7960000e+01	  -2.2536057e-01	  -1.5384508e-01	
   4.8015000e+01	  -2.2864591e-01	  -1.5472938e-01	
   4.8070000e+01	  -2.2943200e-01	  -1.5420375e-01	
   4.8125000e+01	  -2.2763147e-01	  -1.5231891e-01	
   4.8180000e+01	  -2.2322584e-01	  -1.4915174e-01	
   4.8235000e+01	  -2.1626114e-01	  -1.4480090e-01	
   4.8290000e+01	  -2.0683423e-01	  -1.3937920e-01	
   4.8345000e+01	  -1.9507415e-01	  -1.3300552e-01	
   4.8400000e+01	  -1.8112355e-01	  -1.2579847e-01	
   4.8455000e+01	  -1.6512520e-01	  -1.1787256e-01	
   4.8510000e+01	  -1.4721771e-01	  -1.0933718e-01	
   4.8565000e+01	  -1.2754060e-01	  -1.0029788e-01	
   4.8620000e+01	  -1.0624420e-01	  -9.0859865e-02	
   4.8675000e+01	  -8.3498907e-02	  -8.1131969e-02	
   4.8730000e+01	  -5.9500557e-02	  -7.1229710e-02	
   4.8785000e+01	  -3.4470506e-02	  -6.1275161e-02	
   4.8840000e+01	  -8.6501323e-03	  -5.1391761e-02	
   4.8895000e+01	   1.7709297e-02	  -4.1694379e-02	
   4.8950000e+01	   4.4358631e-02	  -3.2277944e-02	
   4.9005000e+01	   7.1062205e-02	  -2.3208753e-02	
   4.9060000e+01	   9.7607796e-02	  -1.4520647e-02	
   4.9115000e+01	   1.2381435e-01	  -6.2160947e-03	
   4.9170000e+01	   1.4953503e-01	   1.7283860e-03	
   4.9225000e+01	   1.7465389e-01	   9.3530322e-03	
   4.9280000e+01	   1.9907798e-01	   1.6703106e-02	
   4.9335000e+01	   2.2272791e-01	   2.3817097e-02	
   4.9390000e+01	   2.4552910e-01	   3.0717852e-02	
   4.9445000e+01	   2.6740629e-01	   3.7409352e-02	
   4.9500000e+01	   2.8828391e-01	   4.3880619e-02	
   4.9555000e+01	   3.0809316e-01	   5.0115690e-02	
   4.9610000e+01	   3.2678276e-01	   5.6105695e-02	
   4.9665000e+01	   3.4432906e-01	   6.1858621e-02	
   4.9720000e+01	   3.6074216e-01	   6.7404479e-02	
   4.9775000e+01	   3.7606647e-01	   7.2795652e-02	
   4.9830000e+01	   3.9037552e-01	   7.8102650e-02	
   4.9885000e+01	   4.0376176e-01	   8.3406004e-02	
   4.9940000e+01	   4.1632280e-01	   8.8786177e-02	
   4.9995000e+01	   4.2814618e-01	   9.4313593e-02	
   5.0050000e+01	   4.3929570e-01	   1.0004006e-01	
   5.0105000e+01	   4.4980322e-01	   1.0599242e-01	
   5.0160000e+01	   4.5966895e-01	   1.1216977e-01	
   5.0215000e+01	   4.6887077e-01	   1.1854603e-01	
   5.0270000e+01	   4.7738074e-01	   1.2507835e-01	
   5.0325000e+01	   4.8518437e-01	   1.3171947e-01	
   5.0380000e+01	   4.9229740e-01	   1.3842956e-01	
   5.0435000e+01	   4.9877535e-01	   1.4518417e-01	
   5.0490000e+01	   5.0471417e-01	   1.5197615e-01	
   5.0545000e+01	   5.1024213e-01	   1.5881159e-01	
   5.0600000e+01	   5.1550418e-01	   1.6570077e-01	
   5.0655000e+01	   5.2064006e-01	   1.7264633e-01	
   5.0710000e+01	   5.2575958e-01	   1.7963108e-01	
   5.0765000e+01	   5.3092007e-01	   1.8660718e-01	
   5.0820000e+01	   5.3610997e-01	   1.9348854e-01	
   5.0875000e+01	   5.4124151e-01	   2.0014914e-01	
   5.0930000e+01	   5.4615432e-01	   2.0642905e-01	
   5.0985000e+01	   5.5062967e-01	   2.1214724e-01	
   5.1040000e+01	   5.5441324e-01	   2.1711827e-01	
   5.1095000e+01	   5.5724341e-01	   2.2116969e-01	
   5.1150000e+01	   5.5888084e-01	   2.2415681e-01	
   5.1205000e+01	   5.5913470e-01	   2.2597274e-01	
   5.1260000e+01	   5.5788188e-01	   2.2655257e-01	
   5.1315000e+01	   5.5507727e-01	   2.2587192e-01	
   5.1370000e+01	   5.5075352e-01	   2.2394054e-01	
   5.1425000e+01	   5.4500913e-01	   2.2079221e-01	
   5.1480000e+01	   5.3798741e-01	   2.1647305e-01	
   5.1535000e+01	   5.2985181e-01	   2.1103139e-01	
   5.1590000e+01	   5.2076291e-01	   2.0451119e-01	
   5.1645000e+01	   5.1086096e-01	   1.9694941e-01	
   5.1700000e+01	   5.0025648e-01	   1.8837727e-01	
   5.1755000e+01	   4.8902982e-01	   1.7882473e-01	
   5.1810000e+01	   4.7723711e-01	   1.6832696e-01	
   5.1865000e+01	   4.6491844e-01	   1.5693039e-01	
   5.1920000e+01	   4.5210504e-01	   1.4469713e-01	
   5.1975000e+01	   4.3882410e-01	   1.3170686e-01	
   5.2030000e+01	   4.2509989e-01	   1.1805618e-01	
   5.2085000e+01	   4.1095057e-01	   1.0385510e-01	
   5.2140000e+01	   3.9638244e-01	   8.9221423e-02	
   5.2195000e+01	   3.8138485e-01	   7.4274670e-02	
   5.2250000e+01	   3.6592959e-01	   5.9131764e-02	
   5.2305000e+01	   3.4997633e-01	   4.3905757e-02	
   5.2360000e+01	   3.3348420e-01	   2.8707651e-02	
   5.2415000e+01	   3.1642767e-01	   1.3650583e-02	
   5.2470000e+01	   2.9881256e-01	  -1.1452121e-03	
   5.2525000e+01	   2.8068628e-01	  -1.5549356e-02	
   5.2580000e+01	   2.6213852e-01	  -2.9422702e-02	
   5.2635000e+01	   2.4329314e-01	  -4.2623261e-02	
   5.2690000e+01	   2.2429590e-01	  -5.5014428e-02	
   5.2745000e+01	   2.0530216e-01	  -6.6473548e-02	
   5.2800000e+01	   1.8646617e-01	  -7.6900197e-02	
   5.2855000e+01	   1.6793317e-01	  -8.6222856e-02	
   5.2910000e+01	   1.4983528e-01	  -9.4401644e-02	
   5.2965000e+01	   1.3229088e-01	  -1.0142609e-01	
   5.3020000e+01	   1.1540574e-01	  -1.0730914e-01	
   5.3075000e+01	   9.9275639e-02	  -1.1207910e-01	
   5.3130000e+01	   8.3991504e-02	  -1.1577056e-01	
   5.3185000e+01	   6.9647216e-02	  -1.1841582e-01	
   5.3240000e+01	   5.6346810e-02	  -1.2003864e-01	
   5.3295000e+01	   4.4206496e-02	  -1.2065225e-01	
   5.3350000e+01	   3.3349054e-02	  -1.2026217e-01	
   5.3405000e+01	   2.3891960e-02	  -1.1887280e-01	
   5.3460000e+01	   1.5932746e-02	  -1.1649595e-01	
   5.3515000e+01	   9.5353546e-03	  -1.1315961e-01	
   5.3570000e+01	   4.7203028e-03	  -1.0891455e-01	
   5.3625000e+01	   1.4602973e-03	  -1.0383610e-01	
   5.3680000e+01	  -3.1783883e-04	  -9.8019238e-02	
   5.3735000e+01	  -7.2501110e-04	  -9.1567946e-02	
   5.3790000e+01	   1.0270074e-04	  -8.4582224e-02	
   5.3845000e+01	   2.0173195e-03	  -7.7146871e-02	
   5.3900000e+01	   4.8688768e-03	  -6.9325875e-02	
   5.3955000e+01	   8.5093352e-03	  -6.1164580e-02	
   5.4010000e+01	   1.2790292e-02	  -5.2698371e-02	
   5.4065000e+01	   1.7556431e-02	  -4.3963916e-02	
   5.4120000e+01	   2.2637608e-02	  -3.5009369e-02	
   5.4175000e+01	   2.7842163e-02	  -2.5901748e-02	
   5.4230000e+01	   3.2954657e-02	  -1.6730271e-02	
   5.4285000e+01	   3.7741933e-02	  -7.6042847e-03	
   5.4340000e+01	   4.1968838e-02	   1.3544222e-03	
   5.4395000e+01	   4.5420919e-02	   1.0023443e-02	
   5.4450000e+01	   4.7929797e-02	   1.8293337e-02	
   5.4505000e+01	   4.9396035e-02	   2.6080398e-02	
   5.4560000e+01	   4.9802914e-02	   3.3336004e-02	
   5.4615000e+01	   4.9216060e-02	   4.0050366e-02	
   5.4670000e+01	   4.7769070e-02	   4.6249892e-02	
   5.4725000e+01	   4.5639627e-02	   5.1988845e-02	
   5.4780000e+01	   4.3020860e-02	   5.7336415e-02	
   5.4835000e+01	   4.0091058e-02	   6.2360687e-02	
   5.4890000e+01	   3.6984976e-02	   6.7112281e-02	
   5.4945000e+01	   3.3771305e-02	   7.1611502e-02	
   5.5000000e+01	   3.0440173e-02	   7.5841992e-02	
   5.5055000e+01	   2.6902290e-02	   7.9751832e-02	
   5.5110000e+01	   2.2999529e-02	   8.3261463e-02	
   5.5165000e+01	   1.8525660e-02	   8.6276751e-02	
   5.5220000e+01	   1.3253839e-02	   8.8704372e-02	
   5.5275000e+01	   6.9650403e-03	   9.0465885e-02	
   5.5330000e+01	  -5.2808852e-04	   9.1507833e-02	
   5.5385000e+01	  -9.3642950e-03	   9.1807227e-02	
   5.5440000e+01	  -1.9624209e-02	   9.1372830e-02	
   5.5495000e+01	  -3.1329179e-02	   9.0242289e-02	
   5.5550000e+01	  -4.4448821e-02	   8.8475149e-02	
   5.5605000e+01	  -5.8915091e-02	   8.6142850e-02	
   5.5660000e+01	  -7.4639283e-02	   8.3318111e-02	
   5.5715000e+01	  -9.1528462e-02	   8.0066279e-02	
   5.5770000e+01	  -1.0949744e-01	   7.6440778e-02	
   5.5825000e+01	  -1.2847270e-01	   7.2483921e-02	
   5.5880000e+01	  -1.4838765e-01	   6.8232599e-02	
   5.5935000e+01	  -1.6917273e-01	   6.3726207e-02	
   5.5990000e+01	  -1.9074457e-01	   5.9013407e-02	
   5.6045000e+01	  -2.1299684e-01	   5.4155636e-02	
   5.6100000e+01	  -2.3579508e-01	   4.9227123e-02	
   5.6155000e+01	  -2.5897914e-01	   4.4311535e-02	
   5.6210000e+01	  -2.8237577e-01	   3.9495358e-02	
   5.6265000e+01	  -3.0581773e-01	   3.4858803e-02	
   5.6320000e+01	  -3.2916316e-01	   3.0465697e-02	
   5.6375000e+01	  -3.5231013e-01	   2.6353409e-02	
   5.6430000e+01	  -3.7520409e-01	   2.2523831e-02	
   5.6485000e+01	  -3.9783666e-01	   1.8937757e-02	
   5.6540000e+01	  -4.2023526e-01	   1.5515748e-02	
   5.6595000e+01	  -4.4244502e-01	   1.2147176e-02	
   5.6650000e+01	  -4.6450768e-01	   8.7059775e-03	
   5.6705000e+01	  -4.8644317e-01	   5.0690752e-03	
   5.6760000e+01	  -5.0823716e-01	   1.1328225e-03	
   5.6815000e+01	  -5.2983560e-01	  -3.1759627e-03	
   5.6870000e+01	  -5.5114604e-01	  -7.8957389e-03	
   5.6925000e+01	  -5.7204545e-01	  -1.3031847e-02	
   5.6980000e+01	  -5.9239436e-01	  -1.8561781e-02	
   5.7035000e+01	  -6.1205621e-01	  -2.4442304e-02	
   5.7090000e+01	  -6.3091829e-01	  -3.0617641e-02	
   5.7145000e+01	  -6.4890895e-01	  -3.7027820e-02	
   5.7200000e+01	  -6.6600571e-01	  -4.3615058e-02	
   5.7255000e+01	  -6.8223234e-01	  -5.0325866e-02	
   5.7310000e+01	  -6.9764725e-01	  -5.7108777e-02	
   5.7365000e+01	  -7.1232664e-01	  -6.3910093e-02	
   5.7420000e+01	  -7.2634604e-01	  -7.0670260e-02	
   5.7475000e+01	  -7.3976391e-01	  -7.7321946e-02	
   5.7530000e+01	  -7.5261084e-01	  -8.3789934e-02	
   5.7585000e+01	  -7.6488531e-01	  -8.9992964e-02	
   5.7640000e+01	  -7.7655471e-01	  -9.5847379e-02	
   5.7695000e+01	  -7.8756003e-01	  -1.0127185e-01	
   5.7750000e+01	  -7.9782321e-01	  -1.0619230e-01	
   5.7805000e+01	  -8.0725575e-01	  -1.1054584e-01	
   5.7860000e+01	  -8.1576520e-01	  -1.1428199e-01	
   5.7915000e+01	  -8.2325658e-01	  -1.1735948e-01	
   5.7970000e+01	  -8.2962871e-01	  -1.1973961e-01	
   5.8025000e+01	  -8.3476971e-01	  -1.2137898e-01	
   5.8080000e+01	  -8.3855512e-01	  -1.2222467e-01	
   5.8135000e+01	  -8.4084910e-01	  -1.2221290e-01	
   5.8190000e+01	  -8.4150650e-01	  -1.2127143e-01	
   5.8245000e+01	  -8.4037479e-01	  -1.1932558e-01	
   5.8300000e+01	  -8.3729784e-01	  -1.1630701e-01	
   5.8355000e+01	  -8.3212418e-01	  -1.1216343e-01	
   5.8410000e+01	  -8.2472030e-01	  -1.0686716e-01	
   5.8465000e+01	  -8.1498542e-01	  -1.0042017e-01	
   5.8520000e+01	  -8.0286104e-01	  -9.2853578e-02	
   5.8575000e+01	  -7.8833126e-01	  -8.4221049e-02	
   5.8630000e+01	  -7.7141639e-01	  -7.4589379e-02	
   5.8685000e+01	  -7.5216572e-01	  -6.4029825e-02	
   5.8740000e+01	  -7.3065231e-01	  -5.2611847e-02	
   5.8795000e+01	  -7.0696987e-01	  -4.0399089e-02	
   5.8850000e+01	  -6.8123182e-01	  -2.7448070e-02	
   5.8905000e+01	  -6.5357277e-01	  -1.3810712e-02	
   5.8960000e+01	  -6.2415085e-01	   4.5978186e-04	
   5.9015000e+01	  -5.9314932e-01	   1.5302155e-02	
   5.9070000e+01	  -5.6077561e-01	   3.0641757e-02	
   5.9125000e+01	  -5.2725704e-01	   4.6387841e-02	
   5.9180000e+01	  -4.9283161e-01	   6.2434757e-02	
   5.9235000e+01	  -4.5773389e-01	   7.8668378e-02	
   5.9290000e+01	  -4.2217927e-01	   9.4976760e-02	
   5.9345000e+01	  -3.8635174e-01	   1.1126111e-01	
   5.9400000e+01	  -3.5039794e-01	   1.2744307e-01	
   5.9455000e+01	  -3.1442723e-01	   1.4346682e-01	
   5.9510000e+01	  -2.7851712e-01	   1.5929658e-01	
   5.9565000e+01	  -2.4272359e-01	   1.7491062e-01	
   5.9620000e+01	  -2.0709445e-01	   1.9029366e-01	
   5.9675000e+01	  -1.7168345e-01	   2.0542934e-01	
   5.9730000e+01	  -1.3656298e-01	   2.2029402e-01	
   5.9785000e+01	  -1.0183337e-01	   2.3485234e-01	
   5.9840000e+01	  -6.7626550e-02	   2.4905533e-01	
   5.9895000e+01	  -3.4101287e-02	   2.6284289e-01	
   5.9950000e+01	  -1.4307879e-03	   2.7615134e-01	
   6.0005000e+01	   3.0211809e-02	   2.8892358e-01	
   6.0060000e+01	   6.0664131e-02	   3.0111811e-01	
   6.0115000e+01	   8.9780642e-02	   3.1271435e-01	
   6.0170000e+01	   1.1743623e-01	   3.2371388e-01	
   6.0225000e+01	   1.4352724e-01	   3.3413742e-01	
   6.0280000e+01	   1.6796735e-01	   3.4401756e-01	
   6.0335000e+01	   1.9067719e-01	   3.5338820e-01	
   6.0390000e+01	   2.1157164e-01	   3.6227308e-01	
   6.0445000e+01	   2.3055040e-01	   3.7067580e-01	
   6.0500000e+01	   2.4749528e-01	   3.7857339e-01	
   6.0555000e+01	   2.6227451e-01	   3.8591558e-01	
   6.0610000e+01	   2.7475481e-01	   3.9263157e-01	
   6.0665000e+01	   2.8482107e-01	   3.9864359e-01	
   6.0720000e+01	   2.9239999e-01	   4.0388382e-01	
   6.0775000e+01	   2.9748102e-01	   4.0830959e-01	
   6.0830000e+01	   3.0012921e-01	   4.1191344e-01	
   6.0885000e+01	   3.0048781e-01	   4.1472736e-01	
   6.0940000e+01	   2.9877105e-01	   4.1682204e-01	
   6.0995000e+01	   2.9525026e-01	   4.1830168e-01	
   6.1050000e+01	   2.9023764e-01	   4.1929479e-01	
   6.1105000e+01	   2.8406892e-01	   4.1994156e-01	
   6.1160000e+01	   2.7708297e-01	   4.2037953e-01	
   6.1215000e+01	   2.6959822e-01	   4.2072930e-01	
   6.1270000e+01	   2.6189175e-01	   4.2108329e-01	
   6.1325000e+01	   2.5418893e-01	   4.2150033e-01	
   6.1380000e+01	   2.4666654e-01	   4.2200781e-01	
   6.1435000e+01	   2.3946558e-01	   4.2260959e-01	
   6.1490000e+01	   2.3270698e-01	   4.2329591e-01	
   6.1545000e+01	   2.2650495e-01	   4.2405086e-01	
   6.1600000e+01	   2.2097459e-01	   4.2485601e-01	
   6.1655000e+01	   2.1623372e-01	   4.2569057e-01	
   6.1710000e+01	   2.1240073e-01	   4.2652995e-01	
   6.1765000e+01	   2.0959019e-01	   4.2734298e-01	
   6.1820000e+01	   2.0790624e-01	   4.2808810e-01	
   6.1875000e+01	   2.0743394e-01	   4.2870995e-01	
   6.1930000e+01	   2.0823149e-01	   4.2913869e-01	
   6.1985000e+01	   2.1032794e-01	   4.2929473e-01	
   6.2040000e+01	   2.1372828e-01	   4.2909894e-01	
   6.2095000e+01	   2.1842317e-01	   4.2848599e-01	
   6.2150000e+01	   2.2439888e-01	   4.2741704e-01	
   6.2205000e+01	   2.3164436e-01	   4.2588852e-01	
   6.2260000e+01	   2.4015345e-01	   4.2393487e-01	
   6.2315000e+01	   2.4992118e-01	   4.2162523e-01	
   6.2370000e+01	   2.6093583e-01	   4.1905578e-01	
   6.2425000e+01	   2.7316976e-01	   4.1633975e-01	
   6.2480000e+01	   2.8657029e-01	   4.1359575e-01	
   6.2535000e+01	   3.0105062e-01	   4.1093580e-01	
   6.2590000e+01	   3.1648259e-01	   4.0845576e-01	
   6.2645000e+01	   3.3269561e-01	   4.0623070e-01	
   6.2700000e+01	   3.4948497e-01	   4.0431671e-01	
   6.2755000e+01	   3.6662755e-01	   4.0275733e-01	
   6.2810000e+01	   3.8389969e-01	   4.0159153e-01	
   6.2865000e+01	   4.0109264e-01	   4.0086070e-01	
   6.2920000e+01	   4.1802367e-01	   4.0061277e-01	
   6.2975000e+01	   4.3454312e-01	   4.0090280e-01	
   6.3030000e+01	   4.5053775e-01	   4.0178941e-01	
   6.3085000e+01	   4.6592912e-01	   4.0332719e-01	
   6.3140000e+01	   4.8066566e-01	   4.0555616e-01	
   6.3195000e+01	   4.9470959e-01	   4.0848971e-01	
   6.3250000e+01	   5.0802310e-01	   4.1210339e-01	
   6.3305000e+01	   5.2055794e-01	   4.1632801e-01	
   6.3360000e+01	   5.3225074e-01	   4.2104976e-01	
   6.3415000e+01	   5.4302437e-01	   4.2611809e-01	
   6.3470000e+01	   5.5279475e-01	   4.3135957e-01	
   6.3525000e+01	   5.6148146e-01	   4.3659460e-01	
   6.3580000e+01	   5.6901782e-01	   4.4165271e-01	
   6.3635000e+01	   5.7535653e-01	   4.4638251e-01	
   6.3690000e+01	   5.8047089e-01	   4.5065473e-01	
   6.3745000e+01	   5.8435308e-01	   4.5435980e-01	
   6.3800000e+01	   5.8700987e-01	   4.5740199e-01	
   6.3855000e+01	   5.8845413e-01	   4.5969186e-01	
   6.3910000e+01	   5.8869377e-01	   4.6113869e-01	
   6.3965000e+01	   5.8772290e-01	   4.6164531e-01	
   6.4020000e+01	   5.8551991e-01	   4.6110723e-01	
   6.4075000e+01	   5.8205435e-01	   4.5941652e-01	
   6.4130000e+01	   5.7730167e-01	   4.5647021e-01	
   6.4185000e+01	   5.7126192e-01	   4.5218211e-01	
   6.4240000e+01	   5.6397718e-01	   4.4649604e-01	
   6.4295000e+01	   5.5554269e-01	   4.3939779e-01	
   6.4350000e+01	   5.4610944e-01	   4.3092303e-01	
   6.4405000e+01	   5.3587835e-01	   4.2115967e-01	
   6.4460000e+01	   5.2508683e-01	   4.1024355e-01	
   6.4515000e+01	   5.1398850e-01	   3.9834746e-01	
   6.4570000e+01	   5.0282841e-01	   3.8566478e-01	
   6.4625000e+01	   4.9181730e-01	   3.7239106e-01	
   6.4680000e+01	   4.8110898e-01	   3.5870716e-01	
   6.4735000e+01	   4.7078476e-01	   3.4476708e-01	
   6.4790000e+01	   4.6084861e-01	   3.3069162e-01	
   6.4845000e+01	   4.5123560e-01	   3.1656829e-01	
   6.4900000e+01	   4.4183260e-01	   3.0245631e-01	
   6.4955000e+01	   4.3250421e-01	   2.8839450e-01	
   6.5010000e+01	   4.2311623e-01	   2.7440990e-01	
   6.5065000e+01	   4.1355245e-01	   2.6052619e-01	
   6.5120000e+01	   4.0372567e-01	   2.4677059e-01	
   6.5175000e+01	   3.9358328e-01	   2.3317773e-01	
   6.5230000e+01	   3.8310602e-01	   2.1978885e-01	
   6.5285000e+01	   3.7230048e-01	   2.0664735e-01	
   6.5340000e+01	   3.6118921e-01	   1.9379374e-01	
   6.5395000e+01	   3.4980438e-01	   1.8126206e-01	
   6.5450000e+01	   3.3818934e-01	   1.6907922e-01	
   6.5505000e+01	   3.2640828e-01	   1.5726753e-01	
   6.5560000e+01	   3.1455947e-01	   1.4585034e-01	
   6.5615000e+01	   3.0278481e-01	   1.3485847e-01	
   6.5670000e+01	   2.9127020e-01	   1.2433411e-01	
   6.5725000e+01	   2.8023620e-01	   1.1433077e-01	
   6.5780000e+01	   2.6992305e-01	   1.0490961e-01	
   6.5835000e+01	   2.6057355e-01	   9.6133732e-02	
   6.5890000e+01	   2.5241480e-01	   8.8060662e-02	
   6.5945000e+01	   2.4564006e-01	   8.0734119e-02	
   6.6000000e+01	   2.4039478e-01	   7.4176841e-02	
   6.6055000e+01	   2.3677095e-01	   6.8387460e-02	
   6.6110000e+01	   2.3481181e-01	   6.3343437e-02	
   6.6165000e+01	   2.3452605e-01	   5.9010063e-02	
   6.6220000e+01	   2.3590831e-01	   5.5353101e-02	
   6.6275000e+01	   2.3895980e-01	   5.2351238e-02	
   6.6330000e+01	   2.4370256e-01	   5.0004998e-02	
   6.6385000e+01	   2.5018409e-01	   4.8340626e-02	
   6.6440000e+01	   2.5847308e-01	   4.7408823e-02	
   6.6495000e+01	   2.6864881e-01	   4.7278856e-02	
   6.6550000e+01	   2.8078455e-01	   4.8029276e-02	
   6.6605000e+01	   2.9492565e-01	   4.9737147e-02	
   6.6660000e+01	   3.1106729e-01	   5.2468245e-02	
   6.6715000e+01	   3.2913995e-01	   5.6270866e-02	
   6.6770000e+01	   3.4900796e-01	   6.1174601e-02	
   6.6825000e+01	   3.7047959e-01	   6.7192771e-02	
   6.6880000e+01	   3.9332423e-01	   7.4325863e-02	
   6.6935000e+01	   4.1729234e-01	   8.2564069e-02	
   6.6990000e+01	   4.4213470e-01	   9.1888011e-02	
   6.7045000e+01	   4.6761685e-01	   1.0226714e-01	
   6.7100000e+01	   4.9352599e-01	   1.1365604e-01	
   6.7155000e+01	   5.1967057e-01	   1.2598943e-01	
   6.7210000e+01	   5.4587614e-01	   1.3917687e-01	
   6.7265000e+01	   5.7198255e-01	   1.5309838e-01	
   6.7320000e+01	   5.9784718e-01	   1.6760347e-01	
   6.7375000e+01	   6.2335470e-01	   1.8251499e-01	
   6.7430000e+01	   6.4842976e-01	   1.9763760e-01	
   6.7485000e+01	   6.7304661e-01	   2.1276854e-01	
   6.7540000e+01	   6.9723120e-01	   2.2770806e-01	
   6.7595000e+01	   7.2105540e-01	   2.4226830e-01	
   6.7650000e+01	   7.4462499e-01	   2.5627973e-01	
   6.7705000e+01	   7.6806301e-01	   2.6959499e-01	
   6.7760000e+01	   7.9148861e-01	   2.8208948e-01	
   6.7815000e+01	   8.1499389e-01	   2.9365850e-01	
   6.7870000e+01	   8.3862323e-01	   3.0421227e-01	
   6.7925000e+01	   8.6235965e-01	   3.1367119e-01	
   6.7980000e+01	   8.8611999e-01	   3.2196424e-01	
   6.8035000e+01	   9.0975969e-01	   3.2903226e-01	
   6.8090000e+01	   9.3308801e-01	   3.3483568e-01	
   6.8145000e+01	   9.5589216e-01	   3.3936443e-01	
   6.8200000e+01	   9.7796567e-01	   3.4264691e-01	
   6.8255000e+01	   9.9913430e-01	   3.4475573e-01	
   6.8310000e+01	   1.0192736e+00	   3.4580854e-01	
   6.8365000e+01	   1.0383153e+00	   3.4596280e-01	
   6.8420000e+01	   1.0562439e+00	   3.4540507e-01	
   6.8475000e+01	   1.0730850e+00	   3.4433701e-01	
   6.8530000e+01	   1.0888913e+00	   3.4296117e-01	
   6.8585000e+01	   1.1037249e+00	   3.4146809e-01	
   6.8640000e+01	   1.1176419e+00	   3.4002579e-01	
   6.8695000e+01	   1.1306804e+00	   3.3877372e-01	
   6.8750000e+01	   1.1428591e+00	   3.3782293e-01	
   6.8805000e+01	   1.1541863e+00	   3.3726126e-01	
   6.8860000e+01	   1.1646725e+00	   3.3715949e-01	
   6.8915000e+01	   1.1743437e+00	   3.3757471e-01	
   6.8970000e+01	   1.1832489e+00	   3.3854997e-01	
   6.9025000e+01	   1.1914634e+00	   3.4011102e-01	
   6.9080000e+01	   1.1990847e+00	   3.4226182e-01	
   6.9135000e+01	   1.2062237e+00	   3.4498124e-01	
   6.9190000e+01	   1.2129922e+00	   3.4822275e-01	
   6.9245000e+01	   1.2194924e+00	   3.5191730e-01	
   6.9300000e+01	   1.2258125e+00	   3.5597851e-01	
   6.9355000e+01	   1.2320289e+00	   3.6031050e-01	
   6.9410000e+01	   1.2382163e+00	   3.6481829e-01	
   6.9465000e+01	   1.2444587e+00	   3.6941823e-01	
   6.9520000e+01	   1.2508566e+00	   3.7404547e-01	
   6.9575000e+01	   1.2575254e+00	   3.7865700e-01	
   6.9630000e+01	   1.2645848e+00	   3.8323156e-01	
   6.9685000e+01	   1.2721436e+00	   3.8776672e-01	
   6.9740000e+01	   1.2802834e+00	   3.9227302e-01	
   6.9795000e+01	   1.2890445e+00	   3.9676583e-01	
   6.9850000e+01	   1.2984170e+00	   4.0125714e-01	
   6.9905000e+01	   1.3083382e+00	   4.0574926e-01	
   6.9960000e+01	   1.3186979e+00	   4.1023166e-01	
   7.0015000e+01	   1.3293519e+00	   4.1468153e-01	
   7.0070000e+01	   1.3401425e+00	   4.1906806e-01	
   7.0125000e+01	   1.3509211e+00	   4.2335895e-01	
   7.0180000e+01	   1.3615667e+00	   4.2752639e-01	
   7.0235000e+01	   1.3719948e+00	   4.3155002e-01	
   7.0290000e+01	   1.3821581e+00	   4.3541630e-01	
   7.0345000e+01	   1.3920382e+00	   4.3911539e-01	
   7.0400000e+01	   1.4016340e+00	   4.4263668e-01	
   7.0455000e+01	   1.4109450e+00	   4.4596417e-01	
   7.0510000e+01	   1.4199556e+00	   4.4907362e-01	
   7.0565000e+01	   1.4286227e+00	   4.5193224e-01	
   7.0620000e+01	   1.4368695e+00	   4.5450076e-01	
   7.0675000e+01	   1.4445882e+00	   4.5673781e-01	
   7.0730000e+01	   1.4516525e+00	   4.5860712e-01	
   7.0785000e+01	   1.4579374e+00	   4.6008652e-01	
   7.0840000e+01	   1.4633381e+00	   4.6117568e-01	
   7.0895000e+01	   1.4677806e+00	   4.6189964e-01	
   7.0950000e+01	   1.4712233e+00	   4.6230725e-01	
   7.1005000e+01	   1.4736492e+00	   4.6246518e-01	
   7.1060000e+01	   1.4750544e+00	   4.6244820e-01	
   7.1115000e+01	   1.4754344e+00	   4.6232718e-01	
   7.1170000e+01	   1.4747718e+00	   4.6215653e-01	
   7.1225000e+01	   1.4730277e+00	   4.6196363e-01	
   7.1280000e+01	   1.4701390e+00	   4.6174230e-01	
   7.1335000e+01	   1.4660221e+00	   4.6145174e-01	
   7.1390000e+01	   1.4605828e+00	   4.6102183e-01	
   7.1445000e+01	   1.4537318e+00	   4.6036445e-01	
   7.1500000e+01	   1.4454001e+00	   4.5938831e-01	
   7.1555000e+01	   1.4355524e+00	   4.5801377e-01	
   7.1610000e+01	   1.4241950e+00	   4.5618437e-01	
   7.1665000e+01	   1.4113748e+00	   4.5387307e-01	
   7.1720000e+01	   1.3971736e+00	   4.5108291e-01	
   7.1775000e+01	   1.3816945e+00	   4.4784211e-01	
   7.1830000e+01	   1.3650464e+00	   4.4419456e-01	
   7.1885000e+01	   1.3473263e+00	   4.4018754e-01	
   7.1940000e+01	   1.3286034e+00	   4.3585902e-01	
   7.1995000e+01	   1.3089047e+00	   4.3122649e-01	
   7.2050000e+01	   1.2882085e+00	   4.2628013e-01	
   7.2105000e+01	   1.2664475e+00	   4.2098307e-01	
   7.2160000e+01	   1.2435248e+00	   4.1527977e-01	
   7.2215000e+01	   1.2193398e+00	   4.0910993e-01	
   7.2270000e+01	   1.1938162e+00	   4.0242326e-01	
   7.2325000e+01	   1.1669265e+00	   3.9519083e-01	
   7.2380000e+01	   1.1387076e+00	   3.8741147e-01	
   7.2435000e+01	   1.1092656e+00	   3.7911303e-01	
   7.2490000e+01	   1.0787727e+00	   3.7034946e-01	
   7.2545000e+01	   1.0474555e+00	   3.6119510e-01	
   7.2600000e+01	   1.0155794e+00	   3.5173779e-01	
   7.2655000e+01	   9.8343139e-01	   3.4207120e-01	
   7.2710000e+01	   9.5130433e-01	   3.3228694e-01	
   7.2765000e+01	   9.1948214e-01	   3.2246816e-01	
   7.2820000e+01	   8.8823043e-01	   3.1268666e-01	
   7.2875000e+01	   8.5779131e-01	   3.0300409e-01	
   7.2930000e+01	   8.2837976e-01	   2.9347548e-01	
   7.2985000e+01	   8.0017930e-01	   2.8415344e-01	
   7.3040000e+01	   7.7333778e-01	   2.7509191e-01	
   7.3095000e+01	   7.4796445e-01	   2.6634778e-01	
   7.3150000e+01	   7.2412704e-01	   2.5797923e-01	
   7.3205000e+01	   7.0184812e-01	   2.5004060e-01	
   7.3260000e+01	   6.8110184e-01	   2.4257521e-01	
   7.3315000e+01	   6.6181239e-01	   2.3560831e-01	
   7.3370000e+01	   6.4385455e-01	   2.2914208e-01	
   7.3425000e+01	   6.2705706e-01	   2.2315478e-01	
   7.3480000e+01	   6.1121106e-01	   2.1760526e-01	
   7.3535000e+01	   5.9608441e-01	   2.1244232e-01	
   7.3590000e+01	   5.8143985e-01	   2.0761573e-01	
   7.3645000e+01	   5.6705246e-01	   2.0308506e-01	
   7.3700000e+01	   5.5272237e-01	   1.9882415e-01	
   7.3755000e+01	   5.3828102e-01	   1.9482068e-01	
   7.3810000e+01	   5.2359109e-01	   1.9107118e-01	
   7.3865000e+01	   5.0854192e-01	   1.8757249e-01	
   7.3920000e+01	   4.9304288e-01	   1.8431141e-01	
   7.3975000e+01	   4.7701642e-01	   1.8125491e-01	
   7.4030000e+01	   4.6039196e-01	   1.7834365e-01	
   7.4085000e+01	   4.4310185e-01	   1.7549133e-01	
   7.4140000e+01	   4.2508150e-01	   1.7259153e-01	
   7.4195000e+01	   4.0627547e-01	   1.6953118e-01	
   7.4250000e+01	   3.8664875e-01	   1.6620685e-01	
   7.4305000e+01	   3.6619958e-01	   1.6253938e-01	
   7.4360000e+01	   3.4496984e-01	   1.5848411e-01	
   7.4415000e+01	   3.2305008e-01	   1.5403515e-01	
   7.4470000e+01	   3.0057629e-01	   1.4922258e-01	
   7.4525000e+01	   2.7771714e-01	   1.4410305e-01	
   7.4580000e+01	   2.5465306e-01	   1.3874658e-01	
   7.4635000e+01	   2.3155118e-01	   1.3322288e-01	
   7.4690000e+01	   2.0854167e-01	   1.2758924e-01	
   7.4745000e+01	   1.8570099e-01	   1.2188161e-01	
   7.4800000e+01	   1.6304510e-01	   1.1610932e-01	
   7.4855000e+01	   1.4053437e-01	   1.1025478e-01	
   7.4910000e+01	   1.1809031e-01	   1.0427852e-01	
   7.4965000e+01	   9.5621153e-02	   9.8129806e-02	
   7.5020000e+01	   7.3050279e-02	   9.1760984e-02	
   7.5075000e+01	   5.0339582e-02	   8.5142352e-02	
   7.5130000e+01	   2.7501603e-02	   7.8273372e-02	
   7.5185000e+01	   4.5965014e-03	   7.1186795e-02	
   7.5240000e+01	  -1.8285443e-02	   6.3945077e-02	
   7.5295000e+01	  -4.1049411e-02	   5.6631029e-02	
   7.5350000e+01	  -6.3621663e-02	   4.9335114e-02	
   7.5405000e+01	  -8.5970531e-02	   4.2141330e-02	
   7.5460000e+01	  -1.0812126e-01	   3.5113626e-02	
   7.5515000e+01	  -1.3016305e-01	   2.8285215e-02	
   7.5570000e+01	  -1.5224585e-01	   2.1653020e-02	
   7.5625000e+01	  -1.7456517e-01	   1.5178862e-02	
   7.5680000e+01	  -1.9733643e-01	   8.7974861e-03	
   7.5735000e+01	  -2.2076407e-01	   2.4294194e-03	
   7.5790000e+01	  -2.4501420e-01	  -4.0050974e-03	
   7.5845000e+01	  -2.7019873e-01	  -1.0574710e-02	
   7.5900000e+01	  -2.9637314e-01	  -1.7329679e-02	
   7.5955000e+01	  -3.2354362e-01	  -2.4298509e-02	
   7.6010000e+01	  -3.5167800e-01	  -3.1488083e-02	
   7.6065000e+01	  -3.8071792e-01	  -3.8887230e-02	
   7.6120000e+01	  -4.1059145e-01	  -4.6472781e-02	
   7.6175000e+01	  -4.4122323e-01	  -5.4215909e-02	
   7.6230000e+01	  -4.7253872e-01	  -6.2086214e-02	
   7.6285000e+01	  -5.0446051e-01	  -7.0051954e-02	
   7.6340000e+01	  -5.3689787e-01	  -7.8076384e-02	
   7.6395000e+01	  -5.6973287e-01	  -8.6111885e-02	
   7.6450000e+01	  -6.0280824e-01	  -9.4094777e-02	
   7.6505000e+01	  -6.3592149e-01	  -1.0194359e-01	
   7.6560000e+01	  -6.6882701e-01	  -1.0956193e-01	
   7.6615000e+01	  -7.0124613e-01	  -1.1684517e-01	
   7.6670000e+01	  -7.3288435e-01	  -1.2368956e-01	
   7.6725000e+01	  -7.6345350e-01	  -1.3000170e-01	
   7.6780000e+01	  -7.9269402e-01	  -1.3570667e-01	
   7.6835000e+01	  -8.2039206e-01	  -1.4075333e-01	
   7.6890000e+01	  -8.4638749e-01	  -1.4511546e-01	
   7.6945000e+01	  -8.7057250e-01	  -1.4878788e-01	
   7.7000000e+01	  -8.9288390e-01	  -1.5177814e-01	
   7.7055000e+01	  -9.1329305e-01	  -1.5409684e-01	
   7.7110000e+01	  -9.3179621e-01	  -1.5575019e-01	
   7.7165000e+01	  -9.4840700e-01	  -1.5673644e-01	
   7.7220000e+01	  -9.6315206e-01	  -1.5704688e-01	
   7.7275000e+01	  -9.7607026e-01	  -1.5667083e-01	
   7.7330000e+01	  -9.8721566e-01	  -1.5560336e-01	
   7.7385000e+01	  -9.9666512e-01	  -1.5385472e-01	
   7.7440000e+01	  -1.0045287e+00	  -1.5145939e-01	
   7.7495000e+01	  -1.0109566e+00	  -1.4848170e-01	
   7.7550000e+01	  -1.0161360e+00	  -1.4501394e-01	
   7.7605000e+01	  -1.0202752e+00	  -1.4116597e-01	
   7.7660000e+01	  -1.0235808e+00	  -1.3704848e-01	
   7.7715000e+01	  -1.0262342e+00	  -1.3275518e-01	
   7.7770000e+01	  -1.0283737e+00	  -1.2834899e-01	
   7.7825000e+01	  -1.0300844e+00	  -1.2385630e-01	
   7.7880000e+01	  -1.0313982e+00	  -1.1927025e-01	
   7.7935000e+01	  -1.0323028e+00	  -1.1456151e-01	
   7.7990000e+01	  -1.0327585e+00	  -1.0969254e-01	
   7.8045000e+01	  -1.0327176e+00	  -1.0463186e-01	
   7.8100000e+01	  -1.0321465e+00	  -9.9365793e-02	
   7.8155000e+01	  -1.0310447e+00	  -9.3905939e-02	
   7.8210000e+01	  -1.0294559e+00	  -8.8291040e-02	
   7.8265000e+01	  -1.0274656e+00	  -8.2582794e-02	
   7.8320000e+01	  -1.0251898e+00	  -7.6856771e-02	
   7.8375000e+01	  -1.0227573e+00	  -7.1191325e-02	
   7.8430000e+01	  -1.0202928e+00	  -6.5658115e-02	
   7.8485000e+01	  -1.0179013e+00	  -6.0317014e-02	
   7.8540000e+01	  -1.0156583e+00	  -5.5216501e-02	
   7.8595000e+01	  -1.0136050e+00	  -5.0398795e-02	
   7.8650000e+01	  -1.0117523e+00	  -4.5907512e-02	
   7.8705000e+01	  -1.0100913e+00	  -4.1795548e-02	
   7.8760000e+01	  -1.0086080e+00	  -3.8131981e-02	
   7.8815000e+01	  -1.0072975e+00	  -3.5007011e-02	
   7.8870000e+01	  -1.0061757e+00	  -3.2533397e-02	
   7.8925000e+01	  -1.0052841e+00	  -3.0842871e-02	
   7.8980000e+01	  -1.0046884e+00	  -3.0077197e-02	
   7.9035000e+01	  -1.0044693e+00	  -3.0375122e-02	
   7.9090000e+01	  -1.0047083e+00	  -3.1857750e-02	
   7.9145000e+01	  -1.0054716e+00	  -3.4615210e-02	
   7.9200000e+01	  -1.0067995e+00	  -3.8696988e-02	
   7.9255000e+01	  -1.0087005e+00	  -4.4107401e-02	
   7.9310000e+01	  -1.0111525e+00	  -5.0806534e-02	
   7.9365000e+01	  -1.0141080e+00	  -5.8715767e-02	
   7.9420000e+01	  -1.0175026e+00	  -6.7726526e-02	
   7.9475000e+01	  -1.0212663e+00	  -7.7710907e-02	
   7.9530000e+01	  -1.0253361e+00	  -8.8532311e-02	
   7.9585000e+01	  -1.0296652e+00	  -1.0005352e-01	
   7.9640000e+01	  -1.0342264e+00	  -1.1214008e-01	
   7.9695000e+01	  -1.0390081e+00	  -1.2465865e-01	
   7.9750000e+01	  -1.0440050e+00	  -1.3747205e-01	
   7.9805000e+01	  -1.0492052e+00	  -1.5043370e-01	
   7.9860000e+01	  -1.0545781e+00	  -1.6338392e-01	
   7.9915000e+01	  -1.0600647e+00	  -1.7614934e-01	
   7.9970000e+01	  -1.0655727e+00	  -1.8854593e-01	
   8.0025000e+01	  -1.0709790e+00	  -2.0038533e-01	
   8.0080000e+01	  -1.0761386e+00	  -2.1148445e-01	
   8.0135000e+01	  -1.0808989e+00	  -2.2167706e-01	
   8.0190000e+01	  -1.0851132e+00	  -2.3082433e-01	
   8.0245000e+01	  -1.0886490e+00	  -2.3882114e-01	
   8.0300000e+01	  -1.0913876e+00	  -2.4559664e-01	
   8.0355000e+01	  -1.0932185e+00	  -2.5111001e-01	
   8.0410000e+01	  -1.0940324e+00	  -2.5534335e-01	
   8.0465000e+01	  -1.0937163e+00	  -2.5829411e-01	
   8.0520000e+01	  -1.0921553e+00	  -2.5996930e-01	
   8.0575000e+01	  -1.0892404e+00	  -2.6038311e-01	
   8.0630000e+01	  -1.0848813e+00	  -2.5955831e-01	
   8.0685000e+01	  -1.0790206e+00	  -2.5753076e-01	
   8.0740000e+01	  -1.0716462e+00	  -2.5435574e-01	
   8.0795000e+01	  -1.0628000e+00	  -2.5011432e-01	
   8.0850000e+01	  -1.0525802e+00	  -2.4491704e-01	
   8.0905000e+01	  -1.0411352e+00	  -2.3890222e-01	
   8.0960000e+01	  -1.0286493e+00	  -2.3222648e-01	
   8.1015000e+01	  -1.0153236e+00	  -2.2504905e-01	
   8.1070000e+01	  -1.0013568e+00	  -2.1751512e-01	
   8.1125000e+01	  -9.8692782e-01	  -2.0974373e-01	
   8.1180000e+01	  -9.7218270e-01	  -2.0182271e-01	
   8.1235000e+01	  -9.5722708e-01	  -1.9381106e-01	
   8.1290000e+01	  -9.4212646e-01	  -1.8574740e-01	
   8.1345000e+01	  -9.2691258e-01	  -1.7766235e-01	
   8.1400000e+01	  -9.1159282e-01	  -1.6959107e-01	
   8.1455000e+01	  -8.9616097e-01	  -1.6158326e-01	
   8.1510000e+01	  -8.8060764e-01	  -1.5370850e-01	
   8.1565000e+01	  -8.6492735e-01	  -1.4605492e-01	
   8.1620000e+01	  -8.4911908e-01	  -1.3872061e-01	
   8.1675000e+01	  -8.3318130e-01	  -1.3180049e-01	
   8.1730000e+01	  -8.1710468e-01	  -1.2537274e-01	
   8.1785000e+01	  -8.0086628e-01	  -1.1948825e-01	
   8.1840000e+01	  -7.8442813e-01	  -1.1416466e-01	
   8.1895000e+01	  -7.6774204e-01	  -1.0938670e-01	
   8.1950000e+01	  -7.5076177e-01	  -1.0511292e-01	
   8.2005000e+01	  -7.3346049e-01	  -1.0128771e-01	
   8.2060000e+01	  -7.1584824e-01	  -9.7855503e-02	
   8.2115000e+01	  -6.9798398e-01	  -9.4773558e-02	
   8.2170000e+01	  -6.7998041e-01	  -9.2021060e-02	
   8.2225000e+01	  -6.6200315e-01	  -8.9602859e-02	
   8.2280000e+01	  -6.4426417e-01	  -8.7547173e-02	
   8.2335000e+01	  -6.2700835e-01	  -8.5897749e-02	
   8.2390000e+01	  -6.1049403e-01	  -8.4703178e-02	
   8.2445000e+01	  -5.9497221e-01	  -8.4006868e-02	
   8.2500000e+01	  -5.8066803e-01	  -8.3839575e-02	
   8.2555000e+01	  -5.6776617e-01	  -8.4214602e-02	
   8.2610000e+01	  -5.5640142e-01	  -8.5125760e-02	
   8.2665000e+01	  -5.4665647e-01	  -8.6548995e-02	
   8.2720000e+01	  -5.3856687e-01	  -8.8448170e-02	
   8.2775000e+01	  -5.3213045e-01	  -9.0783808e-02	
   8.2830000e+01	  -5.2731776e-01	  -9.3522353e-02	
   8.2885000e+01	  -5.2408182e-01	  -9.6643525e-02	
   8.2940000e+01	  -5.2236563e-01	  -1.0014359e-01	
   8.2995000e+01	  -5.2210590e-01	  -1.0403298e-01	
   8.3050000e+01	  -5.2323286e-01	  -1.0832891e-01	
   8.3105000e+01	  -5.2566796e-01	  -1.1304641e-01	
   8.3160000e+01	  -5.2932159e-01	  -1.1819116e-01	
   8.3215000e+01	  -5.3409148e-01	  -1.2375552e-01	
   8.3270000e+01	  -5.3986201e-01	  -1.2971756e-01	
   8.3325000e+01	  -5.4650561e-01	  -1.3604239e-01	
   8.3380000e+01	  -5.5388721e-01	  -1.4268479e-01	
   8.3435000e+01	  -5.6187197e-01	  -1.4959262e-01	
   8.3490000e+01	  -5.7033563e-01	  -1.5671097e-01	
   8.3545000e+01	  -5.7917598e-01	  -1.6398712e-01	
   8.3600000e+01	  -5.8832080e-01	  -1.7137503e-01	
   8.3655000e+01	  -5.9772691e-01	  -1.7883679e-01	
   8.3710000e+01	  -6.0736868e-01	  -1.8633975e-01	
   8.3765000e+01	  -6.1722031e-01	  -1.9385009e-01	
   8.3820000e+01	  -6.2723889e-01	  -2.0132572e-01	
   8.3875000e+01	  -6.3735329e-01	  -2.0871110e-01	
   8.3930000e+01	  -6.4746054e-01	  -2.1593632e-01	
   8.3985000e+01	  -6.5743059e-01	  -2.2292108e-01	
   8.4040000e+01	  -6.6711903e-01	  -2.2958236e-01	
   8.4095000e+01	  -6.7638530e-01	  -2.3584331e-01	
   8.4150000e+01	  -6.8511144e-01	  -2.4164097e-01	
   8.4205000e+01	  -6.9321689e-01	  -2.4693134e-01	
   8.4260000e+01	  -7.0066593e-01	  -2.5169103e-01	
   8.4315000e+01	  -7.0746577e-01	  -2.5591490e-01	
   8.4370000e+01	  -7.1365541e-01	  -2.5961025e-01	
   8.4425000e+01	  -7.1928908e-01	  -2.6278954e-01	
   8.4480000e+01	  -7.2441937e-01	  -2.6546463e-01	
   8.4535000e+01	  -7.2908400e-01	  -2.6764411e-01	
   8.4590000e+01	  -7.3329801e-01	  -2.6933399e-01	
   8.4645000e+01	  -7.3705203e-01	  -2.7054164e-01	
   8.4700000e+01	  -7.4031594e-01	  -2.7128189e-01	
   8.4755000e+01	  -7.4304539e-01	  -2.7158356e-01	
   8.4810000e+01	  -7.4518941e-01	  -2.7149425e-01	
   8.4865000e+01	  -7.4669829e-01	  -2.7108189e-01	
   8.4920000e+01	  -7.4753110e-01	  -2.7043194e-01	
   8.4975000e+01	  -7.4766039e-01	  -2.6963941e-01	
   8.5030000e+01	  -7.4707349e-01	  -2.6879688e-01	
   8.5085000e+01	  -7.4577218e-01	  -2.6798206e-01	
   8.5140000e+01	  -7.4377191e-01	  -2.6724819e-01	
   8.5195000e+01	  -7.4109962e-01	  -2.6661958e-01	
   8.5250000e+01	  -7.3778924e-01	  -2.6609245e-01	
   8.5305000e+01	  -7.3387756e-01	  -2.6564099e-01	
   8.5360000e+01	  -7.2940366e-01	  -2.6522763e-01	
   8.5415000e+01	  -7.2441244e-01	  -2.6481561e-01	
   8.5470000e+01	  -7.1895940e-01	  -2.6438044e-01	
   8.5525000e+01	  -7.1311443e-01	  -2.6391753e-01	
   8.5580000e+01	  -7.0696328e-01	  -2.6344412e-01	
   8.5635000e+01	  -7.0060484e-01	  -2.6299498e-01	
   8.5690000e+01	  -6.9414344e-01	  -2.6261285e-01	
   8.5745000e+01	  -6.8767779e-01	  -2.6233685e-01	
   8.5800000e+01	  -6.8129015e-01	  -2.6219276e-01	
   8.5855000e+01	  -6.7503897e-01	  -2.6218772e-01	
   8.5910000e+01	  -6.6895682e-01	  -2.6231016e-01	
   8.5965000e+01	  -6.6305435e-01	  -2.6253483e-01	
   8.6020000e+01	  -6.5732949e-01	  -2.6283137e-01	
   8.6075000e+01	  -6.5178094e-01	  -2.6317396e-01	
   8.6130000e+01	  -6.4642390e-01	  -2.6354995e-01	
   8.6185000e+01	  -6.4130449e-01	  -2.6396580e-01	
   8.6240000e+01	  -6.3650746e-01	  -2.6444877e-01	
   8.6295000e+01	  -6.3215311e-01	  -2.6504289e-01	
   8.6350000e+01	  -6.2838220e-01	  -2.6579864e-01	
   8.6405000e+01	  -6.2533370e-01	  -2.6675950e-01	
   8.6460000e+01	  -6.2312402e-01	  -2.6795024e-01	
   8.6515000e+01	  -6.2183430e-01	  -2.6937077e-01	
   8.6570000e+01	  -6.2150695e-01	  -2.7099601e-01	
   8.6625000e+01	  -6.2214894e-01	  -2.7278072e-01	
   8.6680000e+01	  -6.2373925e-01	  -2.7466781e-01	
   8.6735000e+01	  -6.2623753e-01	  -2.7659875e-01	
   8.6790000e+01	  -6.2959200e-01	  -2.7852393e-01	
   8.6845000e+01	  -6.3374641e-01	  -2.8041073e-01	
   8.6900000e+01	  -6.3864562e-01	  -2.8224840e-01	
   8.6955000e+01	  -6.4423761e-01	  -2.8404863e-01	
   8.7010000e+01	  -6.5046904e-01	  -2.8584103e-01	
   8.7065000e+01	  -6.5727609e-01	  -2.8766388e-01	
   8.7120000e+01	  -6.6457683e-01	  -2.8955360e-01	
   8.7175000e+01	  -6.7226926e-01	  -2.9153711e-01	
   8.7230000e+01	  -6.8023440e-01	  -2.9362865e-01	
   8.7285000e+01	  -6.8834063e-01	  -2.9583042e-01	
   8.7340000e+01	  -6.9644801e-01	  -2.9813548e-01	
   8.7395000e+01	  -7.0441392e-01	  -3.0053216e-01	
   8.7450000e+01	  -7.1210131e-01	  -3.0300932e-01	
   8.7505000e+01	  -7.1938865e-01	  -3.0556074e-01	
   8.7560000e+01	  -7.2617931e-01	  -3.0818714e-01	
   8.7615000e+01	  -7.3240776e-01	  -3.1089500e-01	
   8.7670000e+01	  -7.3804128e-01	  -3.1369258e-01	
   8.7725000e+01	  -7.4307553e-01	  -3.1658373e-01	
   8.7780000e+01	  -7.4752523e-01	  -3.1956120e-01	
   8.7835000e+01	  -7.5141263e-01	  -3.2260121e-01	
   8.7890000e+01	  -7.5475711e-01	  -3.2566119e-01	
   8.7945000e+01	  -7.5756874e-01	  -3.2868149e-01	
   8.8000000e+01	  -7.5984722e-01	  -3.3159202e-01	
   8.8055000e+01	  -7.6158574e-01	  -3.3432381e-01	
   8.8110000e+01	  -7.6277720e-01	  -3.3682221e-01	
   8.8165000e+01	  -7.6341921e-01	  -3.3905653e-01	
   8.8220000e+01	  -7.6351457e-01	  -3.4102201e-01	
   8.8275000e+01	  -7.6306664e-01	  -3.4273313e-01	
   8.8330000e+01	  -7.6207142e-01	  -3.4421082e-01	
   8.8385000e+01	  -7.6050956e-01	  -3.4546798e-01	
   8.8440000e+01	  -7.5834101e-01	  -3.4649825e-01	
   8.8495000e+01	  -7.5550530e-01	  -3.4727138e-01	
   8.8550000e+01	  -7.5192808e-01	  -3.4773545e-01	
   8.8605000e+01	  -7.4753231e-01	  -3.4782371e-01	
   8.8660000e+01	  -7.4225064e-01	  -3.4746406e-01	
   8.8715000e+01	  -7.3603585e-01	  -3.4658933e-01	
   8.8770000e+01	  -7.2886635e-01	  -3.4514631e-01	
   8.8825000e+01	  -7.2074523e-01	  -3.4310136e-01	
   8.8880000e+01	  -7.1169384e-01	  -3.4044058e-01	
   8.8935000e+01	  -7.0174234e-01	  -3.3716415e-01	
   8.8990000e+01	  -6.9091964e-01	  -3.3327750e-01	
   8.9045000e+01	  -6.7924468e-01	  -3.2878273e-01	
   8.9100000e+01	  -6.6672045e-01	  -3.2367362e-01	
   8.9155000e+01	  -6.5333229e-01	  -3.1793527e-01	
   8.9210000e+01	  -6.3905103e-01	  -3.1154860e-01	
   8.9265000e+01	  -6.2384032e-01	  -3.0449800e-01	
   8.9320000e+01	  -6.0766710e-01	  -2.9678020e-01	
   8.9375000e+01	  -5.9051385e-01	  -2.8841277e-01	
   8.9430000e+01	  -5.7239098e-01	  -2.7944133e-01	
   8.9485000e+01	  -5.5334609e-01	  -2.6994379e-01	
   8.9540000e+01	  -5.3346660e-01	  -2.6002898e-01	
   8.9595000e+01	  -5.1287344e-01	  -2.4982796e-01	
   8.9650000e+01	  -4.9170682e-01	  -2.3947969e-01	
   8.9705000e+01	  -4.7010802e-01	  -2.2911531e-01	
   8.9760000e+01	  -4.4820231e-01	  -2.1884505e-01	
   8.9815000e+01	  -4.2608797e-01	  -2.0875028e-01	
   8.9870000e+01	  -4.0383511e-01	  -1.9888209e-01	
   8.9925000e+01	  -3.8149441e-01	  -1.8926617e-01	
   8.9980000e+01	  -3.5911240e-01	  -1.7991270e-01	
   9.0035000e+01	  -3.3674820e-01	  -1.7082868e-01	
   9.0090000e+01	  -3.1448914e-01	  -1.6203055e-01	
   9.0145000e+01	  -2.9246333e-01	  -1.5355504e-01	
   9.0200000e+01	  -2.7084652e-01	  -1.4546577e-01	
   9.0255000e+01	  -2.4986013e-01	  -1.3785326e-01	
   9.0310000e+01	  -2.2976043e-01	  -1.3082805e-01	
   9.0365000e+01	  -2.1082177e-01	  -1.2450867e-01	
   9.0420000e+01	  -1.9331796e-01	  -1.1900781e-01	
   9.0475000e+01	  -1.7750572e-01	  -1.1441975e-01	
   9.0530000e+01	  -1.6361321e-01	  -1.1081249e-01	
   9.0585000e+01	  -1.5183300e-01	  -1.0822662e-01	
   9.0640000e+01	  -1.4231605e-01	  -1.0668027e-01	
   9.0695000e+01	  -1.3516687e-01	  -1.0617740e-01	
   9.0750000e+01	  -1.3044291e-01	  -1.0671654e-01	
   9.0805000e+01	  -1.2815975e-01	  -1.0829774e-01	
   9.0860000e+01	  -1.2829860e-01	  -1.1092590e-01	
   9.0915000e+01	  -1.3081106e-01	  -1.1460900e-01	
   9.0970000e+01	  -1.3561744e-01	  -1.1935107e-01	
   9.1025000e+01	  -1.4259938e-01	  -1.2514247e-01	
   9.1080000e+01	  -1.5159118e-01	  -1.3195138e-01	
   9.1135000e+01	  -1.6237558e-01	  -1.3971919e-01	
   9.1190000e+01	  -1.7468688e-01	  -1.4836050e-01	
   9.1245000e+01	  -1.8822050e-01	  -1.5776715e-01	
   9.1300000e+01	  -2.0264598e-01	  -1.6781561e-01	
   9.1355000e+01	  -2.1762224e-01	  -1.7837682e-01	
   9.1410000e+01	  -2.3281532e-01	  -1.8932724e-01	
   9.1465000e+01	  -2.4791915e-01	  -2.0055914e-01	
   9.1520000e+01	  -2.6267681e-01	  -2.1198777e-01	
   9.1575000e+01	  -2.7689585e-01	  -2.2355338e-01	
   9.1630000e+01	  -2.9045184e-01	  -2.3521714e-01	
   9.1685000e+01	  -3.0328041e-01	  -2.4695307e-01	
   9.1740000e+01	  -3.1536274e-01	  -2.5873873e-01	
   9.1795000e+01	  -3.2670986e-01	  -2.7054681e-01	
   9.1850000e+01	  -3.3734846e-01	  -2.8233876e-01	
   9.1905000e+01	  -3.4730949e-01	  -2.9406165e-01	
   9.1960000e+01	  -3.5661998e-01	  -3.0564910e-01	
   9.2015000e+01	  -3.6529925e-01	  -3.1702570e-01	
   9.2070000e+01	  -3.7336059e-01	  -3.2811369e-01	
   9.2125000e+01	  -3.8081710e-01	  -3.3884027e-01	
   9.2180000e+01	  -3.8768712e-01	  -3.4914410e-01	
   9.2235000e+01	  -3.9399337e-01	  -3.5897871e-01	
   9.2290000e+01	  -3.9975371e-01	  -3.6831129e-01	
   9.2345000e+01	  -4.0496719e-01	  -3.7711739e-01	
   9.2400000e+01	  -4.0960180e-01	  -3.8537426e-01	
   9.2455000e+01	  -4.1358806e-01	  -3.9305521e-01	
   9.2510000e+01	  -4.1681898e-01	  -4.0012670e-01	
   9.2565000e+01	  -4.1915584e-01	  -4.0654895e-01	
   9.2620000e+01	  -4.2043979e-01	  -4.1228036e-01	
   9.2675000e+01	  -4.2050866e-01	  -4.1728518e-01	
   9.2730000e+01	  -4.1921686e-01	  -4.2154244e-01	
   9.2785000e+01	  -4.1645515e-01	  -4.2505353e-01	
   9.2840000e+01	  -4.1216616e-01	  -4.2784581e-01	
   9.2895000e+01	  -4.0635107e-01	  -4.2997016e-01	
   9.2950000e+01	  -3.9906457e-01	  -4.3149236e-01	
   9.3005000e+01	  -3.9040042e-01	  -4.3248060e-01	
   9.3060000e+01	  -3.8047304e-01	  -4.3299310e-01	
   9.3115000e+01	  -3.6940170e-01	  -4.3306894e-01	
   9.3170000e+01	  -3.5730189e-01	  -4.3272397e-01	
   9.3225000e+01	  -3.4428665e-01	  -4.3195277e-01	
   9.3280000e+01	  -3.3047555e-01	  -4.3073642e-01	
   9.3335000e+01	  -3.1600487e-01	  -4.2905452e-01	
   9.3390000e+01	  -3.0103357e-01	  -4.2689813e-01	
   9.3445000e+01	  -2.8574441e-01	  -4.2428012e-01	
   9.3500000e+01	  -2.7034115e-01	  -4.2124048e-01	
   9.3555000e+01	  -2.5504031e-01	  -4.1784555e-01	
   9.3610000e+01	  -2.4005575e-01	  -4.1418092e-01	
   9.3665000e+01	  -2.2557928e-01	  -4.1033986e-01	
   9.3720000e+01	  -2.1176355e-01	  -4.0641116e-01	
   9.3775000e+01	  -1.9871043e-01	  -4.0246989e-01	
   9.3830000e+01	  -1.8646486e-01	  -3.9857265e-01	
   9.3885000e+01	  -1.7501436e-01	  -3.9475665e-01	
   9.3940000e+01	  -1.6429586e-01	  -3.9104267e-01	
   9.3995000e+01	  -1.5420942e-01	  -3.8744147e-01	
   9.4050000e+01	  -1.4463609e-01	  -3.8396229e-01	
   9.4105000e+01	  -1.3545552e-01	  -3.8062089e-01	
   9.4160000e+01	  -1.2655921e-01	  -3.7744473e-01	
   9.4215000e+01	  -1.1785668e-01	  -3.7447365e-01	
   9.4270000e+01	  -1.0927364e-01	  -3.7175510e-01	
   9.4325000e+01	  -1.0074484e-01	  -3.6933418e-01	
   9.4380000e+01	  -9.2207099e-02	  -3.6724183e-01	
   9.4435000e+01	  -8.3596515e-02	  -3.6548568e-01	
   9.4490000e+01	  -7.4850589e-02	  -3.6404609e-01	
   9.4545000e+01	  -6.5914737e-02	  -3.6287784e-01	
   9.4600000e+01	  -5.6752605e-02	  -3.6191700e-01	
   9.4655000e+01	  -4.7359510e-02	  -3.6109153e-01	
   9.4710000e+01	  -3.7777042e-02	  -3.6033331e-01	
   9.4765000e+01	  -2.8105816e-02	  -3.5958877e-01	
   9.4820000e+01	  -1.8513679e-02	  -3.5882699e-01	
   9.4875000e+01	  -9.2369189e-03	  -3.5804398e-01	
   9.4930000e+01	  -5.7104671e-04	  -3.5726121e-01	
   9.4985000e+01	   7.1511006e-03	  -3.5651693e-01	
   9.5040000e+01	   1.3590850e-02	  -3.5585255e-01	
   9.5095000e+01	   1.8437337e-02	  -3.5529928e-01	
   9.5150000e+01	   2.1435988e-02	  -3.5486896e-01	
   9.5205000e+01	   2.2406832e-02	  -3.5455069e-01	
   9.5260000e+01	   2.1250024e-02	  -3.5431348e-01	
   9.5315000e+01	   1.7938843e-02	  -3.5411488e-01	
   9.5370000e+01	   1.2503475e-02	  -3.5391375e-01	
   9.5425000e+01	   5.0110727e-03	  -3.5368405e-01	
   9.5480000e+01	  -4.4522778e-03	  -3.5342661e-01	
   9.5535000e+01	  -1.5793258e-02	  -3.5317597e-01	
   9.5590000e+01	  -2.8914064e-02	  -3.5299956e-01	
   9.5645000e+01	  -4.3706076e-02	  -3.5298790e-01	
   9.5700000e+01	  -6.0037177e-02	  -3.5323941e-01	
   9.5755000e+01	  -7.7737625e-02	  -3.5384513e-01	
   9.5810000e+01	  -9.6589680e-02	  -3.5487724e-01	
   9.5865000e+01	  -1.1632435e-01	  -3.5638173e-01	
   9.5920000e+01	  -1.3662605e-01	  -3.5837564e-01	
   9.5975000e+01	  -1.5714461e-01	  -3.6084955e-01	
   9.6030000e+01	  -1.7751331e-01	  -3.6377486e-01	
   9.6085000e+01	  -1.9736997e-01	  -3.6711286e-01	
   9.6140000e+01	  -2.1637712e-01	  -3.7082231e-01	
   9.6195000e+01	  -2.3423690e-01	  -3.7486391e-01	
   9.6250000e+01	  -2.5069745e-01	  -3.7920164e-01	
   9.6305000e+01	  -2.6554984e-01	  -3.8380019e-01	
   9.6360000e+01	  -2.7861856e-01	  -3.8861889e-01	
   9.6415000e+01	  -2.8975135e-01	  -3.9360452e-01	
   9.6470000e+01	  -2.9881323e-01	  -3.9868601e-01	
   9.6525000e+01	  -3.0568603e-01	  -4.0377288e-01	
   9.6580000e+01	  -3.1027324e-01	  -4.0875705e-01	
   9.6635000e+01	  -3.1250888e-01	  -4.1351759e-01	
   9.6690000e+01	  -3.1236939e-01	  -4.1792816e-01	
   9.6745000e+01	  -3.0988577e-01	  -4.2186653e-01	
   9.6800000e+01	  -3.0515093e-01	  -4.2522358e-01	
   9.6855000e+01	  -2.9831774e-01	  -4.2790918e-01	
   9.6910000e+01	  -2.8958814e-01	  -4.2985329e-01	
   9.6965000e+01	  -2.7919766e-01	  -4.3100255e-01	
   9.7020000e+01	  -2.6740046e-01	  -4.3131446e-01	
   9.7075000e+01	  -2.5445742e-01	  -4.3075219e-01	
   9.7130000e+01	  -2.4062777e-01	  -4.2928219e-01	
   9.7185000e+01	  -2.2616296e-01	  -4.2687494e-01	
   9.7240000e+01	  -2.1130221e-01	  -4.2350731e-01	
   9.7295000e+01	  -1.9627005e-01	  -4.1916568e-01	
   9.7350000e+01	  -1.8127648e-01	  -4.1384918e-01	
   9.7405000e+01	  -1.6651829e-01	  -4.0757241e-01	
   9.7460000e+01	  -1.5217864e-01	  -4.0036646e-01	
   9.7515000e+01	  -1.3842173e-01	  -3.9227799e-01	
   9.7570000e+01	  -1.2538251e-01	  -3.8336670e-01	
   9.7625000e+01	  -1.1315432e-01	  -3.7370183e-01	
   9.7680000e+01	  -1.0177789e-01	  -3.6335822e-01	
   9.7735000e+01	  -9.1236162e-02	  -3.5241287e-01	
   9.7790000e+01	  -8.1458547e-02	  -3.4094388e-01	
   9.7845000e+01	  -7.2334630e-02	  -3.2903257e-01	
   9.7900000e+01	  -6.3733363e-02	  -3.1676839e-01	
   9.7955000e+01	  -5.5523233e-02	  -3.0425485e-01	
   9.8010000e+01	  -4.7590968e-02	  -2.9161441e-01	
   9.8065000e+01	  -3.9857121e-02	  -2.7898971e-01	
   9.8120000e+01	  -3.2286013e-02	  -2.6653959e-01	
   9.8175000e+01	  -2.4886958e-02	  -2.5442933e-01	
   9.8230000e+01	  -1.7706355e-02	  -2.4281730e-01	
   9.8285000e+01	  -1.0814586e-02	  -2.3184183e-01	
   9.8340000e+01	  -4.2924941e-03	  -2.2161158e-01	
   9.8395000e+01	   1.7806823e-03	  -2.1220081e-01	
   9.8450000e+01	   7.3370933e-03	  -2.0364997e-01	
   9.8505000e+01	   1.2325422e-02	  -1.9597070e-01	
   9.8560000e+01	   1.6709417e-02	  -1.8915388e-01	
   9.8615000e+01	   2.0460680e-02	  -1.8317839e-01	
   9.8670000e+01	   2.3548468e-02	  -1.7801857e-01	
   9.8725000e+01	   2.5930288e-02	  -1.7364897e-01	
   9.8780000e+01	   2.7548596e-02	  -1.7004504e-01	
   9.8835000e+01	   2.8337872e-02	  -1.6717902e-01	
   9.8890000e+01	   2.8239927e-02	  -1.6501311e-01	
   9.8945000e+01	   2.7219307e-02	  -1.6349352e-01	
   9.9000000e+01	   2.5271854e-02	  -1.6254832e-01	
   9.9055000e+01	   2.2425271e-02	  -1.6208975e-01	
   9.9110000e+01	   1.8733419e-02	  -1.6202069e-01	
   9.9165000e+01	   1.4265112e-02	  -1.6224440e-01	
   9.9220000e+01	   9.0877581e-03	  -1.6267566e-01	
   9.9275000e+01	   3.2479982e-03	  -1.6325145e-01	
   9.9330000e+01	  -3.2463369e-03	  -1.6393892e-01	
   9.9385000e+01	  -1.0438093e-02	  -1.6473975e-01	
   9.9440000e+01	  -1.8423115e-02	  -1.6568977e-01	
   9.9495000e+01	  -2.7341966e-02	  -1.6685281e-01	
   9.9550000e+01	  -3.7362347e-02	  -1.6830910e-01	
   9.9605000e+01	  -4.8655938e-02	  -1.7014073e-01	
   9.9660000e+01	  -6.1374781e-02	  -1.7241751e-01	
   9.9715000e+01	  -7.5630951e-02	  -1.7518604e-01	
   9.9770000e+01	  -9.1481208e-02	  -1.7846330e-01	
   9.9825000e+01	  -1.0891832e-01	  -1.8223477e-01	
   9.9880000e+01	  -1.2787133e-01	  -1.8645653e-01	
   9.9935000e+01	  -1.4821530e-01	  -1.9106064e-01	
   9.9990000e+01	  -1.6978822e-01	  -1.9596320e-01	
   1.0004500e+02	  -1.9241098e-01	  -2.0107408e-01	
   1.0010000e+02	  -2.1590621e-01	  -2.0630689e-01	
   1.0015500e+02	  -2.4011191e-01	  -2.1158682e-01	
   1.0021000e+02	  -2.6488698e-01	  -2.1685388e-01	
   1.0026500e+02	  -2.9011015e-01	  -2.2206119e-01	
   1.0032000e+02	  -3.1567637e-01	  -2.2717055e-01	
   1.0037500e+02	  -3.4149220e-01	  -2.3214780e-01	
   1.0043000e+02	  -3.6746979e-01	  -2.3695926e-01	
   1.0048500e+02	  -3.9352077e-01	  -2.4157013e-01	
   1.0054000e+02	  -4.1955318e-01	  -2.4594580e-01	
   1.0059500e+02	  -4.4547182e-01	  -2.5005593e-01	
   1.0065000e+02	  -4.7117864e-01	  -2.5387932e-01	
   1.0070500e+02	  -4.9657058e-01	  -2.5740794e-01	
   1.0076000e+02	  -5.2153577e-01	  -2.6064887e-01	
   1.0081500e+02	  -5.4594932e-01	  -2.6362249e-01	
   1.0087000e+02	  -5.6966965e-01	  -2.6635581e-01	
   1.0092500e+02	  -5.9253707e-01	  -2.6887337e-01	
   1.0098000e+02	  -6.1437725e-01	  -2.7118982e-01	
   1.0103500e+02	  -6.3500879e-01	  -2.7330615e-01	
   1.0109000e+02	  -6.5425185e-01	  -2.7520897e-01	
   1.0114500e+02	  -6.7193668e-01	  -2.7687252e-01	
   1.0120000e+02	  -6.8791397e-01	  -2.7826348e-01	
   1.0125500e+02	  -7.0206781e-01	  -2.7934802e-01	
   1.0131000e+02	  -7.1432819e-01	  -2.8009891e-01	
   1.0136500e+02	  -7.2467895e-01	  -2.8050017e-01	
   1.0142000e+02	  -7.3315894e-01	  -2.8054741e-01	
   1.0147500e+02	  -7.3985612e-01	  -2.8024281e-01	
   1.0153000e+02	  -7.4489693e-01	  -2.7958638e-01	
   1.0158500e+02	  -7.4843411e-01	  -2.7856727e-01	
   1.0164000e+02	  -7.5063666e-01	  -2.7715930e-01	
   1.0169500e+02	  -7.5168371e-01	  -2.7532223e-01	
   1.0175000e+02	  -7.5176211e-01	  -2.7300765e-01	
   1.0180500e+02	  -7.5106796e-01	  -2.7016738e-01	
   1.0186000e+02	  -7.4981177e-01	  -2.6676307e-01	
   1.0191500e+02	  -7.4822482e-01	  -2.6277598e-01	
   1.0197000e+02	  -7.4656089e-01	  -2.5821528e-01	
   1.0202500e+02	  -7.4508961e-01	  -2.5312317e-01	
   1.0208000e+02	  -7.4408153e-01	  -2.4757542e-01	
   1.0213500e+02	  -7.4378810e-01	  -2.4167655e-01	
   1.0219000e+02	  -7.4441934e-01	  -2.3554927e-01	
   1.0224500e+02	  -7.4612267e-01	  -2.2931957e-01	
   1.0230000e+02	  -7.4896814e-01	  -2.2310184e-01	
   1.0235500e+02	  -7.5294478e-01	  -2.1698850e-01	
   1.0241000e+02	  -7.5796860e-01	  -2.1104638e-01	
   1.0246500e+02	  -7.6389895e-01	  -2.0531954e-01	
   1.0252000e+02	  -7.7056119e-01	  -1.9983686e-01	
   1.0257500e+02	  -7.7777435e-01	  -1.9462295e-01	
   1.0263000e+02	  -7.8538085e-01	  -1.8970962e-01	
   1.0268500e+02	  -7.9327230e-01	  -1.8514460e-01	
   1.0274000e+02	  -8.0140524e-01	  -1.8099472e-01	
   1.0279500e+02	  -8.0980364e-01	  -1.7734261e-01	
   1.0285000e+02	  -8.1854827e-01	  -1.7427740e-01	
   1.0290500e+02	  -8.2775724e-01	  -1.7188111e-01	
   1.0296000e+02	  -8.3756427e-01	  -1.7021447e-01	
   1.0301500e+02	  -8.4810034e-01	  -1.6930666e-01	
   1.0307000e+02	  -8.5948048e-01	  -1.6915124e-01	
   1.0312500e+02	  -8.7179598e-01	  -1.6970844e-01	
   1.0318000e+02	  -8.8511271e-01	  -1.7091312e-01	
   1.0323500e+02	  -8.9947592e-01	  -1.7268731e-01	
   1.0329000e+02	  -9.1491957e-01	  -1.7495501e-01	
   1.0334500e+02	  -9.3147694e-01	  -1.7765529e-01	
   1.0340000e+02	  -9.4918791e-01	  -1.8075014e-01	
   1.0345500e+02	  -9.6809885e-01	  -1.8422553e-01	
   1.0351000e+02	  -9.8825337e-01	  -1.8808569e-01	
   1.0356500e+02	  -1.0096756e+00	  -1.9234240e-01	
   1.0362000e+02	  -1.0323503e+00	  -1.9700294e-01	
   1.0367500e+02	  -1.0562062e+00	  -2.0206039e-01	
   1.0373000e+02	  -1.0811058e+00	  -2.0748794e-01	
   1.0378500e+02	  -1.1068454e+00	  -2.1323788e-01	
   1.0384000e+02	  -1.1331637e+00	  -2.1924502e-01	
   1.0389500e+02	  -1.1597575e+00	  -2.2543382e-01	
   1.0395000e+02	  -1.1863016e+00	  -2.3172786e-01	
   1.0400500e+02	  -1.2124677e+00	  -2.3805905e-01	
   1.0406000e+02	  -1.2379399e+00	  -2.4437399e-01	
   1.0411500e+02	  -1.2624272e+00	  -2.5063547e-01	
   1.0417000e+02	  -1.2856719e+00	  -2.5681832e-01	
   1.0422500e+02	  -1.3074551e+00	  -2.6290110e-01	
   1.0428000e+02	  -1.3275990e+00	  -2.6885686e-01	
   1.0433500e+02	  -1.3459663e+00	  -2.7464688e-01	
   1.0439000e+02	  -1.3624595e+00	  -2.8021944e-01	
   1.0444500e+02	  -1.3770214e+00	  -2.8551335e-01	
   1.0450000e+02	  -1.3896394e+00	  -2.9046427e-01	
   1.0455500e+02	  -1.4003527e+00	  -2.9501186e-01	
   1.0461000e+02	  -1.4092584e+00	  -2.9910596e-01	
   1.0466500e+02	  -1.4165103e+00	  -3.0270955e-01	
   1.0472000e+02	  -1.4223083e+00	  -3.0579683e-01	
   1.0477500e+02	  -1.4268786e+00	  -3.0834631e-01	
   1.0483000e+02	  -1.4304522e+00	  -3.1033121e-01	
   1.0488500e+02	  -1.4332439e+00	  -3.1171040e-01	
   1.0494000e+02	  -1.4354355e+00	  -3.1242294e-01	
   1.0499500e+02	  -1.4371605e+00	  -3.1238806e-01	
   1.0505000e+02	  -1.4384954e+00	  -3.1151098e-01	
   1.0510500e+02	  -1.4394591e+00	  -3.0969339e-01	
   1.0516000e+02	  -1.4400218e+00	  -3.0684624e-01	
   1.0521500e+02	  -1.4401207e+00	  -3.0290210e-01	
   1.0527000e+02	  -1.4396768e+00	  -2.9782541e-01	
   1.0532500e+02	  -1.4386083e+00	  -2.9161900e-01	
   1.0538000e+02	  -1.4368363e+00	  -2.8432495e-01	
   1.0543500e+02	  -1.4342819e+00	  -2.7601902e-01	
   1.0549000e+02	  -1.4308582e+00	  -2.6680026e-01	
   1.0554500e+02	  -1.4264631e+00	  -2.5677955e-01	
   1.0560000e+02	  -1.4209755e+00	  -2.4607034e-01	
   1.0565500e+02	  -1.4142594e+00	  -2.3478327e-01	
   1.0571000e+02	  -1.4061732e+00	  -2.2302565e-01	
   1.0576500e+02	  -1.3965844e+00	  -2.1090498e-01	
   1.0582000e+02	  -1.3853856e+00	  -1.9853429e-01	
   1.0587500e+02	  -1.3725086e+00	  -1.8603629e-01	
   1.0593000e+02	  -1.3579368e+00	  -1.7354479e-01	
   1.0598500e+02	  -1.3417095e+00	  -1.6120253e-01	
   1.0604000e+02	  -1.3239183e+00	  -1.4915379e-01	
   1.0609500e+02	  -1.3046939e+00	  -1.3753210e-01	
   1.0615000e+02	  -1.2841911e+00	  -1.2644601e-01	
   1.0620500e+02	  -1.2625763e+00	  -1.1596746e-01	
   1.0626000e+02	  -1.2400211e+00	  -1.0612603e-01	
   1.0631500e+02	  -1.2167040e+00	  -9.6910195e-02	
   1.0637000e+02	  -1.1928156e+00	  -8.8275729e-02	
   1.0642500e+02	  -1.1685682e+00	  -8.0159326e-02	
   1.0648000e+02	  -1.1442025e+00	  -7.2494615e-02	
   1.0653500e+02	  -1.1199930e+00	  -6.5227193e-02	
   1.0659000e+02	  -1.0962473e+00	  -5.8325864e-02	
   1.0664500e+02	  -1.0732994e+00	  -5.1787595e-02	
   1.0670000e+02	  -1.0514952e+00	  -4.5634923e-02	
   1.0675500e+02	  -1.0311723e+00	  -3.9907566e-02	
   1.0681000e+02	  -1.0126392e+00	  -3.4652717e-02	
   1.0686500e+02	  -9.9615981e-01	  -2.9917813e-02	
   1.0692000e+02	  -9.8194003e-01	  -2.5746748e-02	
   1.0697500e+02	  -9.7011951e-01	  -2.2178992e-02	
   1.0703000e+02	  -9.6076712e-01	  -1.9251397e-02	
   1.0708500e+02	  -9.5388178e-01	  -1.7002322e-02	
   1.0714000e+02	  -9.4939756e-01	  -1.5476761e-02	
   1.0719500e+02	  -9.4719183e-01	  -1.4730308e-02	
   1.0725000e+02	  -9.4709458e-01	  -1.4829734e-02	
   1.0730500e+02	  -9.4889719e-01	  -1.5848554e-02	
   1.0736000e+02	  -9.5235969e-01	  -1.7857312e-02	
   1.0741500e+02	  -9.5721669e-01	  -2.0910055e-02	
   1.0747000e+02	  -9.6318272e-01	  -2.5030278e-02	
   1.0752500e+02	  -9.6995881e-01	  -3.0200435e-02	
   1.0758000e+02	  -9.7724157e-01	  -3.6357679e-02	
   1.0763500e+02	  -9.8473508e-01	  -4.3395994e-02	
   1.0769000e+02	  -9.9216530e-01	  -5.1173741e-02	
   1.0774500e+02	  -9.9929605e-01	  -5.9525620e-02	
   1.0780000e+02	  -1.0059430e+00	  -6.8276937e-02	
   1.0785500e+02	  -1.0119806e+00	  -7.7256747e-02	
   1.0791000e+02	  -1.0173401e+00	  -8.6307144e-02	
   1.0796500e+02	  -1.0220004e+00	  -9.5287829e-02	
   1.0802000e+02	  -1.0259740e+00	  -1.0407620e-01	
   1.0807500e+02	  -1.0292897e+00	  -1.1256430e-01	
   1.0813000e+02	  -1.0319735e+00	  -1.2065516e-01	
   1.0818500e+02	  -1.0340345e+00	  -1.2826098e-01	
   1.0824000e+02	  -1.0354591e+00	  -1.3530364e-01	
   1.0829500e+02	  -1.0362122e+00	  -1.4171655e-01	
   1.0835000e+02	  -1.0362438e+00	  -1.4744674e-01	
   1.0840500e+02	  -1.0354969e+00	  -1.5245641e-01	
   1.0846000e+02	  -1.0339137e+00	  -1.5672427e-01	
   1.0851500e+02	  -1.0314390e+00	  -1.6024723e-01	
   1.0857000e+02	  -1.0280213e+00	  -1.6304229e-01	
   1.0862500e+02	  -1.0236105e+00	  -1.6514617e-01	
   1.0868000e+02	  -1.0181538e+00	  -1.6661134e-01	
   1.0873500e+02	  -1.0115910e+00	  -1.6749906e-01	
   1.0879000e+02	  -1.0038539e+00	  -1.6787272e-01	
   1.0884500e+02	  -9.9487051e-01	  -1.6779368e-01	
   1.0890000e+02	  -9.8457330e-01	  -1.6732073e-01	
   1.0895500e+02	  -9.7290989e-01	  -1.6651284e-01	
   1.0901000e+02	  -9.5985223e-01	  -1.6543370e-01	
   1.0906500e+02	  -9.4540289e-01	  -1.6415678e-01	
   1.0912000e+02	  -9.2959853e-01	  -1.6276897e-01	
   1.0917500e+02	  -9.1251023e-01	  -1.6137143e-01	
   1.0923000e+02	  -8.9423784e-01	  -1.6007553e-01	
   1.0928500e+02	  -8.7489757e-01	  -1.5899378e-01	
   1.0934000e+02	  -8.5460740e-01	  -1.5822824e-01	
   1.0939500e+02	  -8.3347689e-01	  -1.5786008e-01	
   1.0945000e+02	  -8.1160256e-01	  -1.5794249e-01	
   1.0950500e+02	  -7.8906667e-01	  -1.5849794e-01	
   1.0956000e+02	  -7.6593779e-01	  -1.5952036e-01	
   1.0961500e+02	  -7.4227414e-01	  -1.6098193e-01	
   1.0967000e+02	  -7.1813134e-01	  -1.6284335e-01	
   1.0972500e+02	  -6.9357380e-01	  -1.6506479e-01	
   1.0978000e+02	  -6.6868711e-01	  -1.6761534e-01	
   1.0983500e+02	  -6.4358688e-01	  -1.7047837e-01	
   1.0989000e+02	  -6.1842121e-01	  -1.7365147e-01	
   1.0994500e+02	  -5.9336679e-01	  -1.7714109e-01	
   1.1000000e+02	  -5.6862126e-01	  -1.8095412e-01	
   1.1005500e+02	  -5.4439273e-01	  -1.8508928e-01	
   1.1011000e+02	  -5.2088655e-01	  -1.8953022e-01	
   1.1016500e+02	  -4.9829118e-01	  -1.9424188e-01	
   1.1022000e+02	  -4.7676821e-01	  -1.9917134e-01	
   1.1027500e+02	  -4.5645010e-01	  -2.0425365e-01	
   1.1033000e+02	  -4.3744429e-01	  -2.0942106e-01	
   1.1038500e+02	  -4.1983925e-01	  -2.1461242e-01	
   1.1044000e+02	  -4.0370903e-01	  -2.1978045e-01	
   1.1049500e+02	  -3.8911425e-01	  -2.2489500e-01	
   1.1055000e+02	  -3.7609676e-01	  -2.2994171e-01	
   1.1060500e+02	  -3.6466930e-01	  -2.3491643e-01	
   1.1066000e+02	  -3.5480477e-01	  -2.3981801e-01	
   1.1071500e+02	  -3.4643043e-01	  -2.4464287e-01	
   1.1077000e+02	  -3.3942838e-01	  -2.4938276e-01	
   1.1082500e+02	  -3.3364112e-01	  -2.5402495e-01	
   1.1088000e+02	  -3.2888024e-01	  -2.5855395e-01	
   1.1093500e+02	  -3.2493818e-01	  -2.6295492e-01	
   1.1099000e+02	  -3.2160408e-01	  -2.6721930e-01	
   1.1104500e+02	  -3.1868338e-01	  -2.7135136e-01	
   1.1110000e+02	  -3.1601739e-01	  -2.7537391e-01	
   1.1115500e+02	  -3.1349801e-01	  -2.7933156e-01	
   1.1121000e+02	  -3.1107378e-01	  -2.8329030e-01	
   1.1126500e+02	  -3.0874573e-01	  -2.8733181e-01	
   1.1132000e+02	  -3.0655379e-01	  -2.9154349e-01	
   1.1137500e+02	  -3.0455872e-01	  -2.9600751e-01	
   1.1143000e+02	  -3.0282548e-01	  -3.0079242e-01	
   1.1148500e+02	  -3.0141175e-01	  -3.0594831e-01	
   1.1154000e+02	  -3.0036179e-01	  -3.1150549e-01	
   1.1159500e+02	  -2.9970460e-01	  -3.1747668e-01	
   1.1165000e+02	  -2.9945538e-01	  -3.2386171e-01	
   1.1170500e+02	  -2.9961906e-01	  -3.3065255e-01	
   1.1176000e+02	  -3.0019483e-01	  -3.3783659e-01	
   1.1181500e+02	  -3.0117927e-01	  -3.4539694e-01	
   1.1187000e+02	  -3.0256555e-01	  -3.5330940e-01	
   1.1192500e+02	  -3.0433711e-01	  -3.6153692e-01	
   1.1198000e+02	  -3.0645726e-01	  -3.7002328e-01	
   1.1203500e+02	  -3.0885835e-01	  -3.7868846e-01	
   1.1209000e+02	  -3.1143499e-01	  -3.8742730e-01	
   1.1214500e+02	  -3.1404607e-01	  -3.9611208e-01	
   1.1220000e+02	  -3.1652651e-01	  -4.0459872e-01	
   1.1225500e+02	  -3.1870434e-01	  -4.1273580e-01	
   1.1231000e+02	  -3.2041687e-01	  -4.2037538e-01	
   1.1236500e+02	  -3.2152304e-01	  -4.2738335e-01	
   1.1242000e+02	  -3.2191121e-01	  -4.3364659e-01	
   1.1247500e+02	  -3.2150150e-01	  -4.3907443e-01	
   1.1253000e+02	  -3.2024292e-01	  -4.4359499e-01	
   1.1258500e+02	  -3.1810689e-01	  -4.4714881e-01	
   1.1264000e+02	  -3.1507953e-01	  -4.4968352e-01	
   1.1269500e+02	  -3.1115512e-01	  -4.5115152e-01	
   1.1275000e+02	  -3.0633222e-01	  -4.5151124e-01	
   1.1280500e+02	  -3.0061194e-01	  -4.5073074e-01	
   1.1286000e+02	  -2.9399695e-01	  -4.4879211e-01	
   1.1291500e+02	  -2.8649164e-01	  -4.4569554e-01	
   1.1297000e+02	  -2.7810581e-01	  -4.4146249e-01	
   1.1302500e+02	  -2.6886086e-01	  -4.3613776e-01	
   1.1308000e+02	  -2.5879277e-01	  -4.2978850e-01	
   1.1313500e+02	  -2.4794756e-01	  -4.2249895e-01	
   1.1319000e+02	  -2.3637130e-01	  -4.1436123e-01	
   1.1324500e+02	  -2.2410083e-01	  -4.0546513e-01	
   1.1330000e+02	  -2.1115873e-01	  -3.9588955e-01	
   1.1335500e+02	  -1.9755237e-01	  -3.8569686e-01	
   1.1341000e+02	  -1.8327629e-01	  -3.7493158e-01	
   1.1346500e+02	  -1.6831665e-01	  -3.6362393e-01	
   1.1352000e+02	  -1.5265670e-01	  -3.5179722e-01	
   1.1357500e+02	  -1.3628246e-01	  -3.3947671e-01	
   1.1363000e+02	  -1.1918877e-01	  -3.2669747e-01	
   1.1368500e+02	  -1.0138391e-01	  -3.1350959e-01	
   1.1374000e+02	  -8.2888933e-02	  -2.9997855e-01	
   1.1379500e+02	  -6.3729802e-02	  -2.8618019e-01	
   1.1385000e+02	  -4.3925296e-02	  -2.7219155e-01	
   1.1390500e+02	  -2.3476477e-02	  -2.5808145e-01	
   1.1396000e+02	  -2.3626343e-03	  -2.4390377e-01	
   1.1401500e+02	   1.9454882e-02	  -2.2969464e-01	
   1.1407000e+02	   4.2022531e-02	  -2.1547400e-01	
   1.1412500e+02	   6.5380391e-02	  -2.0125144e-01	
   1.1418000e+02	   8.9545780e-02	  -1.8703547e-01	
   1.1423500e+02	   1.1449653e-01	  -1.7284405e-01	
   1.1429000e+02	   1.4015639e-01	  -1.5871370e-01	
   1.1434500e+02	   1.6638665e-01	  -1.4470474e-01	
   1.1440000e+02	   1.9298876e-01	  -1.3090042e-01	
   1.1445500e+02	   2.1971973e-01	  -1.1739909e-01	
   1.1451000e+02	   2.4631555e-01	  -1.0430208e-01	
   1.1456500e+02	   2.7251612e-01	  -9.1701921e-02	
   1.1462000e+02	   2.9808740e-01	  -7.9673824e-02	
   1.1467500e+02	   3.2283789e-01	  -6.8270574e-02	
   1.1473000e+02	   3.4662773e-01	  -5.7520186e-02	
   1.1478500e+02	   3.6936883e-01	  -4.7427085e-02	
   1.1484000e+02	   3.9101759e-01	  -3.7977152e-02	
   1.1489500e+02	   4.1156315e-01	  -2.9145417e-02	
   1.1495000e+02	   4.3101324e-01	  -2.0904466e-02	
   1.1500500e+02	   4.4937916e-01	  -1.3231982e-02	
   1.1506000e+02	   4.6666364e-01	  -6.1152056e-03	
   1.1511500e+02	   4.8285703e-01	   4.5027880e-04	
   1.1517000e+02	   4.9794244e-01	   6.4678738e-03	
   1.1522500e+02	   5.1190550e-01	   1.1950164e-02	
   1.1528000e+02	   5.2474385e-01	   1.6927348e-02	
   1.1533500e+02	   5.3647449e-01	   2.1451003e-02	
   1.1539000e+02	   5.4713825e-01	   2.5592432e-02	
   1.1544500e+02	   5.5680012e-01	   2.9435869e-02	
   1.1550000e+02	   5.6554445e-01	   3.3067842e-02	
   1.1555500e+02	   5.7346594e-01	   3.6565175e-02	
   1.1561000e+02	   5.8065978e-01	   3.9984303e-02	
   1.1566500e+02	   5.8721395e-01	   4.3353691e-02	
   1.1572000e+02	   5.9320464e-01	   4.6670772e-02	
   1.1577500e+02	   5.9869462e-01	   4.9904652e-02	
   1.1583000e+02	   6.0373335e-01	   5.3004491e-02	
   1.1588500e+02	   6.0835712e-01	   5.5910948e-02	
   1.1594000e+02	   6.1258868e-01	   5.8566590e-02	
   1.1599500e+02	   6.1643713e-01	   6.0922187e-02	
   1.1605000e+02	   6.1989901e-01	   6.2938164e-02	
   1.1610500e+02	   6.2295864e-01	   6.4581993e-02	
   1.1616000e+02	   6.2558541e-01	   6.5822897e-02	
   1.1621500e+02	   6.2772915e-01	   6.6625809e-02	
   1.1627000e+02	   6.2931753e-01	   6.6946987e-02	
   1.1632500e+02	   6.3025876e-01	   6.6733559e-02	
   1.1638000e+02	   6.3045013e-01	   6.5928243e-02	
   1.1643500e+02	   6.2979049e-01	   6.4478191e-02	
   1.1649000e+02	   6.2819262e-01	   6.2344346e-02	
   1.1654500e+02	   6.2559109e-01	   5.9507292e-02	
   1.1660000e+02	   6.2194264e-01	   5.5968011e-02	
   1.1665500e+02	   6.1721952e-01	   5.1744493e-02	
   1.1671000e+02	   6.1139780e-01	   4.6865382e-02	
   1.1676500e+02	   6.0444310e-01	   4.1361225e-02	
   1.1682000e+02	   5.9629718e-01	   3.5254670e-02	
   1.1687500e+02	   5.8686978e-01	   2.8552427e-02	
   1.1693000e+02	   5.7603985e-01	   2.1242110e-02	
   1.1698500e+02	   5.6366767e-01	   1.3295230e-02	
   1.1704000e+02	   5.4961588e-01	   4.6748800e-03	
   1.1709500e+02	   5.3377407e-01	  -4.6546776e-03	
   1.1715000e+02	   5.1608157e-01	  -1.4718861e-02	
   1.1720500e+02	   4.9654365e-01	  -2.5525540e-02	
   1.1726000e+02	   4.7523817e-01	  -3.7060819e-02	
   1.1731500e+02	   4.5231109e-01	  -4.9288361e-02	
   1.1737000e+02	   4.2796408e-01	  -6.2151684e-02	
   1.1742500e+02	   4.0244014e-01	  -7.5577875e-02	
   1.1748000e+02	   3.7601200e-01	  -8.9480862e-02	
   1.1753500e+02	   3.4897545e-01	  -1.0376288e-01	
   1.1759000e+02	   3.2164855e-01	  -1.1831349e-01	
   1.1764500e+02	   2.9437462e-01	  -1.3300647e-01	
   1.1770000e+02	   2.6752498e-01	  -1.4769613e-01	
   1.1775500e+02	   2.4149821e-01	  -1.6221551e-01	
   1.1781000e+02	   2.1671585e-01	  -1.7637737e-01	
   1.1786500e+02	   1.9361411e-01	  -1.8997795e-01	
   1.1792000e+02	   1.7262995e-01	  -2.0280407e-01	
   1.1797500e+02	   1.5418040e-01	  -2.1464388e-01	
   1.1803000e+02	   1.3863948e-01	  -2.2529972e-01	
   1.1808500e+02	   1.2632035e-01	  -2.3459937e-01	
   1.1814000e+02	   1.1746751e-01	  -2.4240233e-01	
   1.1819500e+02	   1.1225753e-01	  -2.4859961e-01	
   1.1825000e+02	   1.1080313e-01	  -2.5310816e-01	
   1.1830500e+02	   1.1315608e-01	  -2.5586393e-01	
   1.1836000e+02	   1.1930617e-01	  -2.5681718e-01	
   1.1841500e+02	   1.2917687e-01	  -2.5593203e-01	
   1.1847000e+02	   1.4262066e-01	  -2.5318911e-01	
   1.1852500e+02	   1.5941813e-01	  -2.4859034e-01	
   1.1858000e+02	   1.7928325e-01	  -2.4216478e-01	
   1.1863500e+02	   2.0187457e-01	  -2.3397480e-01	
   1.1869000e+02	   2.2681216e-01	  -2.2412002e-01	
   1.1874500e+02	   2.5370100e-01	  -2.1273590e-01	
   1.1880000e+02	   2.8215812e-01	  -1.9998638e-01	
   1.1885500e+02	   3.1183607e-01	  -1.8605315e-01	
   1.1891000e+02	   3.4243601e-01	  -1.7112495e-01	
   1.1896500e+02	   3.7371025e-01	  -1.5538915e-01	
   1.1902000e+02	   4.0545929e-01	  -1.3902516e-01	
   1.1907500e+02	   4.3752597e-01	  -1.2220007e-01	
   1.1913000e+02	   4.6978626e-01	  -1.0506666e-01	
   1.1918500e+02	   5.0213674e-01	  -8.7763941e-02	
   1.1924000e+02	   5.3448194e-01	  -7.0418529e-02	
   1.1929500e+02	   5.6672583e-01	  -5.3145112e-02	
   1.1935000e+02	   5.9877001e-01	  -3.6044479e-02	
   1.1940500e+02	   6.3051936e-01	  -1.9199395e-02	
   1.1946000e+02	   6.6189297e-01	  -2.6703102e-03	
   1.1951500e+02	   6.9283515e-01	   1.3506738e-02	
   1.1957000e+02	   7.2332112e-01	   2.9319033e-02	
   1.1962500e+02	   7.5335518e-01	   4.4773500e-02	
   1.1968000e+02	   7.8296264e-01	   5.9891536e-02	
   1.1973500e+02	   8.1217741e-01	   7.4702916e-02	
   1.1979000e+02	   8.4102883e-01	   8.9238827e-02	
   1.1984500e+02	   8.6953231e-01	   1.0352472e-01	
   1.1990000e+02	   8.9768786e-01	   1.1757543e-01	
   1.1995500e+02	   9.2548662e-01	   1.3139480e-01	
   1.2001000e+02	   9.5292065e-01	   1.4497980e-01	
   1.2006500e+02	   9.7999140e-01	   1.5832636e-01	
   1.2012000e+02	   1.0067148e+00	   1.7143478e-01	
   1.2017500e+02	   1.0331223e+00	   1.8431258e-01	
   1.2023000e+02	   1.0592581e+00	   1.9697340e-01	
   1.2028500e+02	   1.0851702e+00	   2.0943258e-01	
   1.2034000e+02	   1.1108980e+00	   2.2170164e-01	
   1.2039500e+02	   1.1364584e+00	   2.3378382e-01	
   1.2045000e+02	   1.1618332e+00	   2.4567153e-01	
   1.2050500e+02	   1.1869623e+00	   2.5734743e-01	
   1.2056000e+02	   1.2117479e+00	   2.6878995e-01	
   1.2061500e+02	   1.2360677e+00	   2.7998221e-01	
   1.2067000e+02	   1.2597943e+00	   2.9092100e-01	
   1.2072500e+02	   1.2828110e+00	   3.0162321e-01	
   1.2078000e+02	   1.3050225e+00	   3.1212843e-01	
   1.2083500e+02	   1.3263581e+00	   3.2249753e-01	
   1.2089000e+02	   1.3467690e+00	   3.3280737e-01	
   1.2094500e+02	   1.3662229e+00	   3.4314259e-01	
   1.2100000e+02	   1.3846983e+00	   3.5358630e-01	
   1.2105500e+02	   1.4021800e+00	   3.6421224e-01	
   1.2111000e+02	   1.4186595e+00	   3.7508013e-01	
   1.2116500e+02	   1.4341404e+00	   3.8623479e-01	
   1.2122000e+02	   1.4486477e+00	   3.9770762e-01	
   1.2127500e+02	   1.4622358e+00	   4.0951836e-01	
   1.2133000e+02	   1.4749918e+00	   4.2167519e-01	
   1.2138500e+02	   1.4870340e+00	   4.3417192e-01	
   1.2144000e+02	   1.4985026e+00	   4.4698335e-01	
   1.2149500e+02	   1.5095473e+00	   4.6006124e-01	
   1.2155000e+02	   1.5203142e+00	   4.7333275e-01	
   1.2160500e+02	   1.5309360e+00	   4.8670234e-01	
   1.2166000e+02	   1.5415257e+00	   5.0005798e-01	
   1.2171500e+02	   1.5521779e+00	   5.1328191e-01	
   1.2177000e+02	   1.5629760e+00	   5.2626381e-01	
   1.2182500e+02	   1.5739987e+00	   5.3891276e-01	
   1.2188000e+02	   1.5853204e+00	   5.5116535e-01	
   1.2193500e+02	   1.5970051e+00	   5.6298969e-01	
   1.2199000e+02	   1.6090983e+00	   5.7438487e-01	
   1.2204500e+02	   1.6216192e+00	   5.8537511e-01	
   1.2210000e+02	   1.6345554e+00	   5.9599980e-01	
   1.2215500e+02	   1.6478599e+00	   6.0630230e-01	
   1.2221000e+02	   1.6614511e+00	   6.1632061e-01	
   1.2226500e+02	   1.6752155e+00	   6.2608191e-01	
   1.2232000e+02	   1.6890165e+00	   6.3560217e-01	
   1.2237500e+02	   1.7027092e+00	   6.4489016e-01	
   1.2243000e+02	   1.7161592e+00	   6.5395372e-01	
   1.2248500e+02	   1.7292601e+00	   6.6280512e-01	
   1.2254000e+02	   1.7419478e+00	   6.7146369e-01	
   1.2259500e+02	   1.7542078e+00	   6.7995492e-01	
   1.2265000e+02	   1.7660735e+00	   6.8830684e-01	
   1.2270500e+02	   1.7776140e+00	   6.9654404e-01	
   1.2276000e+02	   1.7889126e+00	   7.0468044e-01	
   1.2281500e+02	   1.8000439e+00	   7.1271206e-01	
   1.2287000e+02	   1.8110568e+00	   7.2061184e-01	
   1.2292500e+02	   1.8219672e+00	   7.2832812e-01	
   1.2298000e+02	   1.8327599e+00	   7.3578771e-01	
   1.2303500e+02	   1.8433978e+00	   7.4290438e-01	
   1.2309000e+02	   1.8538341e+00	   7.4959109e-01	
   1.2314500e+02	   1.8640223e+00	   7.5577227e-01	
   1.2320000e+02	   1.8739218e+00	   7.6139266e-01	
   1.2325500e+02	   1.8834959e+00	   7.6642125e-01	
   1.2331000e+02	   1.8927054e+00	   7.7085095e-01	
   1.2336500e+02	   1.9014995e+00	   7.7469446e-01	
   1.2342000e+02	   1.9098098e+00	   7.7797707e-01	
   1.2347500e+02	   1.9175475e+00	   7.8072745e-01	
   1.2353000e+02	   1.9246044e+00	   7.8296842e-01	
   1.2358500e+02	   1.9308570e+00	   7.8470959e-01	
   1.2364000e+02	   1.9361725e+00	   7.8594316e-01	
   1.2369500e+02	   1.9404164e+00	   7.8664424e-01	
   1.2375000e+02	   1.9434656e+00	   7.8677655e-01	
   1.2380500e+02	   1.9452211e+00	   7.8630204e-01	
   1.2386000e+02	   1.9456173e+00	   7.8519101e-01	
   1.2391500e+02	   1.9446225e+00	   7.8342993e-01	
   1.2397000e+02	   1.9422329e+00	   7.8102575e-01	
   1.2402500e+02	   1.9384625e+00	   7.7800628e-01	
   1.2408000e+02	   1.9333331e+00	   7.7441686e-01	
   1.2413500e+02	   1.9268672e+00	   7.7031393e-01	
   1.2419000e+02	   1.9190839e+00	   7.6575742e-01	
   1.2424500e+02	   1.9099990e+00	   7.6080417e-01	
   1.2430000e+02	   1.8996297e+00	   7.5550454e-01	
   1.2435500e+02	   1.8880059e+00	   7.4990391e-01	
   1.2441000e+02	   1.8751869e+00	   7.4404824e-01	
   1.2446500e+02	   1.8612763e+00	   7.3799096e-01	
   1.2452000e+02	   1.8464291e+00	   7.3179800e-01	
   1.2457500e+02	   1.8308489e+00	   7.2554905e-01	
   1.2463000e+02	   1.8147774e+00	   7.1933519e-01	
   1.2468500e+02	   1.7984807e+00	   7.1325361e-01	
   1.2474000e+02	   1.7822339e+00	   7.0740035e-01	
   1.2479500e+02	   1.7663019e+00	   7.0186171e-01	
   1.2485000e+02	   1.7509223e+00	   6.9670624e-01	
   1.2490500e+02	   1.7362923e+00	   6.9198028e-01	
   1.2496000e+02	   1.7225648e+00	   6.8770862e-01	
   1.2501500e+02	   1.7098503e+00	   6.8389964e-01	
   1.2507000e+02	   1.6982232e+00	   6.8055252e-01	
   1.2512500e+02	   1.6877269e+00	   6.7766316e-01	
   1.2518000e+02	   1.6783771e+00	   6.7522615e-01	
   1.2523500e+02	   1.6701609e+00	   6.7323175e-01	
   1.2529000e+02	   1.6630347e+00	   6.7166004e-01	
   1.2534500e+02	   1.6569240e+00	   6.7047497e-01	
   1.2540000e+02	   1.6517277e+00	   6.6961984e-01	
   1.2545500e+02	   1.6473238e+00	   6.6901463e-01	
   1.2551000e+02	   1.6435773e+00	   6.6855634e-01	
   1.2556500e+02	   1.6403479e+00	   6.6812433e-01	
   1.2562000e+02	   1.6375011e+00	   6.6759112e-01	
   1.2567500e+02	   1.6349195e+00	   6.6683648e-01	
   1.2573000e+02	   1.6325135e+00	   6.6576109e-01	
   1.2578500e+02	   1.6302246e+00	   6.6429677e-01	
   1.2584000e+02	   1.6280238e+00	   6.6241191e-01	
   1.2589500e+02	   1.6259016e+00	   6.6011140e-01	
   1.2595000e+02	   1.6238535e+00	   6.5743173e-01	
   1.2600500e+02	   1.6218610e+00	   6.5443252e-01	
   1.2606000e+02	   1.6198713e+00	   6.5118602e-01	
   1.2611500e+02	   1.6177827e+00	   6.4776588e-01	
   1.2617000e+02	   1.6154363e+00	   6.4423687e-01	
   1.2622500e+02	   1.6126188e+00	   6.4064784e-01	
   1.2628000e+02	   1.6090745e+00	   6.3702960e-01	
   1.2633500e+02	   1.6045229e+00	   6.3339779e-01	
   1.2639000e+02	   1.5986787e+00	   6.2975935e-01	
   1.2644500e+02	   1.5912686e+00	   6.2611968e-01	
   1.2650000e+02	   1.5820439e+00	   6.2248733e-01	
   1.2655500e+02	   1.5707890e+00	   6.1887361e-01	
   1.2661000e+02	   1.5573262e+00	   6.1528690e-01	
   1.2666500e+02	   1.5415167e+00	   6.1172356e-01	
   1.2672000e+02	   1.5232586e+00	   6.0815805e-01	
   1.2677500e+02	   1.5024845e+00	   6.0453502e-01	
   1.2683000e+02	   1.4791608e+00	   6.0076489e-01	
