
0   2   1   4	
   0.0000000e+00	   2.7582739e-02	   2.3624821e-01	   7.3304094e-02	
   5.5000000e-02	   4.1383531e-02	   2.1880865e-01	   7.1867669e-02	
   1.1000000e-01	   5.3546696e-02	   2.0061718e-01	   6.8746834e-02	
   1.6500000e-01	   6.4126803e-02	   1.8233401e-01	   6.4240917e-02	
   2.2000000e-01	   7.3189560e-02	   1.6460251e-01	   5.8638739e-02	
   2.7500000e-01	   8.0802670e-02	   1.4802035e-01	   5.2202204e-02	
   3.3000000e-01	   8.7030065e-02	   1.3311653e-01	   4.5161064e-02	
   3.8500000e-01	   9.1931053e-02	   1.2033629e-01	   3.7717905e-02	
   4.4000000e-01	   9.5564484e-02	   1.1003387e-01	   3.0059617e-02	
   4.9500000e-01	   9.7996767e-02	   1.0247146e-01	   2.2371288e-02	
   5.5000000e-01	   9.9311222e-02	   9.7821204e-02	   1.4848566e-02	
   6.0500000e-01	   9.9614958e-02	   9.6166789e-02	   7.7042385e-03	
   6.6000000e-01	   9.9040288e-02	   9.7503279e-02	   1.1660666e-03	
   7.1500000e-01	   9.7740255e-02	   1.0173658e-01	  -4.5339761e-03	
   7.7000000e-01	   9.5879650e-02	   1.0868604e-01	  -9.1758107e-03	
   8.2500000e-01	   9.3623110e-02	   1.1809194e-01	  -1.2568477e-02	
   8.8000000e-01	   9.1121965e-02	   1.2962651e-01	  -1.4565542e-02	
   9.3500000e-01	   8.8502435e-02	   1.4290647e-01	  -1.5076949e-02	
   9.9000000e-01	   8.5858577e-02	   1.5750707e-01	  -1.4074966e-02	
   1.0450000e+00	   8.3252512e-02	   1.7297975e-01	  -1.1591797e-02	
   1.1000000e+00	   8.0721256e-02	   1.8887329e-01	  -7.7091321e-03	
   1.1550000e+00	   7.8286741e-02	   2.0475525e-01	  -2.5431180e-03	
   1.2100000e+00	   7.5965647e-02	   2.2023019e-01	   3.7712393e-03	
   1.2650000e+00	   7.3776896e-02	   2.3495304e-01	   1.1092984e-02	
   1.3200000e+00	   7.1745002e-02	   2.4863711e-01	   1.9282607e-02	
   1.3750000e+00	   6.9898402e-02	   2.6105609e-01	   2.8202665e-02	
   1.4300000e+00	   6.8263715e-02	   2.7204039e-01	   3.7713359e-02	
   1.4850000e+00	   6.6857974e-02	   2.8146971e-01	   4.7666867e-02	
   1.5400000e+00	   6.5681033e-02	   2.8926404e-01	   5.7904051e-02	
   1.5950000e+00	   6.4710696e-02	   2.9537645e-01	   6.8256181e-02	
   1.6500000e+00	   6.3903332e-02	   2.9979110e-01	   7.8552800e-02	
   1.7050000e+00	   6.3201019e-02	   3.0252700e-01	   8.8634582e-02	
   1.7600000e+00	   6.2542997e-02	   3.0364339e-01	   9.8368110e-02	
   1.8150000e+00	   6.1877067e-02	   3.0324166e-01	   1.0765908e-01	
   1.8700000e+00	   6.1167289e-02	   3.0146280e-01	   1.1646127e-01	
   1.9250000e+00	   6.0396441e-02	   2.9848187e-01	   1.2477923e-01	
   1.9800000e+00	   5.9563569e-02	   2.9450088e-01	   1.3266350e-01	
   2.0350000e+00	   5.8677677e-02	   2.8973897e-01	   1.4019903e-01	
   2.0900000e+00	   5.7748815e-02	   2.8441865e-01	   1.4748954e-01	
   2.1450000e+00	   5.6777976e-02	   2.7874950e-01	   1.5464047e-01	
   2.2000000e+00	   5.5747225e-02	   2.7291266e-01	   1.6174307e-01	
   2.2550000e+00	   5.4611696e-02	   2.6705009e-01	   1.6886173e-01	
   2.3100000e+00	   5.3295936e-02	   2.6126163e-01	   1.7602756e-01	
   2.3650000e+00	   5.1696773e-02	   2.5561039e-01	   1.8324013e-01	
   2.4200000e+00	   4.9691844e-02	   2.5013464e-01	   1.9047644e-01	
   2.4750000e+00	   4.7149830e-02	   2.4486191e-01	   1.9770280e-01	
   2.5300000e+00	   4.3938717e-02	   2.3982116e-01	   2.0488500e-01	
   2.5850000e+00	   3.9930965e-02	   2.3504964e-01	   2.1199440e-01	
   2.6400000e+00	   3.5006102e-02	   2.3059253e-01	   2.1900926e-01	
   2.6950000e+00	   2.9051407e-02	   2.2649636e-01	   2.2591067e-01	
   2.7500000e+00	   2.1961407e-02	   2.2279952e-01	   2.3267270e-01	
   2.8050000e+00	   1.3637287e-02	   2.1952305e-01	   2.3924939e-01	
   2.8600000e+00	   3.9873814e-03	   2.1666383e-01	   2.4556362e-01	
   2.9150000e+00	  -7.0700176e-03	   2.1419129e-01	   2.5150272e-01	
   2.9700000e+00	  -1.9600535e-02	   2.1204794e-01	   2.5692287e-01	
   3.0250000e+00	  -3.3644862e-02	   2.1015384e-01	   2.6166095e-01	
   3.0800000e+00	  -4.9210208e-02	   2.0841416e-01	   2.6554982e-01	
   3.1350000e+00	  -6.6265601e-02	   2.0672741e-01	   2.6843195e-01	
   3.1900000e+00	  -8.4742858e-02	   2.0499107e-01	   2.7016844e-01	
   3.2450000e+00	  -1.0454303e-01	   2.0310339e-01	   2.7064295e-01	
   3.3000000e+00	  -1.2554686e-01	   2.0096208e-01	   2.6976126e-01	
   3.3550000e+00	  -1.4762716e-01	   1.9846100e-01	   2.6744716e-01	
   3.4100000e+00	  -1.7066043e-01	   1.9548637e-01	   2.6363684e-01	
   3.4650000e+00	  -1.9453519e-01	   1.9191534e-01	   2.5827484e-01	
   3.5200000e+00	  -2.1915515e-01	   1.8761950e-01	   2.5131403e-01	
   3.5750000e+00	  -2.4443760e-01	   1.8247360e-01	   2.4271932e-01	
   3.6300000e+00	  -2.7030902e-01	   1.7636665e-01	   2.3247346e-01	
   3.6850000e+00	  -2.9669982e-01	   1.6921144e-01	   2.2058358e-01	
   3.7400000e+00	  -3.2353965e-01	   1.6094913e-01	   2.0708798e-01	
   3.7950000e+00	  -3.5075443e-01	   1.5154850e-01	   1.9206209e-01	
   3.8500000e+00	  -3.7826631e-01	   1.4100021e-01	   1.7562143e-01	
   3.9050000e+00	  -4.0599664e-01	   1.2930736e-01	   1.5792006e-01	
   3.9600000e+00	  -4.3387107e-01	   1.1647350e-01	   1.3914461e-01	
   4.0150000e+00	  -4.6182504e-01	   1.0249014e-01	   1.1950476e-01	
   4.0700000e+00	  -4.8980662e-01	   8.7328171e-02	   9.9221065e-02	
   4.1250000e+00	  -5.1777397e-01	   7.0937707e-02	   7.8514076e-02	
   4.1800000e+00	  -5.4568693e-01	   5.3257134e-02	   5.7598472e-02	
   4.2350000e+00	  -5.7349576e-01	   3.4227545e-02	   3.6682838e-02	
   4.2900000e+00	  -6.0113132e-01	   1.3807189e-02	   1.5972113e-02	
   4.3450000e+00	  -6.2849968e-01	  -8.0178527e-03	  -4.3305018e-03	
   4.4000000e+00	  -6.5548179e-01	  -3.1228260e-02	  -2.4024581e-02	
   4.4550000e+00	  -6.8193789e-01	  -5.5770737e-02	  -4.2918128e-02	
   4.5100000e+00	  -7.0771585e-01	  -8.1560333e-02	  -6.0838184e-02	
   4.5650000e+00	  -7.3266153e-01	  -1.0848429e-01	  -7.7645280e-02	
   4.6200000e+00	  -7.5662908e-01	  -1.3640579e-01	  -9.3249068e-02	
   4.6750000e+00	  -7.7948920e-01	  -1.6516556e-01	  -1.0762082e-01	
   4.7300000e+00	  -8.0113410e-01	  -1.9458028e-01	  -1.2079838e-01	
   4.7850000e+00	  -8.2147823e-01	  -2.2443819e-01	  -1.3288131e-01	
   4.8400000e+00	  -8.4045514e-01	  -2.5449371e-01	  -1.4401738e-01	
   4.8950000e+00	  -8.5801261e-01	  -2.8446349e-01	  -1.5438415e-01	
   4.9500000e+00	  -8.7410835e-01	  -3.1402749e-01	  -1.6417094e-01	
   5.0050000e+00	  -8.8870773e-01	  -3.4283626e-01	  -1.7356370e-01	
   5.0600000e+00	  -9.0178269e-01	  -3.7052337e-01	  -1.8273371e-01	
   5.1150000e+00	  -9.1331142e-01	  -3.9672111e-01	  -1.9183013e-01	
   5.1700000e+00	  -9.2327909e-01	  -4.2107846e-01	  -2.0097678e-01	
   5.2250000e+00	  -9.3167899e-01	  -4.4327878e-01	  -2.1027190e-01	
   5.2800000e+00	  -9.3851169e-01	  -4.6305341e-01	  -2.1978808e-01	
   5.3350000e+00	  -9.4378057e-01	  -4.8018849e-01	  -2.2956960e-01	
   5.3900000e+00	  -9.4748495e-01	  -4.9452618e-01	  -2.3962594e-01	
   5.4450000e+00	  -9.4961387e-01	  -5.0596279e-01	  -2.4992306e-01	
   5.5000000e+00	  -9.5014314e-01	  -5.1444568e-01	  -2.6037591e-01	
   5.5550000e+00	  -9.4903635e-01	  -5.1996967e-01	  -2.7084568e-01	
   5.6100000e+00	  -9.4625023e-01	  -5.2257555e-01	  -2.8114368e-01	
   5.6650000e+00	  -9.4174459e-01	  -5.2235360e-01	  -2.9104203e-01	
   5.7200000e+00	  -9.3549545e-01	  -5.1945113e-01	  -3.0029004e-01	
   5.7750000e+00	  -9.2750890e-01	  -5.1407849e-01	  -3.0863369e-01	
   5.8300000e+00	  -9.1783190e-01	  -5.0650842e-01	  -3.1583545e-01	
   5.8850000e+00	  -9.0655681e-01	  -4.9706703e-01	  -3.2169071e-01	
   5.9400000e+00	  -8.9381773e-01	  -4.8611779e-01	  -3.2603773e-01	
   5.9950000e+00	  -8.7977954e-01	  -4.7404064e-01	  -3.2875978e-01	
   6.0500000e+00	  -8.6462356e-01	  -4.6120969e-01	  -3.2978098e-01	
   6.1050000e+00	  -8.4853500e-01	  -4.4797351e-01	  -3.2905955e-01	
   6.1600000e+00	  -8.3169578e-01	  -4.3464133e-01	  -3.2658284e-01	
   6.2150000e+00	  -8.1428282e-01	  -4.2147784e-01	  -3.2236670e-01	
   6.2700000e+00	  -7.9647043e-01	  -4.0870711e-01	  -3.1645916e-01	
   6.3250000e+00	  -7.7843535e-01	  -3.9652280e-01	  -3.0894682e-01	
   6.3800000e+00	  -7.6036263e-01	  -3.8509998e-01	  -2.9996144e-01	
   6.4350000e+00	  -7.4244922e-01	  -3.7460475e-01	  -2.8968302e-01	
   6.4900000e+00	  -7.2490206e-01	  -3.6519874e-01	  -2.7833570e-01	
   6.5450000e+00	  -7.0793006e-01	  -3.5703785e-01	  -2.6617631e-01	
   6.6000000e+00	  -6.9173168e-01	  -3.5026492e-01	  -2.5347884e-01	
   6.6550000e+00	  -6.7648192e-01	  -3.4499776e-01	  -2.4051864e-01	
   6.7100000e+00	  -6.6232253e-01	  -3.4131588e-01	  -2.2755820e-01	
   6.7650000e+00	  -6.4935738e-01	  -3.3925074e-01	  -2.1483557e-01	
   6.8200000e+00	  -6.3765402e-01	  -3.3878338e-01	  -2.0255734e-01	
   6.8750000e+00	  -6.2725076e-01	  -3.3984973e-01	  -1.9089694e-01	
   6.9300000e+00	  -6.1816718e-01	  -3.4235139e-01	  -1.7999717e-01	
   6.9850000e+00	  -6.1041450e-01	  -3.4616935e-01	  -1.6997488e-01	
   7.0400000e+00	  -6.0400209e-01	  -3.5117818e-01	  -1.6092659e-01	
   7.0950000e+00	  -5.9893744e-01	  -3.5725680e-01	  -1.5293305e-01	
   7.1500000e+00	  -5.9521910e-01	  -3.6429231e-01	  -1.4606001e-01	
   7.2050000e+00	  -5.9282533e-01	  -3.7217716e-01	  -1.4035450e-01	
   7.2600000e+00	  -5.9170364e-01	  -3.8080317e-01	  -1.3583870e-01	
   7.3150000e+00	  -5.9176503e-01	  -3.9005644e-01	  -1.3250362e-01	
   7.3700000e+00	  -5.9288400e-01	  -3.9981536e-01	  -1.3030463e-01	
   7.4250000e+00	  -5.9490408e-01	  -4.0995161e-01	  -1.2916057e-01	
   7.4800000e+00	  -5.9764855e-01	  -4.2033330e-01	  -1.2895743e-01	
   7.5350000e+00	  -6.0093522e-01	  -4.3082977e-01	  -1.2955578e-01	
   7.5900000e+00	  -6.0459256e-01	  -4.4131848e-01	  -1.3080124e-01	
   7.6450000e+00	  -6.0847470e-01	  -4.5169376e-01	  -1.3253936e-01	
   7.7000000e+00	  -6.1247236e-01	  -4.6187601e-01	  -1.3463378e-01	
   7.7550000e+00	  -6.1651666e-01	  -4.7181756e-01	  -1.3698220e-01	
   7.8100000e+00	  -6.2057381e-01	  -4.8150138e-01	  -1.3952369e-01	
   7.8650000e+00	  -6.2463236e-01	  -4.9093113e-01	  -1.4223607e-01	
   7.9200000e+00	  -6.2868816e-01	  -5.0011694e-01	  -1.4512697e-01	
   7.9750000e+00	  -6.3273234e-01	  -5.0906291e-01	  -1.4822347e-01	
   8.0300000e+00	  -6.3674464e-01	  -5.1775981e-01	  -1.5156238e-01	
   8.0850000e+00	  -6.4069171e-01	  -5.2618269e-01	  -1.5518180e-01	
   8.1400000e+00	  -6.4452919e-01	  -5.3429281e-01	  -1.5911443e-01	
   8.1950000e+00	  -6.4820599e-01	  -5.4204314e-01	  -1.6338396e-01	
   8.2500000e+00	  -6.5166907e-01	  -5.4938588e-01	  -1.6800468e-01	
   8.3050000e+00	  -6.5486720e-01	  -5.5628055e-01	  -1.7298334e-01	
   8.3600000e+00	  -6.5775237e-01	  -5.6270136e-01	  -1.7832022e-01	
   8.4150000e+00	  -6.6027799e-01	  -5.6864226e-01	  -1.8400646e-01	
   8.4700000e+00	  -6.6239355e-01	  -5.7411826e-01	  -1.9001673e-01	
   8.5250000e+00	  -6.6403756e-01	  -5.7916254e-01	  -1.9629910e-01	
   8.5800000e+00	  -6.6513250e-01	  -5.8382048e-01	  -2.0276622e-01	
   8.6350000e+00	  -6.6558424e-01	  -5.8814242e-01	  -2.0929162e-01	
   8.6900000e+00	  -6.6528626e-01	  -5.9217673e-01	  -2.1571224e-01	
   8.7450000e+00	  -6.6412810e-01	  -5.9596432e-01	  -2.2183613e-01	
   8.8000000e+00	  -6.6200672e-01	  -5.9953579e-01	  -2.2745318e-01	
   8.8550000e+00	  -6.5883913e-01	  -6.0291249e-01	  -2.3234784e-01	
   8.9100000e+00	  -6.5457463e-01	  -6.0611097e-01	  -2.3631383e-01	
   8.9650000e+00	  -6.4920475e-01	  -6.0914825e-01	  -2.3916934e-01	
   9.0200000e+00	  -6.4276860e-01	  -6.1204476e-01	  -2.4077048e-01	
   9.0750000e+00	  -6.3535205e-01	  -6.1482332e-01	  -2.4102007e-01	
   9.1300000e+00	  -6.2708077e-01	  -6.1750489e-01	  -2.3987101e-01	
   9.1850000e+00	  -6.1810899e-01	  -6.2010278e-01	  -2.3732521e-01	
   9.2400000e+00	  -6.0860698e-01	  -6.2261772e-01	  -2.3343014e-01	
   9.2950000e+00	  -5.9874975e-01	  -6.2503572e-01	  -2.2827476e-01	
   9.3500000e+00	  -5.8870948e-01	  -6.2732984e-01	  -2.2198568e-01	
   9.4050000e+00	  -5.7865192e-01	  -6.2946520e-01	  -2.1472291e-01	
   9.4600000e+00	  -5.6873675e-01	  -6.3140598e-01	  -2.0667500e-01	
   9.5150000e+00	  -5.5912051e-01	  -6.3312309e-01	  -1.9805383e-01	
   9.5700000e+00	  -5.4995938e-01	  -6.3459969e-01	  -1.8908936e-01	
   9.6250000e+00	  -5.4140862e-01	  -6.3583086e-01	  -1.8002296e-01	
   9.6800000e+00	  -5.3361675e-01	  -6.3681617e-01	  -1.7109796e-01	
   9.7350000e+00	  -5.2671577e-01	  -6.3754826e-01	  -1.6254887e-01	
   9.7900000e+00	  -5.2081061e-01	  -6.3800334e-01	  -1.5459122e-01	
   9.8450000e+00	  -5.1597133e-01	  -6.3813742e-01	  -1.4741298e-01	
   9.9000000e+00	  -5.1222914e-01	  -6.3788923e-01	  -1.4116761e-01	
   9.9550000e+00	  -5.0957648e-01	  -6.3718868e-01	  -1.3596925e-01	
   1.0010000e+01	  -5.0797125e-01	  -6.3596784e-01	  -1.3189117e-01	
   1.0065000e+01	  -5.0734571e-01	  -6.3417072e-01	  -1.2896784e-01	
   1.0120000e+01	  -5.0761855e-01	  -6.3175960e-01	  -1.2720122e-01	
   1.0175000e+01	  -5.0870767e-01	  -6.2871765e-01	  -1.2657063e-01	
   1.0230000e+01	  -5.1054063e-01	  -6.2504881e-01	  -1.2704461e-01	
   1.0285000e+01	  -5.1305968e-01	  -6.2077473e-01	  -1.2859068e-01	
   1.0340000e+01	  -5.1621963e-01	  -6.1592789e-01	  -1.3117918e-01	
   1.0395000e+01	  -5.1998006e-01	  -6.1054129e-01	  -1.3477959e-01	
   1.0450000e+01	  -5.2429674e-01	  -6.0463834e-01	  -1.3935273e-01	
   1.0505000e+01	  -5.2911632e-01	  -5.9822730e-01	  -1.4484330e-01	
   1.0560000e+01	  -5.3437524e-01	  -5.9130239e-01	  -1.5117524e-01	
   1.0615000e+01	  -5.4000241e-01	  -5.8385102e-01	  -1.5825135e-01	
   1.0670000e+01	  -5.4592566e-01	  -5.7586535e-01	  -1.6595824e-01	
   1.0725000e+01	  -5.5208099e-01	  -5.6735634e-01	  -1.7417613e-01	
   1.0780000e+01	  -5.5842279e-01	  -5.5836789e-01	  -1.8279033e-01	
   1.0835000e+01	  -5.6493200e-01	  -5.4898868e-01	  -1.9170119e-01	
   1.0890000e+01	  -5.7161977e-01	  -5.3935825e-01	  -2.0083090e-01	
   1.0945000e+01	  -5.7852550e-01	  -5.2966426e-01	  -2.1012558e-01	
   1.1000000e+01	  -5.8570902e-01	  -5.2012901e-01	  -2.1955042e-01	
   1.1055000e+01	  -5.9323828e-01	  -5.1098750e-01	  -2.2907752e-01	
   1.1110000e+01	  -6.0117530e-01	  -5.0246295e-01	  -2.3867094e-01	
   1.1165000e+01	  -6.0956421e-01	  -4.9474664e-01	  -2.4827539e-01	
   1.1220000e+01	  -6.1842352e-01	  -4.8798652e-01	  -2.5781218e-01	
   1.1275000e+01	  -6.2774387e-01	  -4.8228541e-01	  -2.6718167e-01	
   1.1330000e+01	  -6.3749099e-01	  -4.7770692e-01	  -2.7627017e-01	
   1.1385000e+01	  -6.4761311e-01	  -4.7428553e-01	  -2.8495963e-01	
   1.1440000e+01	  -6.5805066e-01	  -4.7203693e-01	  -2.9313883e-01	
   1.1495000e+01	  -6.6874654e-01	  -4.7096616e-01	  -3.0071524e-01	
   1.1550000e+01	  -6.7965524e-01	  -4.7107435e-01	  -3.0762610e-01	
   1.1605000e+01	  -6.9074979e-01	  -4.7236455e-01	  -3.1384612e-01	
   1.1660000e+01	  -7.0202407e-01	  -4.7484416e-01	  -3.1938795e-01	
   1.1715000e+01	  -7.1348891e-01	  -4.7852099e-01	  -3.2429450e-01	
   1.1770000e+01	  -7.2516273e-01	  -4.8339328e-01	  -3.2862608e-01	
   1.1825000e+01	  -7.3705966e-01	  -4.8943659e-01	  -3.3244732e-01	
   1.1880000e+01	  -7.4917809e-01	  -4.9658987e-01	  -3.3581688e-01	
   1.1935000e+01	  -7.6149221e-01	  -5.0474415e-01	  -3.3878029e-01	
   1.1990000e+01	  -7.7394821e-01	  -5.1373808e-01	  -3.4136621e-01	
   1.2045000e+01	  -7.8646604e-01	  -5.2336339e-01	  -3.4358724e-01	
   1.2100000e+01	  -7.9894620e-01	  -5.3337902e-01	  -3.4544516e-01	
   1.2155000e+01	  -8.1127958e-01	  -5.4352954e-01	  -3.4693962e-01	
   1.2210000e+01	  -8.2335815e-01	  -5.5356417e-01	  -3.4807809e-01	
   1.2265000e+01	  -8.3508319e-01	  -5.6325283e-01	  -3.4888472e-01	
   1.2320000e+01	  -8.4636873e-01	  -5.7239610e-01	  -3.4940530e-01	
   1.2375000e+01	  -8.5713907e-01	  -5.8082727e-01	  -3.4970677e-01	
   1.2430000e+01	  -8.6732213e-01	  -5.8840845e-01	  -3.4987105e-01	
   1.2485000e+01	  -8.7684184e-01	  -5.9502538e-01	  -3.4998532e-01	
   1.2540000e+01	  -8.8561242e-01	  -6.0058518e-01	  -3.5013230e-01	
   1.2595000e+01	  -8.9353605e-01	  -6.0501747e-01	  -3.5038331e-01	
   1.2650000e+01	  -9.0050410e-01	  -6.0827742e-01	  -3.5079465e-01	
   1.2705000e+01	  -9.0640194e-01	  -6.1034844e-01	  -3.5140675e-01	
   1.2760000e+01	  -9.1111738e-01	  -6.1124320e-01	  -3.5224511e-01	
   1.2815000e+01	  -9.1455126e-01	  -6.1100203e-01	  -3.5332194e-01	
   1.2870000e+01	  -9.1662790e-01	  -6.0968805e-01	  -3.5463754e-01	
   1.2925000e+01	  -9.1730305e-01	  -6.0737924e-01	  -3.5618000e-01	
   1.2980000e+01	  -9.1656715e-01	  -6.0415789e-01	  -3.5792232e-01	
   1.3035000e+01	  -9.1444322e-01	  -6.0009831e-01	  -3.5981736e-01	
   1.3090000e+01	  -9.1098073e-01	  -5.9525633e-01	  -3.6179261e-01	
   1.3145000e+01	  -9.0624813e-01	  -5.8966462e-01	  -3.6374689e-01	
   1.3200000e+01	  -9.0032640e-01	  -5.8333569e-01	  -3.6554989e-01	
   1.3255000e+01	  -8.9330486e-01	  -5.7627033e-01	  -3.6704491e-01	
   1.3310000e+01	  -8.8527980e-01	  -5.6846833e-01	  -3.6805528e-01	
   1.3365000e+01	  -8.7635547e-01	  -5.5993843e-01	  -3.6839471e-01	
   1.3420000e+01	  -8.6664566e-01	  -5.5070576e-01	  -3.6788075e-01	
   1.3475000e+01	  -8.5627374e-01	  -5.4081524e-01	  -3.6634817e-01	
   1.3530000e+01	  -8.4536955e-01	  -5.3033003e-01	  -3.6365818e-01	
   1.3585000e+01	  -8.3406218e-01	  -5.1932462e-01	  -3.5970136e-01	
   1.3640000e+01	  -8.2246930e-01	  -5.0787370e-01	  -3.5439541e-01	
   1.3695000e+01	  -8.1068494e-01	  -4.9603874e-01	  -3.4768003e-01	
   1.3750000e+01	  -7.9876870e-01	  -4.8385467e-01	  -3.3951131e-01	
   1.3805000e+01	  -7.8673886e-01	  -4.7131982e-01	  -3.2985872e-01	
   1.3860000e+01	  -7.7457096e-01	  -4.5839162e-01	  -3.1870640e-01	
   1.3915000e+01	  -7.6220145e-01	  -4.4498952e-01	  -3.0605825e-01	
   1.3970000e+01	  -7.4953476e-01	  -4.3100433e-01	  -2.9194420e-01	
   1.4025000e+01	  -7.3645248e-01	  -4.1631282e-01	  -2.7642471e-01	
   1.4080000e+01	  -7.2282304e-01	  -4.0079517e-01	  -2.5959097e-01	
   1.4135000e+01	  -7.0850939e-01	  -3.8435102e-01	  -2.4155978e-01	
   1.4190000e+01	  -6.9337182e-01	  -3.6690794e-01	  -2.2246352e-01	
   1.4245000e+01	  -6.7726443e-01	  -3.4841919e-01	  -2.0243625e-01	
   1.4300000e+01	  -6.6002803e-01	  -3.2885317e-01	  -1.8159863e-01	
   1.4355000e+01	  -6.4148410e-01	  -3.0817987e-01	  -1.6004462e-01	
   1.4410000e+01	  -6.2143347e-01	  -2.8635834e-01	  -1.3783246e-01	
   1.4465000e+01	  -5.9966072e-01	  -2.6332884e-01	  -1.1498081e-01	
   1.4520000e+01	  -5.7594412e-01	  -2.3901291e-01	  -9.1470821e-02	
   1.4575000e+01	  -5.5007039e-01	  -2.1332220e-01	  -6.7253624e-02	
   1.4630000e+01	  -5.2185252e-01	  -1.8617368e-01	  -4.2261660e-02	
   1.4685000e+01	  -4.9114808e-01	  -1.5750799e-01	  -1.6422221e-02	
   1.4740000e+01	  -4.5787575e-01	  -1.2730866e-01	   1.0327542e-02	
   1.4795000e+01	  -4.2202728e-01	  -9.5618020e-02	   3.8026086e-02	
   1.4850000e+01	  -3.8367214e-01	  -6.2543081e-02	   6.6677623e-02	
   1.4905000e+01	  -3.4295335e-01	  -2.8246918e-02	   9.6250848e-02	
   1.4960000e+01	  -3.0007629e-01	   7.0707150e-03	   1.2668578e-01	
   1.5015000e+01	  -2.5529514e-01	   4.3194503e-02	   1.5790357e-01	
   1.5070000e+01	  -2.0890058e-01	   7.9908820e-02	   1.8981369e-01	
   1.5125000e+01	  -1.6121011e-01	   1.1700423e-01	   2.2231609e-01	
   1.5180000e+01	  -1.1256168e-01	   1.5427549e-01	   2.5529788e-01	
   1.5235000e+01	  -6.3310181e-02	   1.9151350e-01	   2.8862559e-01	
   1.5290000e+01	  -1.3825786e-02	   2.2849503e-01	   3.2213531e-01	
   1.5345000e+01	   3.5507721e-02	   2.6497354e-01	   3.5562412e-01	
   1.5400000e+01	   8.4295529e-02	   3.0067266e-01	   3.8884545e-01	
   1.5455000e+01	   1.3213558e-01	   3.3528363e-01	   4.2150903e-01	
   1.5510000e+01	   1.7862397e-01	   3.6846863e-01	   4.5328607e-01	
   1.5565000e+01	   2.2336317e-01	   3.9987120e-01	   4.8382049e-01	
   1.5620000e+01	   2.6597366e-01	   4.2913394e-01	   5.1274694e-01	
   1.5675000e+01	   3.0610807e-01	   4.5592059e-01	   5.3971340e-01	
   1.5730000e+01	   3.4346477e-01	   4.7993763e-01	   5.6440467e-01	
   1.5785000e+01	   3.7779824e-01	   5.0095036e-01	   5.8656258e-01	
   1.5840000e+01	   4.0892448e-01	   5.1879165e-01	   6.0599940e-01	
   1.5895000e+01	   4.3672087e-01	   5.3336279e-01	   6.2260219e-01	
   1.5950000e+01	   4.6112098e-01	   5.4462777e-01	   6.3632725e-01	
   1.6005000e+01	   4.8210641e-01	   5.5260328e-01	   6.4718753e-01	
   1.6060000e+01	   4.9969684e-01	   5.5734661e-01	   6.5523751e-01	
   1.6115000e+01	   5.1393910e-01	   5.5894290e-01	   6.6055966e-01	
   1.6170000e+01	   5.2489700e-01	   5.5749375e-01	   6.6325424e-01	
   1.6225000e+01	   5.3264540e-01	   5.5310999e-01	   6.6343249e-01	
   1.6280000e+01	   5.3727116e-01	   5.4591115e-01	   6.6121337e-01	
   1.6335000e+01	   5.3888024e-01	   5.3603123e-01	   6.5672416e-01	
   1.6390000e+01	   5.3760672e-01	   5.2362789e-01	   6.5010434e-01	
   1.6445000e+01	   5.3361966e-01	   5.0889121e-01	   6.4151050e-01	
   1.6500000e+01	   5.2712567e-01	   4.9204844e-01	   6.3112089e-01	
   1.6555000e+01	   5.1836611e-01	   4.7336210e-01	   6.1913755e-01	
   1.6610000e+01	   5.0760910e-01	   4.5312153e-01	   6.0578429e-01	
   1.6665000e+01	   4.9513768e-01	   4.3163064e-01	   5.9130007e-01	
   1.6720000e+01	   4.8123662e-01	   4.0919433e-01	   5.7592851e-01	
   1.6775000e+01	   4.6617955e-01	   3.8610493e-01	   5.5990576e-01	
   1.6830000e+01	   4.5021781e-01	   3.6263008e-01	   5.4344951e-01	
   1.6885000e+01	   4.3357268e-01	   3.3900474e-01	   5.2675090e-01	
   1.6940000e+01	   4.1643304e-01	   3.1543001e-01	   5.0997040e-01	
   1.6995000e+01	   3.9895986e-01	   2.9207931e-01	   4.9323888e-01	
   1.7050000e+01	   3.8129667e-01	   2.6910884e-01	   4.7666397e-01	
   1.7105000e+01	   3.6358200e-01	   2.4666760e-01	   4.6034034e-01	
   1.7160000e+01	   3.4595966e-01	   2.2490390e-01	   4.4436041e-01	
   1.7215000e+01	   3.2858429e-01	   2.0396805e-01	   4.2882225e-01	
   1.7270000e+01	   3.1162224e-01	   1.8401082e-01	   4.1383133e-01	
   1.7325000e+01	   2.9524785e-01	   1.6517682e-01	   3.9949531e-01	
   1.7380000e+01	   2.7963543e-01	   1.4759245e-01	   3.8591369e-01	
   1.7435000e+01	   2.6494787e-01	   1.3134999e-01	   3.7316557e-01	
   1.7490000e+01	   2.5132345e-01	   1.1649125e-01	   3.6129737e-01	
   1.7545000e+01	   2.3886362e-01	   1.0299570e-01	   3.5031240e-01	
   1.7600000e+01	   2.2762539e-01	   9.0777043e-02	   3.4016582e-01	
   1.7655000e+01	   2.1762185e-01	   7.9690401e-02	   3.3076821e-01	
   1.7710000e+01	   2.0883146e-01	   6.9549938e-02	   3.2199783e-01	
   1.7765000e+01	   2.0121332e-01	   6.0153934e-02	   3.1371778e-01	
   1.7820000e+01	   1.9472323e-01	   5.1311116e-02	   3.0579357e-01	
   1.7875000e+01	   1.8932621e-01	   4.2862506e-02	   2.9810683e-01	
   1.7930000e+01	   1.8500312e-01	   3.4696542e-02	   2.9056378e-01	
   1.7985000e+01	   1.8175105e-01	   2.6757291e-02	   2.8309927e-01	
   1.8040000e+01	   1.7957850e-01	   1.9044628e-02	   2.7567737e-01	
   1.8095000e+01	   1.7849652e-01	   1.1604581e-02	   2.6828835e-01	
   1.8150000e+01	   1.7850586e-01	   4.5099636e-03	   2.6094121e-01	
   1.8205000e+01	   1.7958120e-01	  -2.1652693e-03	   2.5365217e-01	
   1.8260000e+01	   1.8165576e-01	  -8.3718573e-03	   2.4643205e-01	
   1.8315000e+01	   1.8461031e-01	  -1.4104825e-02	   2.3927675e-01	
   1.8370000e+01	   1.8827037e-01	  -1.9412097e-02	   2.3216383e-01	
   1.8425000e+01	   1.9241316e-01	  -2.4389443e-02	   2.2505636e-01	
   1.8480000e+01	   1.9678399e-01	  -2.9162489e-02	   2.1791242e-01	
   1.8535000e+01	   2.0111826e-01	  -3.3861983e-02	   2.1069639e-01	
   1.8590000e+01	   2.0516353e-01	  -3.8601803e-02	   2.0338848e-01	
   1.8645000e+01	   2.0869734e-01	  -4.3465706e-02	   1.9599072e-01	
   1.8700000e+01	   2.1153939e-01	  -4.8502521e-02	   1.8852902e-01	
   1.8755000e+01	   2.1355789e-01	  -5.3727376e-02	   1.8105018e-01	
   1.8810000e+01	   2.1466936e-01	  -5.9128495e-02	   1.7361287e-01	
   1.8865000e+01	   2.1483194e-01	  -6.4679255e-02	   1.6627398e-01	
   1.8920000e+01	   2.1403433e-01	  -7.0352984e-02	   1.5907408e-01	
   1.8975000e+01	   2.1228329e-01	  -7.6137339e-02	   1.5202577e-01	
   1.9030000e+01	   2.0959245e-01	  -8.2045889e-02	   1.4510601e-01	
   1.9085000e+01	   2.0597551e-01	  -8.8123767e-02	   1.3825319e-01	
   1.9140000e+01	   2.0144645e-01	  -9.4443540e-02	   1.3137098e-01	
   1.9195000e+01	   1.9602704e-01	  -1.0109089e-01	   1.2434054e-01	
   1.9250000e+01	   1.8975822e-01	  -1.0814516e-01	   1.1703893e-01	
   1.9305000e+01	   1.8270997e-01	  -1.1566148e-01	   1.0935766e-01	
   1.9360000e+01	   1.7498587e-01	  -1.2365879e-01	   1.0121615e-01	
   1.9415000e+01	   1.6672119e-01	  -1.3211645e-01	   9.2568441e-02	
   1.9470000e+01	   1.5807528e-01	  -1.4097982e-01	   8.3404185e-02	
   1.9525000e+01	   1.4921984e-01	  -1.5017276e-01	   7.3745208e-02	
   1.9580000e+01	   1.4032495e-01	  -1.5961233e-01	   6.3638273e-02	
   1.9635000e+01	   1.3154489e-01	  -1.6922174e-01	   5.3144806e-02	
   1.9690000e+01	   1.2300545e-01	  -1.7894016e-01	   4.2328802e-02	
   1.9745000e+01	   1.1479445e-01	  -1.8872881e-01	   3.1245035e-02	
   1.9800000e+01	   1.0695784e-01	  -1.9857204e-01	   1.9930999e-02	
   1.9855000e+01	   9.9503526e-02	  -2.0847143e-01	   8.4061740e-03	
   1.9910000e+01	   9.2412460e-02	  -2.1843369e-01	  -3.3208029e-03	
   1.9965000e+01	   8.5653367e-02	  -2.2845682e-01	  -1.5240007e-02	
   2.0020000e+01	   7.9196962e-02	  -2.3851930e-01	  -2.7327058e-02	
   2.0075000e+01	   7.3027000e-02	  -2.4857404e-01	  -3.9531860e-02	
   2.0130000e+01	   6.7146549e-02	  -2.5854693e-01	  -5.1770911e-02	
   2.0185000e+01	   6.1578488e-02	  -2.6834028e-01	  -6.3923932e-02	
   2.0240000e+01	   5.6360491e-02	  -2.7784096e-01	  -7.5835517e-02	
   2.0295000e+01	   5.1536725e-02	  -2.8693201e-01	  -8.7322381e-02	
   2.0350000e+01	   4.7149165e-02	  -2.9550485e-01	  -9.8185105e-02	
   2.0405000e+01	   4.3230823e-02	  -3.0346816e-01	  -1.0822135e-01	
   2.0460000e+01	   3.9802883e-02	  -3.1074980e-01	  -1.1723712e-01	
   2.0515000e+01	   3.6877293e-02	  -3.1729037e-01	  -1.2505363e-01	
   2.0570000e+01	   3.4464368e-02	  -3.2303125e-01	  -1.3150912e-01	
   2.0625000e+01	   3.2582541e-02	  -3.2790352e-01	  -1.3645747e-01	
   2.0680000e+01	   3.1266839e-02	  -3.3182282e-01	  -1.3976702e-01	
   2.0735000e+01	   3.0573589e-02	  -3.3469029e-01	  -1.4132202e-01	
   2.0790000e+01	   3.0580202e-02	  -3.3639772e-01	  -1.4102758e-01	
   2.0845000e+01	   3.1380067e-02	  -3.3683611e-01	  -1.3881858e-01	
   2.0900000e+01	   3.3073532e-02	  -3.3590839e-01	  -1.3467212e-01	
   2.0955000e+01	   3.5756686e-02	  -3.3354537e-01	  -1.2862126e-01	
   2.1010000e+01	   3.9510358e-02	  -3.2972065e-01	  -1.2076514e-01	
   2.1065000e+01	   4.4392363e-02	  -3.2445873e-01	  -1.1127143e-01	
   2.1120000e+01	   5.0435741e-02	  -3.1783229e-01	  -1.0036939e-01	
   2.1175000e+01	   5.7653710e-02	  -3.0994908e-01	  -8.8334251e-02	
   2.1230000e+01	   6.6048980e-02	  -3.0093301e-01	  -7.5465407e-02	
   2.1285000e+01	   7.5622901e-02	  -2.9090626e-01	  -6.2063146e-02	
   2.1340000e+01	   8.6379934e-02	  -2.7997856e-01	  -4.8408917e-02	
   2.1395000e+01	   9.8324967e-02	  -2.6824438e-01	  -3.4752340e-02	
   2.1450000e+01	   1.1145432e-01	  -2.5578554e-01	  -2.1305892e-02	
   2.1505000e+01	   1.2574355e-01	  -2.4267631e-01	  -8.2462202e-03	
   2.1560000e+01	   1.4113542e-01	  -2.2899048e-01	   4.2800646e-03	
   2.1615000e+01	   1.5753085e-01	  -2.1480982e-01	   1.6148753e-02	
   2.1670000e+01	   1.7478532e-01	  -2.0023123e-01	   2.7252002e-02	
   2.1725000e+01	   1.9271270e-01	  -1.8536891e-01	   3.7497323e-02	
   2.1780000e+01	   2.1109700e-01	  -1.7035028e-01	   4.6812883e-02	
   2.1835000e+01	   2.2970959e-01	  -1.5530650e-01	   5.5157922e-02	
   2.1890000e+01	   2.4832793e-01	  -1.4036114e-01	   6.2535390e-02	
   2.1945000e+01	   2.6675107e-01	  -1.2562109e-01	   6.9002521e-02	
   2.2000000e+01	   2.8480857e-01	  -1.1117257e-01	   7.4674435e-02	
   2.2055000e+01	   3.0236122e-01	  -9.7082436e-02	   7.9718103e-02	
   2.2110000e+01	   3.1929420e-01	  -8.3402779e-02	   8.4337811e-02	
   2.2165000e+01	   3.3550588e-01	  -7.0177484e-02	   8.8755474e-02	
   2.2220000e+01	   3.5089586e-01	  -5.7451020e-02	   9.3189022e-02	
   2.2275000e+01	   3.6535471e-01	  -4.5280233e-02	   9.7830781e-02	
   2.2330000e+01	   3.7875616e-01	  -3.3747436e-02	   1.0282711e-01	
   2.2385000e+01	   3.9095251e-01	  -2.2970780e-02	   1.0826135e-01	
   2.2440000e+01	   4.0177517e-01	  -1.3107176e-02	   1.1414392e-01	
   2.2495000e+01	   4.1104259e-01	  -4.3443082e-03	   1.2041352e-01	
   2.2550000e+01	   4.1857556e-01	   3.1182709e-03	   1.2695058e-01	
   2.2605000e+01	   4.2421683e-01	   9.0947075e-03	   1.3359930e-01	
   2.2660000e+01	   4.2784916e-01	   1.3438901e-02	   1.4019113e-01	
   2.2715000e+01	   4.2940685e-01	   1.6065954e-02	   1.4656354e-01	
   2.2770000e+01	   4.2887867e-01	   1.6965617e-02	   1.5257141e-01	
   2.2825000e+01	   4.2630305e-01	   1.6205445e-02	   1.5809174e-01	
   2.2880000e+01	   4.2175728e-01	   1.3923415e-02	   1.6302286e-01	
   2.2935000e+01	   4.1534321e-01	   1.0312803e-02	   1.6727936e-01	
   2.2990000e+01	   4.0717203e-01	   5.6033640e-03	   1.7078435e-01	
   2.3045000e+01	   3.9735076e-01	   4.1607895e-05	   1.7346186e-01	
   2.3100000e+01	   3.8597226e-01	  -6.1283140e-03	   1.7523169e-01	
   2.3155000e+01	   3.7311023e-01	  -1.2681128e-02	   1.7600899e-01	
   2.3210000e+01	   3.5882139e-01	  -1.9421077e-02	   1.7571006e-01	
   2.3265000e+01	   3.4315545e-01	  -2.6183983e-02	   1.7426476e-01	
   2.3320000e+01	   3.2617088e-01	  -3.2831417e-02	   1.7163254e-01	
   2.3375000e+01	   3.0795093e-01	  -3.9240752e-02	   1.6781683e-01	
   2.3430000e+01	   2.8861481e-01	  -4.5295092e-02	   1.6287379e-01	
   2.3485000e+01	   2.6832091e-01	  -5.0876192e-02	   1.5691445e-01	
   2.3540000e+01	   2.4726197e-01	  -5.5862855e-02	   1.5010046e-01	
   2.3595000e+01	   2.2565276e-01	  -6.0136572e-02	   1.4263268e-01	
   2.3650000e+01	   2.0371226e-01	  -6.3594622e-02	   1.3473342e-01	
   2.3705000e+01	   1.8164333e-01	  -6.6168448e-02	   1.2662511e-01	
   2.3760000e+01	   1.5961372e-01	  -6.7842676e-02	   1.1850890e-01	
   2.3815000e+01	   1.3774125e-01	  -6.8669959e-02	   1.1054555e-01	
   2.3870000e+01	   1.1608529e-01	  -6.8778422e-02	   1.0284030e-01	
   2.3925000e+01	   9.4645973e-02	  -6.8369983e-02	   9.5434231e-02	
   2.3980000e+01	   7.3372267e-02	  -6.7708842e-02	   8.8304354e-02	
   2.4035000e+01	   5.2178143e-02	  -6.7101475e-02	   8.1373782e-02	
   2.4090000e+01	   3.0962997e-02	  -6.6871932e-02	   7.4529536e-02	
   2.4145000e+01	   9.6316469e-03	  -6.7337120e-02	   6.7642409e-02	
   2.4200000e+01	  -1.1889163e-02	  -6.8785556e-02	   6.0583378e-02	
   2.4255000e+01	  -3.3639138e-02	  -7.1461719e-02	   5.3233592e-02	
   2.4310000e+01	  -5.5618633e-02	  -7.5556986e-02	   4.5487430e-02	
   2.4365000e+01	  -7.7789000e-02	  -8.1206126e-02	   3.7250415e-02	
   2.4420000e+01	  -1.0007838e-01	  -8.8487300e-02	   2.8435094e-02	
   2.4475000e+01	  -1.2239166e-01	  -9.7425034e-02	   1.8956714e-02	
   2.4530000e+01	  -1.4462319e-01	  -1.0799731e-01	   8.7290641e-03	
   2.4585000e+01	  -1.6667011e-01	  -1.2014673e-01	  -2.3382906e-03	
   2.4640000e+01	  -1.8844389e-01	  -1.3379278e-01	  -1.4339254e-02	
   2.4695000e+01	  -2.0987749e-01	  -1.4884043e-01	  -2.7365697e-02	
   2.4750000e+01	  -2.3092664e-01	  -1.6518250e-01	  -4.1497248e-02	
   2.4805000e+01	  -2.5156505e-01	  -1.8269699e-01	  -5.6787336e-02	
   2.4860000e+01	  -2.7177527e-01	  -2.0124299e-01	  -7.3247675e-02	
   2.4915000e+01	  -2.9153847e-01	  -2.2065740e-01	  -9.0834697e-02	
   2.4970000e+01	  -3.1082711e-01	  -2.4075306e-01	  -1.0944175e-01	
   2.5025000e+01	  -3.2960232e-01	  -2.6131918e-01	  -1.2889960e-01	
   2.5080000e+01	  -3.4781621e-01	  -2.8212559e-01	  -1.4898560e-01	
   2.5135000e+01	  -3.6541793e-01	  -3.0293254e-01	  -1.6944065e-01	
   2.5190000e+01	  -3.8236242e-01	  -3.2350612e-01	  -1.8999266e-01	
   2.5245000e+01	  -3.9862025e-01	  -3.4363486e-01	  -2.1038323e-01	
   2.5300000e+01	  -4.1418582e-01	  -3.6314146e-01	  -2.3039117e-01	
   2.5355000e+01	  -4.2908126e-01	  -3.8188723e-01	  -2.4984732e-01	
   2.5410000e+01	  -4.4335404e-01	  -3.9977036e-01	  -2.6863902e-01	
   2.5465000e+01	  -4.5706866e-01	  -4.1671879e-01	  -2.8670492e-01	
   2.5520000e+01	  -4.7029484e-01	  -4.3267867e-01	  -3.0402195e-01	
   2.5575000e+01	  -4.8309621e-01	  -4.4760266e-01	  -3.2058807e-01	
   2.5630000e+01	  -4.9552344e-01	  -4.6144346e-01	  -3.3640658e-01	
   2.5685000e+01	  -5.0761288e-01	  -4.7415311e-01	  -3.5147586e-01	
   2.5740000e+01	  -5.1939003e-01	  -4.8568555e-01	  -3.6578545e-01	
   2.5795000e+01	  -5.3087702e-01	  -4.9600155e-01	  -3.7931793e-01	
   2.5850000e+01	  -5.4210344e-01	  -5.0507772e-01	  -3.9205685e-01	
   2.5905000e+01	  -5.5311855e-01	  -5.1291968e-01	  -4.0399960e-01	
   2.5960000e+01	  -5.6400121e-01	  -5.1957563e-01	  -4.1517136e-01	
   2.6015000e+01	  -5.7486393e-01	  -5.2514452e-01	  -4.2563430e-01	
   2.6070000e+01	  -5.8584909e-01	  -5.2977367e-01	  -4.3548864e-01	
   2.6125000e+01	  -5.9711715e-01	  -5.3364519e-01	  -4.4486494e-01	
   2.6180000e+01	  -6.0882952e-01	  -5.3695659e-01	  -4.5390952e-01	
   2.6235000e+01	  -6.2113021e-01	  -5.3990249e-01	  -4.6276671e-01	
   2.6290000e+01	  -6.3412986e-01	  -5.4266134e-01	  -4.7156277e-01	
   2.6345000e+01	  -6.4789450e-01	  -5.4538836e-01	  -4.8039524e-01	
   2.6400000e+01	  -6.6244001e-01	  -5.4821410e-01	  -4.8932977e-01	
   2.6455000e+01	  -6.7773201e-01	  -5.5124745e-01	  -4.9840363e-01	
   2.6510000e+01	  -6.9369045e-01	  -5.5458050e-01	  -5.0763364e-01	
   2.6565000e+01	  -7.1019817e-01	  -5.5829419e-01	  -5.1702614e-01	
   2.6620000e+01	  -7.2711292e-01	  -5.6246382e-01	  -5.2658707e-01	
   2.6675000e+01	  -7.4428041e-01	  -5.6716174e-01	  -5.3633018e-01	
   2.6730000e+01	  -7.6154512e-01	  -5.7245479e-01	  -5.4628138e-01	
   2.6785000e+01	  -7.7875629e-01	  -5.7839583e-01	  -5.5647828e-01	
   2.6840000e+01	  -7.9576922e-01	  -5.8501120e-01	  -5.6696446e-01	
   2.6895000e+01	  -8.1244425e-01	  -5.9228750e-01	  -5.7777951e-01	
   2.6950000e+01	  -8.2864638e-01	  -6.0016195e-01	  -5.8894849e-01	
   2.7005000e+01	  -8.4424745e-01	  -6.0852029e-01	  -6.0047536e-01	
   2.7060000e+01	  -8.5913117e-01	  -6.1720358e-01	  -6.1234242e-01	
   2.7115000e+01	  -8.7319998e-01	  -6.2602300e-01	  -6.2451579e-01	
   2.7170000e+01	  -8.8638284e-01	  -6.3478019e-01	  -6.3695526e-01	
   2.7225000e+01	  -8.9864289e-01	  -6.4329008e-01	  -6.4962698e-01	
   2.7280000e+01	  -9.0998461e-01	  -6.5140213e-01	  -6.6251602e-01	
   2.7335000e+01	  -9.2045834e-01	  -6.5901669e-01	  -6.7563600e-01	
   2.7390000e+01	  -9.3015951e-01	  -6.6609462e-01	  -6.8903241e-01	
   2.7445000e+01	  -9.3922006e-01	  -6.7265812e-01	  -7.0277699e-01	
   2.7500000e+01	  -9.4779234e-01	  -6.7878113e-01	  -7.1695248e-01	
   2.7555000e+01	  -9.5602896e-01	  -6.8457073e-01	  -7.3163143e-01	
   2.7610000e+01	  -9.6406360e-01	  -6.9014528e-01	  -7.4685527e-01	
   2.7665000e+01	  -9.7199685e-01	  -6.9561732e-01	  -7.6261972e-01	
   2.7720000e+01	  -9.7988978e-01	  -7.0108516e-01	  -7.7886960e-01	
   2.7775000e+01	  -9.8776575e-01	  -7.0663146e-01	  -7.9550258e-01	
   2.7830000e+01	  -9.9561917e-01	  -7.1232515e-01	  -8.1237978e-01	
   2.7885000e+01	  -1.0034287e+00	  -7.1822555e-01	  -8.2934098e-01	
   2.7940000e+01	  -1.0111727e+00	  -7.2438903e-01	  -8.4622171e-01	
   2.7995000e+01	  -1.0188434e+00	  -7.3087636e-01	  -8.6286868e-01	
   2.8050000e+01	  -1.0264583e+00	  -7.3775687e-01	  -8.7915039e-01	
   2.8105000e+01	  -1.0340645e+00	  -7.4510611e-01	  -8.9496120e-01	
   2.8160000e+01	  -1.0417369e+00	  -7.5299574e-01	  -9.1021851e-01	
   2.8215000e+01	  -1.0495676e+00	  -7.6147792e-01	  -9.2485373e-01	
   2.8270000e+01	  -1.0576529e+00	  -7.7056934e-01	  -9.3879996e-01	
   2.8325000e+01	  -1.0660770e+00	  -7.8024109e-01	  -9.5198209e-01	
   2.8380000e+01	  -1.0749001e+00	  -7.9041722e-01	  -9.6431329e-01	
   2.8435000e+01	  -1.0841482e+00	  -8.0098035e-01	  -9.7569840e-01	
   2.8490000e+01	  -1.0938095e+00	  -8.1178142e-01	  -9.8604218e-01	
   2.8545000e+01	  -1.1038325e+00	  -8.2265210e-01	  -9.9526034e-01	
   2.8600000e+01	  -1.1141303e+00	  -8.3341954e-01	  -1.0032914e+00	
   2.8655000e+01	  -1.1245877e+00	  -8.4392232e-01	  -1.0101080e+00	
   2.8710000e+01	  -1.1350732e+00	  -8.5402453e-01	  -1.0157253e+00	
   2.8765000e+01	  -1.1454487e+00	  -8.6362475e-01	  -1.0202060e+00	
   2.8820000e+01	  -1.1555760e+00	  -8.7265814e-01	  -1.0236587e+00	
   2.8875000e+01	  -1.1653173e+00	  -8.8109072e-01	  -1.0262295e+00	
   2.8930000e+01	  -1.1745292e+00	  -8.8890668e-01	  -1.0280876e+00	
   2.8985000e+01	  -1.1830550e+00	  -8.9609337e-01	  -1.0294089e+00	
   2.9040000e+01	  -1.1907193e+00	  -9.0263032e-01	  -1.0303625e+00	
   2.9095000e+01	  -1.1973254e+00	  -9.0848718e-01	  -1.0311024e+00	
   2.9150000e+01	  -1.2026578e+00	  -9.1362992e-01	  -1.0317628e+00	
   2.9205000e+01	  -1.2064873e+00	  -9.1803128e-01	  -1.0324576e+00	
   2.9260000e+01	  -1.2085782e+00	  -9.2168213e-01	  -1.0332840e+00	
   2.9315000e+01	  -1.2086990e+00	  -9.2460096e-01	  -1.0343268e+00	
   2.9370000e+01	  -1.2066343e+00	  -9.2683840e-01	  -1.0356612e+00	
   2.9425000e+01	  -1.2021951e+00	  -9.2847444e-01	  -1.0373514e+00	
   2.9480000e+01	  -1.1952257e+00	  -9.2960828e-01	  -1.0394455e+00	
   2.9535000e+01	  -1.1856041e+00	  -9.3034295e-01	  -1.0419672e+00	
   2.9590000e+01	  -1.1732379e+00	  -9.3076880e-01	  -1.0449072e+00	
   2.9645000e+01	  -1.1580585e+00	  -9.3095080e-01	  -1.0482169e+00	
   2.9700000e+01	  -1.1400177e+00	  -9.3092285e-01	  -1.0518079e+00	
   2.9755000e+01	  -1.1190864e+00	  -9.3068875e-01	  -1.0555571e+00	
   2.9810000e+01	  -1.0952560e+00	  -9.3022707e-01	  -1.0593149e+00	
   2.9865000e+01	  -1.0685412e+00	  -9.2949812e-01	  -1.0629159e+00	
   2.9920000e+01	  -1.0389846e+00	  -9.2845216e-01	  -1.0661901e+00	
   2.9975000e+01	  -1.0066626e+00	  -9.2703807e-01	  -1.0689751e+00	
   3.0030000e+01	  -9.7169154e-01	  -9.2521044e-01	  -1.0711259e+00	
   3.0085000e+01	  -9.3422909e-01	  -9.2293223e-01	  -1.0725218e+00	
   3.0140000e+01	  -8.9447068e-01	  -9.2017145e-01	  -1.0730666e+00	
   3.0195000e+01	  -8.5264136e-01	  -9.1689316e-01	  -1.0726863e+00	
   3.0250000e+01	  -8.0898672e-01	  -9.1305087e-01	  -1.0713259e+00	
   3.0305000e+01	  -7.6376546e-01	  -9.0858130e-01	  -1.0689479e+00	
   3.0360000e+01	  -7.1724501e-01	  -9.0340443e-01	  -1.0655350e+00	
   3.0415000e+01	  -6.6970035e-01	  -8.9742960e-01	  -1.0610954e+00	
   3.0470000e+01	  -6.2141582e-01	  -8.9056680e-01	  -1.0556694e+00	
   3.0525000e+01	  -5.7268866e-01	  -8.8274126e-01	  -1.0493361e+00	
   3.0580000e+01	  -5.2383349e-01	  -8.7390788e-01	  -1.0422161e+00	
   3.0635000e+01	  -4.7518650e-01	  -8.6406196e-01	  -1.0344723e+00	
   3.0690000e+01	  -4.2710716e-01	  -8.5324369e-01	  -1.0263047e+00	
   3.0745000e+01	  -3.7997376e-01	  -8.4153463e-01	  -1.0179399e+00	
   3.0800000e+01	  -3.3416978e-01	  -8.2904543e-01	  -1.0096143e+00	
   3.0855000e+01	  -2.9006263e-01	  -8.1589783e-01	  -1.0015537e+00	
   3.0910000e+01	  -2.4798039e-01	  -8.0220658e-01	  -9.9395544e-01	
   3.0965000e+01	  -2.0819304e-01	  -7.8806703e-01	  -9.8697625e-01	
   3.1020000e+01	  -1.7090227e-01	  -7.7355052e-01	  -9.8072678e-01	
   3.1075000e+01	  -1.3624078e-01	  -7.5870742e-01	  -9.7527106e-01	
   3.1130000e+01	  -1.0427966e-01	  -7.4357572e-01	  -9.7063062e-01	
   3.1185000e+01	  -7.5041113e-02	  -7.2819294e-01	  -9.6679254e-01	
   3.1240000e+01	  -4.8512983e-02	  -7.1260923e-01	  -9.6371907e-01	
   3.1295000e+01	  -2.4662168e-02	  -6.9689925e-01	  -9.6135637e-01	
   3.1350000e+01	  -3.4445018e-03	  -6.8116952e-01	  -9.5964093e-01	
   3.1405000e+01	   1.5190761e-02	  -6.6555875e-01	  -9.5850290e-01	
   3.1460000e+01	   3.1303326e-02	  -6.5023041e-01	  -9.5786560e-01	
   3.1515000e+01	   4.4970234e-02	  -6.3535945e-01	  -9.5764242e-01	
   3.1570000e+01	   5.6296494e-02	  -6.2111583e-01	  -9.5773356e-01	
   3.1625000e+01	   6.5423598e-02	  -6.0764732e-01	  -9.5802584e-01	
   3.1680000e+01	   7.2533140e-02	  -5.9506392e-01	  -9.5839706e-01	
   3.1735000e+01	   7.7844064e-02	  -5.8342807e-01	  -9.5872360e-01	
   3.1790000e+01	   8.1603146e-02	  -5.7275513e-01	  -9.5888883e-01	
   3.1845000e+01	   8.4070166e-02	  -5.6302494e-01	  -9.5879056e-01	
   3.1900000e+01	   8.5501270e-02	  -5.5419904e-01	  -9.5834709e-01	
   3.1955000e+01	   8.6134488e-02	  -5.4623624e-01	  -9.5750162e-01	
   3.2010000e+01	   8.6180125e-02	  -5.3910185e-01	  -9.5622451e-01	
   3.2065000e+01	   8.5817071e-02	  -5.3277127e-01	  -9.5451316e-01	
   3.2120000e+01	   8.5194839e-02	  -5.2722897e-01	  -9.5238858e-01	
   3.2175000e+01	   8.4439889e-02	  -5.2246362e-01	  -9.4988882e-01	
   3.2230000e+01	   8.3663665e-02	  -5.1846091e-01	  -9.4706096e-01	
   3.2285000e+01	   8.2969849e-02	  -5.1519642e-01	  -9.4395391e-01	
   3.2340000e+01	   8.2459462e-02	  -5.1263065e-01	  -9.4061334e-01	
   3.2395000e+01	   8.2233212e-02	  -5.1070612e-01	  -9.3707903e-01	
   3.2450000e+01	   8.2390679e-02	  -5.0934715e-01	  -9.3338575e-01	
   3.2505000e+01	   8.3026102e-02	  -5.0846264e-01	  -9.2956789e-01	
   3.2560000e+01	   8.4221065e-02	  -5.0795263e-01	  -9.2566644e-01	
   3.2615000e+01	   8.6035536e-02	  -5.0771735e-01	  -9.2173520e-01	
   3.2670000e+01	   8.8499483e-02	  -5.0766734e-01	  -9.1784387e-01	
   3.2725000e+01	   9.1607451e-02	  -5.0773189e-01	  -9.1407740e-01	
   3.2780000e+01	   9.5318512e-02	  -5.0786242e-01	  -9.1053172e-01	
   3.2835000e+01	   9.9563454e-02	  -5.0802755e-01	  -9.0730503e-01	
   3.2890000e+01	   1.0425848e-01	  -5.0820077e-01	  -9.0448395e-01	
   3.2945000e+01	   1.0932114e-01	  -5.0834670e-01	  -9.0212716e-01	
   3.3000000e+01	   1.1468346e-01	  -5.0841310e-01	  -9.0025185e-01	
   3.3055000e+01	   1.2030018e-01	  -5.0833117e-01	  -8.9882726e-01	
   3.3110000e+01	   1.2615203e-01	  -5.0802127e-01	  -8.9777703e-01	
   3.3165000e+01	   1.3224487e-01	  -5.0740045e-01	  -8.9698864e-01	
   3.3220000e+01	   1.3860552e-01	  -5.0639059e-01	  -8.9632664e-01	
   3.3275000e+01	   1.4527503e-01	  -5.0492698e-01	  -8.9564543e-01	
   3.3330000e+01	   1.5230067e-01	  -5.0296611e-01	  -8.9479973e-01	
   3.3385000e+01	   1.5972857e-01	  -5.0049056e-01	  -8.9365225e-01	
   3.3440000e+01	   1.6759889e-01	  -4.9750862e-01	  -8.9207803e-01	
   3.3495000e+01	   1.7594465e-01	  -4.9404828e-01	  -8.8996490e-01	
   3.3550000e+01	   1.8479298e-01	  -4.9014761e-01	  -8.8721182e-01	
   3.3605000e+01	   1.9416628e-01	  -4.8584595e-01	  -8.8372843e-01	
   3.3660000e+01	   2.0408157e-01	  -4.8117935e-01	  -8.7943698e-01	
   3.3715000e+01	   2.1454781e-01	  -4.7618103e-01	  -8.7427581e-01	
   3.3770000e+01	   2.2556208e-01	  -4.7088525e-01	  -8.6820349e-01	
   3.3825000e+01	   2.3710526e-01	  -4.6533338e-01	  -8.6120365e-01	
   3.3880000e+01	   2.4913807e-01	  -4.5958126e-01	  -8.5329018e-01	
   3.3935000e+01	   2.6159830e-01	  -4.5370512e-01	  -8.4451053e-01	
   3.3990000e+01	   2.7440119e-01	  -4.4780189e-01	  -8.3494345e-01	
   3.4045000e+01	   2.8744477e-01	  -4.4198121e-01	  -8.2469020e-01	
   3.4100000e+01	   3.0062046e-01	  -4.3634944e-01	  -8.1386063e-01	
   3.4155000e+01	   3.1382658e-01	  -4.3099017e-01	  -8.0255713e-01	
   3.4210000e+01	   3.2698082e-01	  -4.2594749e-01	  -7.9086023e-01	
   3.4265000e+01	   3.4002890e-01	  -4.2121656e-01	  -7.7881923e-01	
   3.4320000e+01	   3.5294879e-01	  -4.1674170e-01	  -7.6644900e-01	
   3.4375000e+01	   3.6575062e-01	  -4.1242053e-01	  -7.5373220e-01	
   3.4430000e+01	   3.7847238e-01	  -4.0811228e-01	  -7.4062579e-01	
   3.4485000e+01	   3.9117137e-01	  -4.0365008e-01	  -7.2707162e-01	
   3.4540000e+01	   4.0391189e-01	  -3.9885678e-01	  -7.1300969e-01	
   3.4595000e+01	   4.1675155e-01	  -3.9356150e-01	  -6.9839017e-01	
   3.4650000e+01	   4.2972984e-01	  -3.8761177e-01	  -6.8317990e-01	
   3.4705000e+01	   4.4286281e-01	  -3.8087790e-01	  -6.6736179e-01	
   3.4760000e+01	   4.5614533e-01	  -3.7325032e-01	  -6.5092884e-01	
   3.4815000e+01	   4.6955903e-01	  -3.6463297e-01	  -6.3387641e-01	
   3.4870000e+01	   4.8308241e-01	  -3.5493664e-01	  -6.1619712e-01	
   3.4925000e+01	   4.9669867e-01	  -3.4407585e-01	  -5.9788145e-01	
   3.4980000e+01	   5.1039932e-01	  -3.3197191e-01	  -5.7892386e-01	
   3.5035000e+01	   5.2418333e-01	  -3.1856151e-01	  -5.5933157e-01	
   3.5090000e+01	   5.3805360e-01	  -3.0380801e-01	  -5.3913224e-01	
   3.5145000e+01	   5.5201211e-01	  -2.8771266e-01	  -5.1837878e-01	
   3.5200000e+01	   5.6605433e-01	  -2.7032309e-01	  -4.9715143e-01	
   3.5255000e+01	   5.8016378e-01	  -2.5173655e-01	  -4.7555639e-01	
   3.5310000e+01	   5.9430941e-01	  -2.3209521e-01	  -4.5371913e-01	
   3.5365000e+01	   6.0844810e-01	  -2.1157233e-01	  -4.3177080e-01	
   3.5420000e+01	   6.2253193e-01	  -1.9035176e-01	  -4.0983005e-01	
   3.5475000e+01	   6.3651749e-01	  -1.6860770e-01	  -3.8798593e-01	
   3.5530000e+01	   6.5037363e-01	  -1.4649099e-01	  -3.6628691e-01	
   3.5585000e+01	   6.6408519e-01	  -1.2412455e-01	  -3.4473791e-01	
   3.5640000e+01	   6.7765124e-01	  -1.0160638e-01	  -3.2330477e-01	
   3.5695000e+01	   6.9107838e-01	  -7.9016525e-02	  -3.0192542e-01	
   3.5750000e+01	   7.0437098e-01	  -5.6424353e-02	  -2.8052511e-01	
   3.5805000e+01	   7.1752080e-01	  -3.3895187e-02	  -2.5903323e-01	
   3.5860000e+01	   7.3049668e-01	  -1.1498228e-02	  -2.3739943e-01	
   3.5915000e+01	   7.4323580e-01	   1.0683176e-02	  -2.1560665e-01	
   3.5970000e+01	   7.5563880e-01	   3.2542450e-02	  -1.9367732e-01	
   3.6025000e+01	   7.6757144e-01	   5.3947355e-02	  -1.7167022e-01	
   3.6080000e+01	   7.7887447e-01	   7.4746366e-02	  -1.4966882e-01	
   3.6135000e+01	   7.8938028e-01	   9.4781828e-02	  -1.2776429e-01	
   3.6190000e+01	   7.9893269e-01	   1.1390631e-01	  -1.0603817e-01	
   3.6245000e+01	   8.0740493e-01	   1.3199816e-01	  -8.4549872e-02	
   3.6300000e+01	   8.1471176e-01	   1.4897195e-01	  -6.3332564e-02	
   3.6355000e+01	   8.2081419e-01	   1.6478139e-01	  -4.2397474e-02	
   3.6410000e+01	   8.2571685e-01	   1.7941593e-01	  -2.1743022e-02	
   3.6465000e+01	   8.2945923e-01	   1.9289415e-01	  -1.3647538e-03	
   3.6520000e+01	   8.3210289e-01	   2.0525613e-01	   1.8735863e-02	
   3.6575000e+01	   8.3371774e-01	   2.1655549e-01	   3.8544242e-02	
   3.6630000e+01	   8.3437057e-01	   2.2685250e-01	   5.8028122e-02	
   3.6685000e+01	   8.3411857e-01	   2.3621068e-01	   7.7137747e-02	
   3.6740000e+01	   8.3300893e-01	   2.4469895e-01	   9.5811868e-02	
   3.6795000e+01	   8.3108445e-01	   2.5239826e-01	   1.1398798e-01	
   3.6850000e+01	   8.2839333e-01	   2.5941035e-01	   1.3161358e-01	
   3.6905000e+01	   8.2499980e-01	   2.6586546e-01	   1.4865555e-01	
   3.6960000e+01	   8.2099182e-01	   2.7192478e-01	   1.6510580e-01	
   3.7015000e+01	   8.1648305e-01	   2.7777411e-01	   1.8098203e-01	
   3.7070000e+01	   8.1160913e-01	   2.8360926e-01	   1.9632412e-01	
   3.7125000e+01	   8.0651995e-01	   2.8961744e-01	   2.1118763e-01	
   3.7180000e+01	   8.0136888e-01	   2.9595879e-01	   2.2563477e-01	
   3.7235000e+01	   7.9629990e-01	   3.0275002e-01	   2.3972287e-01	
   3.7290000e+01	   7.9143415e-01	   3.1005146e-01	   2.5349154e-01	
   3.7345000e+01	   7.8685887e-01	   3.1786023e-01	   2.6695217e-01	
   3.7400000e+01	   7.8262141e-01	   3.2611188e-01	   2.8008295e-01	
   3.7455000e+01	   7.7873049e-01	   3.3469151e-01	   2.9283139e-01	
   3.7510000e+01	   7.7516500e-01	   3.4345329e-01	   3.0512424e-01	
   3.7565000e+01	   7.7188861e-01	   3.5224496e-01	   3.1688290e-01	
   3.7620000e+01	   7.6886581e-01	   3.6093237e-01	   3.2803978e-01	
   3.7675000e+01	   7.6607537e-01	   3.6941883e-01	   3.3854989e-01	
   3.7730000e+01	   7.6351846e-01	   3.7765577e-01	   3.4839432e-01	
   3.7785000e+01	   7.6122017e-01	   3.8564416e-01	   3.5757654e-01	
   3.7840000e+01	   7.5922514e-01	   3.9342768e-01	   3.6611418e-01	
   3.7895000e+01	   7.5758873e-01	   4.0107922e-01	   3.7402943e-01	
   3.7950000e+01	   7.5636659e-01	   4.0868292e-01	   3.8134116e-01	
   3.8005000e+01	   7.5560601e-01	   4.1631661e-01	   3.8806141e-01	
   3.8060000e+01	   7.5534237e-01	   4.2404055e-01	   3.9419772e-01	
   3.8115000e+01	   7.5560181e-01	   4.3189482e-01	   3.9976088e-01	
   3.8170000e+01	   7.5640831e-01	   4.3990377e-01	   4.0477572e-01	
   3.8225000e+01	   7.5779184e-01	   4.4808401e-01	   4.0929132e-01	
   3.8280000e+01	   7.5979442e-01	   4.5645329e-01	   4.1338686e-01	
   3.8335000e+01	   7.6247294e-01	   4.6503665e-01	   4.1717103e-01	
   3.8390000e+01	   7.6589773e-01	   4.7386705e-01	   4.2077438e-01	
   3.8445000e+01	   7.7014646e-01	   4.8298075e-01	   4.2433652e-01	
   3.8500000e+01	   7.7529441e-01	   4.9241113e-01	   4.2799194e-01	
   3.8555000e+01	   7.8140352e-01	   5.0218414e-01	   4.3185855e-01	
   3.8610000e+01	   7.8851356e-01	   5.1231614e-01	   4.3603091e-01	
   3.8665000e+01	   7.9663793e-01	   5.2281533e-01	   4.4057825e-01	
   3.8720000e+01	   8.0576628e-01	   5.3368827e-01	   4.4554700e-01	
   3.8775000e+01	   8.1587337e-01	   5.4494999e-01	   4.5096736e-01	
   3.8830000e+01	   8.2693034e-01	   5.5663323e-01	   4.5686189e-01	
   3.8885000e+01	   8.3891327e-01	   5.6879228e-01	   4.6325315e-01	
   3.8940000e+01	   8.5180589e-01	   5.8149987e-01	   4.7016867e-01	
   3.8995000e+01	   8.6559610e-01	   5.9483854e-01	   4.7764286e-01	
   3.9050000e+01	   8.8026741e-01	   6.0888849e-01	   4.8571561e-01	
   3.9105000e+01	   8.9578742e-01	   6.2371431e-01	   4.9442763e-01	
   3.9160000e+01	   9.1209681e-01	   6.3935294e-01	   5.0381358e-01	
   3.9215000e+01	   9.2910183e-01	   6.5580448e-01	   5.1389485e-01	
   3.9270000e+01	   9.4667188e-01	   6.7302701e-01	   5.2467387e-01	
   3.9325000e+01	   9.6464226e-01	   6.9093616e-01	   5.3613071e-01	
   3.9380000e+01	   9.8282252e-01	   7.0940990e-01	   5.4822312e-01	
   3.9435000e+01	   1.0010097e+00	   7.2829827e-01	   5.6089027e-01	
   3.9490000e+01	   1.0190040e+00	   7.4743626e-01	   5.7405942e-01	
   3.9545000e+01	   1.0366227e+00	   7.6665677e-01	   5.8765308e-01	
   3.9600000e+01	   1.0537106e+00	   7.8580083e-01	   6.0159491e-01	
   3.9655000e+01	   1.0701449e+00	   8.0472373e-01	   6.1581329e-01	
   3.9710000e+01	   1.0858370e+00	   8.2329747e-01	   6.3024119e-01	
   3.9765000e+01	   1.1007302e+00	   8.4140903e-01	   6.4481154e-01	
   3.9820000e+01	   1.1147932e+00	   8.5895452e-01	   6.5944967e-01	
   3.9875000e+01	   1.1280115e+00	   8.7583175e-01	   6.7406690e-01	
   3.9930000e+01	   1.1403811e+00	   8.9193535e-01	   6.8855915e-01	
   3.9985000e+01	   1.1519053e+00	   9.0715876e-01	   7.0281231e-01	
   4.0040000e+01	   1.1625984e+00	   9.2140404e-01	   7.1671370e-01	
   4.0095000e+01	   1.1724924e+00	   9.3459724e-01	   7.3016712e-01	
   4.0150000e+01	   1.1816443e+00	   9.4670278e-01	   7.4310707e-01	
   4.0205000e+01	   1.1901398e+00	   9.5773082e-01	   7.5550793e-01	
   4.0260000e+01	   1.1980922e+00	   9.6773674e-01	   7.6738615e-01	
   4.0315000e+01	   1.2056364e+00	   9.7681593e-01	   7.7879632e-01	
   4.0370000e+01	   1.2129192e+00	   9.8509554e-01	   7.8982172e-01	
   4.0425000e+01	   1.2200854e+00	   9.9272256e-01	   8.0055983e-01	
   4.0480000e+01	   1.2272613e+00	   9.9984805e-01	   8.1110442e-01	
   4.0535000e+01	   1.2345390e+00	   1.0066107e+00	   8.2152773e-01	
   4.0590000e+01	   1.2419665e+00	   1.0131244e+00	   8.3186627e-01	
   4.0645000e+01	   1.2495441e+00	   1.0194737e+00	   8.4211361e-01	
   4.0700000e+01	   1.2572288e+00	   1.0257180e+00	   8.5222215e-01	
   4.0755000e+01	   1.2649452e+00	   1.0319017e+00	   8.6211358e-01	
   4.0810000e+01	   1.2725967e+00	   1.0380635e+00	   8.7169393e-01	
   4.0865000e+01	   1.2800766e+00	   1.0442433e+00	   8.8086803e-01	
   4.0920000e+01	   1.2872739e+00	   1.0504838e+00	   8.8954981e-01	
   4.0975000e+01	   1.2940780e+00	   1.0568308e+00	   8.9766808e-01	
   4.1030000e+01	   1.3003805e+00	   1.0633317e+00	   9.0516900e-01	
   4.1085000e+01	   1.3060785e+00	   1.0700297e+00	   9.1201574e-01	
   4.1140000e+01	   1.3110752e+00	   1.0769554e+00	   9.1818552e-01	
   4.1195000e+01	   1.3152817e+00	   1.0841155e+00	   9.2366503e-01	
   4.1250000e+01	   1.3186202e+00	   1.0914863e+00	   9.2844701e-01	
   4.1305000e+01	   1.3210300e+00	   1.0990118e+00	   9.3252938e-01	
   4.1360000e+01	   1.3224752e+00	   1.1066093e+00	   9.3591678e-01	
   4.1415000e+01	   1.3229507e+00	   1.1141783e+00	   9.3862318e-01	
   4.1470000e+01	   1.3224842e+00	   1.1216101e+00	   9.4067354e-01	
   4.1525000e+01	   1.3211331e+00	   1.1287933e+00	   9.4210291e-01	
   4.1580000e+01	   1.3189763e+00	   1.1356162e+00	   9.4295172e-01	
   4.1635000e+01	   1.3161005e+00	   1.1419649e+00	   9.4325840e-01	
   4.1690000e+01	   1.3125836e+00	   1.1477217e+00	   9.4305216e-01	
   4.1745000e+01	   1.3084802e+00	   1.1527629e+00	   9.4234773e-01	
   4.1800000e+01	   1.3038111e+00	   1.1569582e+00	   9.4114307e-01	
   4.1855000e+01	   1.2985625e+00	   1.1601758e+00	   9.3942105e-01	
   4.1910000e+01	   1.2926932e+00	   1.1622944e+00	   9.3715705e-01	
   4.1965000e+01	   1.2861491e+00	   1.1632227e+00	   9.3433192e-01	
   4.2020000e+01	   1.2788796e+00	   1.1629177e+00	   9.3094664e-01	
   4.2075000e+01	   1.2708514e+00	   1.1613961e+00	   9.2703384e-01	
   4.2130000e+01	   1.2620576e+00	   1.1587358e+00	   9.2266336e-01	
   4.2185000e+01	   1.2525195e+00	   1.1550685e+00	   9.1794156e-01	
   4.2240000e+01	   1.2422829e+00	   1.1505638e+00	   9.1300497e-01	
   4.2295000e+01	   1.2314076e+00	   1.1454093e+00	   9.0800879e-01	
   4.2350000e+01	   1.2199556e+00	   1.1397882e+00	   9.0311151e-01	
   4.2405000e+01	   1.2079794e+00	   1.1338553e+00	   8.9845815e-01	
   4.2460000e+01	   1.1955138e+00	   1.1277183e+00	   8.9416616e-01	
   4.2515000e+01	   1.1825737e+00	   1.1214284e+00	   8.9031712e-01	
   4.2570000e+01	   1.1691590e+00	   1.1149844e+00	   8.8695722e-01	
   4.2625000e+01	   1.1552651e+00	   1.1083491e+00	   8.8410654e-01	
   4.2680000e+01	   1.1408952e+00	   1.1014723e+00	   8.8177471e-01	
   4.2735000e+01	   1.1260706e+00	   1.0943134e+00	   8.7997870e-01	
   4.2790000e+01	   1.1108366e+00	   1.0868581e+00	   8.7875781e-01	
   4.2845000e+01	   1.0952622e+00	   1.0791265e+00	   8.7818098e-01	
   4.2900000e+01	   1.0794343e+00	   1.0711725e+00	   8.7834297e-01	
   4.2955000e+01	   1.0634450e+00	   1.0630766e+00	   8.7935033e-01	
   4.3010000e+01	   1.0473761e+00	   1.0549324e+00	   8.8130201e-01	
   4.3065000e+01	   1.0312851e+00	   1.0468317e+00	   8.8427041e-01	
   4.3120000e+01	   1.0151928e+00	   1.0388490e+00	   8.8828602e-01	
   4.3175000e+01	   9.9907647e-01	   1.0310279e+00	   8.9332605e-01	
   4.3230000e+01	   9.8286924e-01	   1.0233736e+00	   8.9930733e-01	
   4.3285000e+01	   9.6646764e-01	   1.0158534e+00	   9.0608592e-01	
   4.3340000e+01	   9.4974595e-01	   1.0084054e+00	   9.1346591e-01	
   4.3395000e+01	   9.3257402e-01	   1.0009517e+00	   9.2121642e-01	
   4.3450000e+01	   9.1483447e-01	   9.9341222e-01	   9.2909193e-01	
   4.3505000e+01	   8.9643589e-01	   9.8571551e-01	   9.3685026e-01	
   4.3560000e+01	   8.7731947e-01	   9.7780213e-01	   9.4426509e-01	
   4.3615000e+01	   8.5745793e-01	   9.6962041e-01	   9.5113261e-01	
   4.3670000e+01	   8.3684766e-01	   9.6111659e-01	   9.5727334e-01	
   4.3725000e+01	   8.1549669e-01	   9.5222362e-01	   9.6252924e-01	
   4.3780000e+01	   7.9341098e-01	   9.4285181e-01	   9.6675676e-01	
   4.3835000e+01	   7.7058188e-01	   9.3288193e-01	   9.6981855e-01	
   4.3890000e+01	   7.4697702e-01	   9.2216177e-01	   9.7157697e-01	
   4.3945000e+01	   7.2253707e-01	   9.1050795e-01	   9.7189276e-01	
   4.4000000e+01	   6.9718038e-01	   8.9771476e-01	   9.7062982e-01	
   4.4055000e+01	   6.7081552e-01	   8.8357033e-01	   9.6766553e-01	
   4.4110000e+01	   6.4336027e-01	   8.6787816e-01	   9.6290438e-01	
   4.4165000e+01	   6.1476272e-01	   8.5048073e-01	   9.5629248e-01	
   4.4220000e+01	   5.8502021e-01	   8.3128091e-01	   9.4782977e-01	
   4.4275000e+01	   5.5419142e-01	   8.1025786e-01	   9.3757653e-01	
   4.4330000e+01	   5.2239970e-01	   7.8747523e-01	   9.2565137e-01	
   4.4385000e+01	   4.8982815e-01	   7.6308023e-01	   9.1222177e-01	
   4.4440000e+01	   4.5670771e-01	   7.3729302e-01	   8.9748959e-01	
   4.4495000e+01	   4.2329901e-01	   7.1038731e-01	   8.8167480e-01	
   4.4550000e+01	   3.8986912e-01	   6.8266428e-01	   8.6499909e-01	
   4.4605000e+01	   3.5666537e-01	   6.5442368e-01	   8.4767024e-01	
   4.4660000e+01	   3.2389036e-01	   6.2593568e-01	   8.2986760e-01	
   4.4715000e+01	   2.9168199e-01	   5.9741708e-01	   8.1173016e-01	
   4.4770000e+01	   2.6010259e-01	   5.6901575e-01	   7.9335116e-01	
   4.4825000e+01	   2.2914062e-01	   5.4080758e-01	   7.7478377e-01	
   4.4880000e+01	   1.9872523e-01	   5.1280690e-01	   7.5605794e-01	
   4.4935000e+01	   1.6874928e-01	   4.8498595e-01	   7.3720173e-01	
   4.4990000e+01	   1.3909414e-01	   4.5729703e-01	   7.1825823e-01	
   4.5045000e+01	   1.0965091e-01	   4.2969223e-01	   6.9929369e-01	
   4.5100000e+01	   8.0335306e-02	   4.0213829e-01	   6.8039771e-01	
   4.5155000e+01	   5.1094685e-02	   3.7462438e-01	   6.6167761e-01	
   4.5210000e+01	   2.1907738e-02	   3.4716119e-01	   6.4324818e-01	
   4.5265000e+01	  -7.2210212e-03	   3.1977218e-01	   6.2521814e-01	
   4.5320000e+01	  -3.6269118e-02	   2.9248101e-01	   6.0767515e-01	
   4.5375000e+01	  -6.5204371e-02	   2.6529925e-01	   5.9067108e-01	
   4.5430000e+01	  -9.3992365e-02	   2.3821681e-01	   5.7420992e-01	
   4.5485000e+01	  -1.2260115e-01	   2.1119673e-01	   5.5824142e-01	
   4.5540000e+01	  -1.5100023e-01	   1.8417659e-01	   5.4266456e-01	
   4.5595000e+01	  -1.7915265e-01	   1.5707723e-01	   5.2734134e-01	
   4.5650000e+01	  -2.0700298e-01	   1.2981704e-01	   5.1211710e-01	
   4.5705000e+01	  -2.3446654e-01	   1.0232798e-01	   4.9684106e-01	
   4.5760000e+01	  -2.6142458e-01	   7.4569306e-02	   4.8138276e-01	
   4.5815000e+01	  -2.8772671e-01	   4.6535839e-02	   4.6564258e-01	
   4.5870000e+01	  -3.1319941e-01	   1.8258992e-02	   4.4955660e-01	
   4.5925000e+01	  -3.3765868e-01	  -1.0197155e-02	   4.3309642e-01	
   4.5980000e+01	  -3.6092438e-01	  -3.8741271e-02	   4.1626349e-01	
   4.6035000e+01	  -3.8283489e-01	  -6.7260489e-02	   3.9907796e-01	
   4.6090000e+01	  -4.0326068e-01	  -9.5628216e-02	   3.8156468e-01	
   4.6145000e+01	  -4.2211616e-01	  -1.2371550e-01	   3.6374022e-01	
   4.6200000e+01	  -4.3936767e-01	  -1.5140408e-01	   3.4560333e-01	
   4.6255000e+01	  -4.5503565e-01	  -1.7859676e-01	   3.2712986e-01	
   4.6310000e+01	  -4.6919042e-01	  -2.0522084e-01	   3.0827340e-01	
   4.6365000e+01	  -4.8194264e-01	  -2.3122386e-01	   2.8897284e-01	
   4.6420000e+01	  -4.9343061e-01	  -2.5656412e-01	   2.6916563e-01	
   4.6475000e+01	  -5.0380710e-01	  -2.8120119e-01	   2.4880244e-01	
   4.6530000e+01	  -5.1322861e-01	  -3.0509106e-01	   2.2785886e-01	
   4.6585000e+01	  -5.2184909e-01	  -3.2818832e-01	   2.0634134e-01	
   4.6640000e+01	  -5.2981822e-01	  -3.5045422e-01	   1.8428633e-01	
   4.6695000e+01	  -5.3728413e-01	  -3.7186861e-01	   1.6175270e-01	
   4.6750000e+01	  -5.4439925e-01	  -3.9244264e-01	   1.3880984e-01	
   4.6805000e+01	  -5.5132705e-01	  -4.1222899e-01	   1.1552498e-01	
   4.6860000e+01	  -5.5824625e-01	  -4.3132595e-01	   9.1953925e-02	
   4.6915000e+01	  -5.6534988e-01	  -4.4987368e-01	   6.8137244e-02	
   4.6970000e+01	  -5.7283754e-01	  -4.6804248e-01	   4.4101967e-02	
   4.7025000e+01	  -5.8090053e-01	  -4.8601509e-01	   1.9867248e-02	
   4.7080000e+01	  -5.8970263e-01	  -5.0396721e-01	  -4.5476226e-03	
   4.7135000e+01	  -5.9936112e-01	  -5.2205078e-01	  -2.9114396e-02	
   4.7190000e+01	  -6.0993229e-01	  -5.4038199e-01	  -5.3788488e-02	
   4.7245000e+01	  -6.2140361e-01	  -5.5903464e-01	  -7.8505176e-02	
   4.7300000e+01	  -6.3369371e-01	  -5.7803890e-01	  -1.0318005e-01	
   4.7355000e+01	  -6.4665932e-01	  -5.9738651e-01	  -1.2771337e-01	
   4.7410000e+01	  -6.6010782e-01	  -6.1704093e-01	  -1.5199733e-01	
   4.7465000e+01	  -6.7381188e-01	  -6.3694833e-01	  -1.7592404e-01	
   4.7520000e+01	  -6.8752276e-01	  -6.5704373e-01	  -1.9939144e-01	
   4.7575000e+01	  -7.0097905e-01	  -6.7724836e-01	  -2.2230484e-01	
   4.7630000e+01	  -7.1391019e-01	  -6.9745922e-01	  -2.4457273e-01	
   4.7685000e+01	  -7.2603692e-01	  -7.1753599e-01	  -2.6609893e-01	
   4.7740000e+01	  -7.3707301e-01	  -7.3729165e-01	  -2.8677537e-01	
   4.7795000e+01	  -7.4673072e-01	  -7.5649011e-01	  -3.0648023e-01	
   4.7850000e+01	  -7.5472985e-01	  -7.7485037e-01	  -3.2508224e-01	
   4.7905000e+01	  -7.6080884e-01	  -7.9205579e-01	  -3.4244975e-01	
   4.7960000e+01	  -7.6473637e-01	  -8.0776748e-01	  -3.5846184e-01	
   4.8015000e+01	  -7.6632204e-01	  -8.2164071e-01	  -3.7301898e-01	
   4.8070000e+01	  -7.6542575e-01	  -8.3334271e-01	  -3.8605072e-01	
   4.8125000e+01	  -7.6196420e-01	  -8.4256956e-01	  -3.9751903e-01	
   4.8180000e+01	  -7.5591205e-01	  -8.4905950e-01	  -4.0741613e-01	
   4.8235000e+01	  -7.4729530e-01	  -8.5260133e-01	  -4.1575538e-01	
   4.8290000e+01	  -7.3617808e-01	  -8.5303849e-01	  -4.2255632e-01	
   4.8345000e+01	  -7.2264795e-01	  -8.5027121e-01	  -4.2782826e-01	
   4.8400000e+01	  -7.0680466e-01	  -8.4425752e-01	  -4.3155758e-01	
   4.8455000e+01	  -6.8875436e-01	  -8.3501348e-01	  -4.3370065e-01	
   4.8510000e+01	  -6.6860950e-01	  -8.2261355e-01	  -4.3418351e-01	
   4.8565000e+01	  -6.4649385e-01	  -8.0719143e-01	  -4.3290944e-01	
   4.8620000e+01	  -6.2255070e-01	  -7.8894046e-01	  -4.2977365e-01	
   4.8675000e+01	  -5.9695079e-01	  -7.6811249e-01	  -4.2468086e-01	
   4.8730000e+01	  -5.6989681e-01	  -7.4501481e-01	  -4.1756220e-01	
   4.8785000e+01	  -5.4162222e-01	  -7.2000359e-01	  -4.0838860e-01	
   4.8840000e+01	  -5.1238395e-01	  -6.9347094e-01	  -3.9717876e-01	
   4.8895000e+01	  -4.8244968e-01	  -6.6582467e-01	  -3.8400043e-01	
   4.8950000e+01	  -4.5208304e-01	  -6.3746406e-01	  -3.6896532e-01	
   4.9005000e+01	  -4.2153012e-01	  -6.0875692e-01	  -3.5222002e-01	
   4.9060000e+01	  -3.9100908e-01	  -5.8002215e-01	  -3.3393609e-01	
   4.9115000e+01	  -3.6070299e-01	  -5.5152079e-01	  -3.1430240e-01	
   4.9170000e+01	  -3.3075618e-01	  -5.2345786e-01	  -2.9352010e-01	
   4.9225000e+01	  -3.0127554e-01	  -4.9599334e-01	  -2.7180100e-01	
   4.9280000e+01	  -2.7233694e-01	  -4.6925786e-01	  -2.4937002e-01	
   4.9335000e+01	  -2.4399549e-01	  -4.4336808e-01	  -2.2647044e-01	
   4.9390000e+01	  -2.1629649e-01	  -4.1843845e-01	  -2.0336812e-01	
   4.9445000e+01	  -1.8928370e-01	  -3.9458674e-01	  -1.8035064e-01	
   4.9500000e+01	  -1.6300238e-01	  -3.7193114e-01	  -1.5771861e-01	
   4.9555000e+01	  -1.3749623e-01	  -3.5057836e-01	  -1.3576869e-01	
   4.9610000e+01	  -1.1279993e-01	  -3.3060756e-01	  -1.1477139e-01	
   4.9665000e+01	  -8.8930829e-02	  -3.1205791e-01	  -9.4950399e-02	
   4.9720000e+01	  -6.5883065e-02	  -2.9492341e-01	  -7.6469957e-02	
   4.9775000e+01	  -4.3625154e-02	  -2.7915292e-01	  -5.9431169e-02	
   4.9830000e+01	  -2.2100966e-02	  -2.6465242e-01	  -4.3874580e-02	
   4.9885000e+01	  -1.2344221e-03	  -2.5128977e-01	  -2.9786353e-02	
   4.9940000e+01	   1.9061996e-02	  -2.3890334e-01	  -1.7107295e-02	
   4.9995000e+01	   3.8876278e-02	  -2.2731489e-01	  -5.7442088e-03	
   5.0050000e+01	   5.8285205e-02	  -2.1634581e-01	   4.4171561e-03	
   5.0105000e+01	   7.7343457e-02	  -2.0583590e-01	   1.3498796e-02	
   5.0160000e+01	   9.6075895e-02	  -1.9566137e-01	   2.1619674e-02	
   5.0215000e+01	   1.1447630e-01	  -1.8574573e-01	   2.8891352e-02	
   5.0270000e+01	   1.3251415e-01	  -1.7605801e-01	   3.5421848e-02	
   5.0325000e+01	   1.5014697e-01	  -1.6659964e-01	   4.1325394e-02	
   5.0380000e+01	   1.6733292e-01	  -1.5738663e-01	   4.6733075e-02	
   5.0435000e+01	   1.8403968e-01	  -1.4843389e-01	   5.1800071e-02	
   5.0490000e+01	   2.0024811e-01	  -1.3974524e-01	   5.6707804e-02	
   5.0545000e+01	   2.1595091e-01	  -1.3131072e-01	   6.1660744e-02	
   5.0600000e+01	   2.3114602e-01	  -1.2311108e-01	   6.6878049e-02	
   5.0655000e+01	   2.4582588e-01	  -1.1512807e-01	   7.2580401e-02	
   5.0710000e+01	   2.5996450e-01	  -1.0735743e-01	   7.8972425e-02	
   5.0765000e+01	   2.7350455e-01	  -9.9821118e-02	   8.6221144e-02	
   5.0820000e+01	   2.8634671e-01	  -9.2575910e-02	   9.4432841e-02	
   5.0875000e+01	   2.9834405e-01	  -8.5715257e-02	   1.0363339e-01	
   5.0930000e+01	   3.0930461e-01	  -7.9362055e-02	   1.1375748e-01	
   5.0985000e+01	   3.1900428e-01	  -7.3652540e-02	   1.2464989e-01	
   5.1040000e+01	   3.2720840e-01	  -6.8714974e-02	   1.3607901e-01	
   5.1095000e+01	   3.3369737e-01	  -6.4648529e-02	   1.4775987e-01	
   5.1150000e+01	   3.3829102e-01	  -6.1506608e-02	   1.5938166e-01	
   5.1205000e+01	   3.4086762e-01	  -5.9286619e-02	   1.7063335e-01	
   5.1260000e+01	   3.4137518e-01	  -5.7927165e-02	   1.8122263e-01	
   5.1315000e+01	   3.3983353e-01	  -5.7313368e-02	   1.9088651e-01	
   5.1370000e+01	   3.3632785e-01	  -5.7290424e-02	   1.9939518e-01	
   5.1425000e+01	   3.3099645e-01	  -5.7684042e-02	   2.0655151e-01	
   5.1480000e+01	   3.2401574e-01	  -5.8323901e-02	   2.1218766e-01	
   5.1535000e+01	   3.1558455e-01	  -5.9065110e-02	   2.1616002e-01	
   5.1590000e+01	   3.0590916e-01	  -5.9804293e-02	   2.1834457e-01	
   5.1645000e+01	   2.9519108e-01	  -6.0488616e-02	   2.1863573e-01	
   5.1700000e+01	   2.8361925e-01	  -6.1116533e-02	   2.1695131e-01	
   5.1755000e+01	   2.7136803e-01	  -6.1730398e-02	   2.1324340e-01	
   5.1810000e+01	   2.5860042e-01	  -6.2403656e-02	   2.0751227e-01	
   5.1865000e+01	   2.4547361e-01	  -6.3226115e-02	   1.9981733e-01	
   5.1920000e+01	   2.3214354e-01	  -6.4290004e-02	   1.9028081e-01	
   5.1975000e+01	   2.1876638e-01	  -6.5678658e-02	   1.7908324e-01	
   5.2030000e+01	   2.0549758e-01	  -6.7458541e-02	   1.6645362e-01	
   5.2085000e+01	   1.9248867e-01	  -6.9674289e-02	   1.5265659e-01	
   5.2140000e+01	   1.7988132e-01	  -7.2347104e-02	   1.3797697e-01	
   5.2195000e+01	   1.6779826e-01	  -7.5476876e-02	   1.2270201e-01	
   5.2250000e+01	   1.5633291e-01	  -7.9046320e-02	   1.0710416e-01	
   5.2305000e+01	   1.4554162e-01	  -8.3024175e-02	   9.1428816e-02	
   5.2360000e+01	   1.3544223e-01	  -8.7365619e-02	   7.5889923e-02	
   5.2415000e+01	   1.2602073e-01	  -9.2009806e-02	   6.0672964e-02	
   5.2470000e+01	   1.1724442e-01	  -9.6875847e-02	   4.5942383e-02	
   5.2525000e+01	   1.0907778e-01	  -1.0185969e-01	   3.1850297e-02	
   5.2580000e+01	   1.0149700e-01	  -1.0683427e-01	   1.8544283e-02	
   5.2635000e+01	   9.4499910e-02	  -1.1165362e-01	   6.1728801e-03	
   5.2690000e+01	   8.8109899e-02	  -1.1616020e-01	  -5.1120098e-03	
   5.2745000e+01	   8.2373806e-02	  -1.2019501e-01	  -1.5156732e-02	
   5.2800000e+01	   7.7355195e-02	  -1.2360972e-01	  -2.3812393e-02	
   5.2855000e+01	   7.3125358e-02	  -1.2627834e-01	  -3.0945263e-02	
   5.2910000e+01	   6.9755306e-02	  -1.2810486e-01	  -3.6446975e-02	
   5.2965000e+01	   6.7311880e-02	  -1.2902470e-01	  -4.0239240e-02	
   5.3020000e+01	   6.5859342e-02	  -1.2899964e-01	  -4.2270448e-02	
   5.3075000e+01	   6.5464941e-02	  -1.2800804e-01	  -4.2506337e-02	
   5.3130000e+01	   6.6204868e-02	  -1.2603421e-01	  -4.0920240e-02	
   5.3185000e+01	   6.8167192e-02	  -1.2306088e-01	  -3.7487310e-02	
   5.3240000e+01	   7.1450065e-02	  -1.1906696e-01	  -3.2183871e-02	
   5.3295000e+01	   7.6154831e-02	  -1.1403010e-01	  -2.4991778e-02	
   5.3350000e+01	   8.2374954e-02	  -1.0793259e-01	  -1.5907929e-02	
   5.3405000e+01	   9.0182668e-02	  -1.0076934e-01	  -4.9580491e-03	
   5.3460000e+01	   9.9615308e-02	  -9.2556555e-02	   7.7881280e-03	
   5.3515000e+01	   1.1066329e-01	  -8.3339367e-02	   2.2203827e-02	
   5.3570000e+01	   1.2326246e-01	  -7.3194827e-02	   3.8097659e-02	
   5.3625000e+01	   1.3729396e-01	  -6.2226637e-02	   5.5214689e-02	
   5.3680000e+01	   1.5259308e-01	  -5.0550698e-02	   7.3248599e-02	
   5.3735000e+01	   1.6896542e-01	  -3.8275640e-02	   9.1864366e-02	
   5.3790000e+01	   1.8620528e-01	  -2.5485161e-02	   1.1072672e-01	
   5.3845000e+01	   2.0411100e-01	  -1.2227127e-02	   1.2952735e-01	
   5.3900000e+01	   2.2249475e-01	   1.4892756e-03	   1.4800492e-01	
   5.3955000e+01	   2.4118616e-01	   1.5689164e-02	   1.6595485e-01	
   5.4010000e+01	   2.6003012e-01	   3.0422120e-02	   1.8322853e-01	
   5.4065000e+01	   2.7887995e-01	   4.5748957e-02	   1.9972439e-01	
   5.4120000e+01	   2.9758799e-01	   6.1726520e-02	   2.1537454e-01	
   5.4175000e+01	   3.1599561e-01	   7.8391454e-02	   2.3013023e-01	
   5.4230000e+01	   3.3392454e-01	   9.5745016e-02	   2.4394810e-01	
   5.4285000e+01	   3.5117245e-01	   1.1374364e-01	   2.5677989e-01	
   5.4340000e+01	   3.6751669e-01	   1.3230038e-01	   2.6856882e-01	
   5.4395000e+01	   3.8272761e-01	   1.5129735e-01	   2.7925460e-01	
   5.4450000e+01	   3.9658888e-01	   1.7060281e-01	   2.8878542e-01	
   5.4505000e+01	   4.0891947e-01	   1.9008540e-01	   2.9713261e-01	
   5.4560000e+01	   4.1959156e-01	   2.0962244e-01	   3.0430384e-01	
   5.4615000e+01	   4.2854130e-01	   2.2910292e-01	   3.1035143e-01	
   5.4670000e+01	   4.3577131e-01	   2.4842647e-01	   3.1537310e-01	
   5.4725000e+01	   4.4134540e-01	   2.6749865e-01	   3.1950478e-01	
   5.4780000e+01	   4.4537702e-01	   2.8622325e-01	   3.2290723e-01	
   5.4835000e+01	   4.4801321e-01	   3.0449185e-01	   3.2574977e-01	
   5.4890000e+01	   4.4941566e-01	   3.2217190e-01	   3.2819379e-01	
   5.4945000e+01	   4.4974127e-01	   3.3909608e-01	   3.3037721e-01	
   5.5000000e+01	   4.4912609e-01	   3.5505846e-01	   3.3240155e-01	
   5.5055000e+01	   4.4767728e-01	   3.6982197e-01	   3.3432480e-01	
   5.5110000e+01	   4.4547555e-01	   3.8313755e-01	   3.3616281e-01	
   5.5165000e+01	   4.4258591e-01	   3.9477031e-01	   3.3789930e-01	
   5.5220000e+01	   4.3907129e-01	   4.0452653e-01	   3.3950130e-01	
   5.5275000e+01	   4.3500413e-01	   4.1227523e-01	   3.4093506e-01	
   5.5330000e+01	   4.3047298e-01	   4.1796102e-01	   3.4217788e-01	
   5.5385000e+01	   4.2558371e-01	   4.2160667e-01	   3.4322422e-01	
   5.5440000e+01	   4.2045555e-01	   4.2330565e-01	   3.4408755e-01	
   5.5495000e+01	   4.1521357e-01	   4.2320524e-01	   3.4479836e-01	
   5.5550000e+01	   4.0997848e-01	   4.2148253e-01	   3.4539722e-01	
   5.5605000e+01	   4.0485512e-01	   4.1831784e-01	   3.4592305e-01	
   5.5660000e+01	   3.9992147e-01	   4.1387142e-01	   3.4640016e-01	
   5.5715000e+01	   3.9522031e-01	   4.0826764e-01	   3.4682831e-01	
   5.5770000e+01	   3.9075619e-01	   4.0158821e-01	   3.4717834e-01	
   5.5825000e+01	   3.8650038e-01	   3.9387455e-01	   3.4739485e-01	
   5.5880000e+01	   3.8240446e-01	   3.8513929e-01	   3.4740651e-01	
   5.5935000e+01	   3.7841904e-01	   3.7538453e-01	   3.4714294e-01	
   5.5990000e+01	   3.7451151e-01	   3.6462224e-01	   3.4655333e-01	
   5.6045000e+01	   3.7067818e-01	   3.5289221e-01	   3.4562055e-01	
   5.6100000e+01	   3.6694916e-01	   3.4027469e-01	   3.4436641e-01	
   5.6155000e+01	   3.6338634e-01	   3.2689634e-01	   3.4284791e-01	
   5.6210000e+01	   3.6007513e-01	   3.1292856e-01	   3.4114606e-01	
   5.6265000e+01	   3.5711089e-01	   2.9857742e-01	   3.3934986e-01	
   5.6320000e+01	   3.5458106e-01	   2.8406716e-01	   3.3753838e-01	
   5.6375000e+01	   3.5254560e-01	   2.6962157e-01	   3.3576496e-01	
   5.6430000e+01	   3.5101897e-01	   2.5544632e-01	   3.3404577e-01	
   5.6485000e+01	   3.4995702e-01	   2.4171326e-01	   3.3235347e-01	
   5.6540000e+01	   3.4925307e-01	   2.2854866e-01	   3.3061742e-01	
   5.6595000e+01	   3.4874572e-01	   2.1602969e-01	   3.2873322e-01	
   5.6650000e+01	   3.4823663e-01	   2.0419059e-01	   3.2658078e-01	
   5.6705000e+01	   3.4751276e-01	   1.9303466e-01	   3.2404477e-01	
   5.6760000e+01	   3.4636725e-01	   1.8254582e-01	   3.2103059e-01	
   5.6815000e+01	   3.4461608e-01	   1.7269597e-01	   3.1747306e-01	
   5.6870000e+01	   3.4210922e-01	   1.6344717e-01	   3.1333894e-01	
   5.6925000e+01	   3.3873567e-01	   1.5474940e-01	   3.0862492e-01	
   5.6980000e+01	   3.3442260e-01	   1.4653618e-01	   3.0335245e-01	
   5.7035000e+01	   3.2912995e-01	   1.3872172e-01	   2.9755982e-01	
   5.7090000e+01	   3.2284323e-01	   1.3120248e-01	   2.9129242e-01	
   5.7145000e+01	   3.1556698e-01	   1.2386424e-01	   2.8459286e-01	
   5.7200000e+01	   3.0732100e-01	   1.1659474e-01	   2.7749388e-01	
   5.7255000e+01	   2.9814133e-01	   1.0929997e-01	   2.7001686e-01	
   5.7310000e+01	   2.8808606e-01	   1.0192107e-01	   2.6217656e-01	
   5.7365000e+01	   2.7724415e-01	   9.4448793e-02	   2.5399010e-01	
   5.7420000e+01	   2.6574345e-01	   8.6932691e-02	   2.4548639e-01	
   5.7475000e+01	   2.5375493e-01	   7.9483138e-02	   2.3671324e-01	
   5.7530000e+01	   2.4149144e-01	   7.2265278e-02	   2.2774108e-01	
   5.7585000e+01	   2.2920036e-01	   6.5485796e-02	   2.1866284e-01	
   5.7640000e+01	   2.1715053e-01	   5.9374041e-02	   2.0959037e-01	
   5.7695000e+01	   2.0561557e-01	   5.4160618e-02	   2.0064815e-01	
   5.7750000e+01	   1.9485754e-01	   5.0057648e-02	   1.9196593e-01	
   5.7805000e+01	   1.8511440e-01	   4.7244495e-02	   1.8367242e-01	
   5.7860000e+01	   1.7659363e-01	   4.5862191e-02	   1.7589188e-01	
   5.7915000e+01	   1.6947358e-01	   4.6018279e-02	   1.6874558e-01	
   5.7970000e+01	   1.6391175e-01	   4.7799140e-02	   1.6235737e-01	
   5.8025000e+01	   1.6005573e-01	   5.1282979e-02	   1.5686095e-01	
   5.8080000e+01	   1.5805098e-01	   5.6548281e-02	   1.5240461e-01	
   5.8135000e+01	   1.5804241e-01	   6.3676456e-02	   1.4915024e-01	
   5.8190000e+01	   1.6017032e-01	   7.2748230e-02	   1.4726554e-01	
   5.8245000e+01	   1.6456256e-01	   8.3833021e-02	   1.4691155e-01	
   5.8300000e+01	   1.7132460e-01	   9.6972522e-02	   1.4822810e-01	
   5.8355000e+01	   1.8052910e-01	   1.1216268e-01	   1.5132068e-01	
   5.8410000e+01	   1.9220747e-01	   1.2933922e-01	   1.5625063e-01	
   5.8465000e+01	   2.0634595e-01	   1.4837119e-01	   1.6303093e-01	
   5.8520000e+01	   2.2288803e-01	   1.6906536e-01	   1.7162944e-01	
   5.8575000e+01	   2.4174397e-01	   1.9118256e-01	   1.8198151e-01	
   5.8630000e+01	   2.6280550e-01	   2.1446274e-01	   1.9401078e-01	
   5.8685000e+01	   2.8596136e-01	   2.3865209e-01	   2.0765247e-01	
   5.8740000e+01	   3.1110839e-01	   2.6352352e-01	   2.2287070e-01	
   5.8795000e+01	   3.3815515e-01	   2.8888557e-01	   2.3966366e-01	
   5.8850000e+01	   3.6701874e-01	   3.1458001e-01	   2.5805619e-01	
   5.8905000e+01	   3.9761721e-01	   3.4047148e-01	   2.7808310e-01	
   5.8960000e+01	   4.2985909e-01	   3.6643144e-01	   2.9976719e-01	
   5.9015000e+01	   4.6363108e-01	   3.9231846e-01	   3.2309622e-01	
   5.9070000e+01	   4.9878585e-01	   4.1795998e-01	   3.4800357e-01	
   5.9125000e+01	   5.3513372e-01	   4.4314245e-01	   3.7435601e-01	
   5.9180000e+01	   5.7244098e-01	   4.6761397e-01	   4.0194972e-01	
   5.9235000e+01	   6.1043700e-01	   4.9109818e-01	   4.3051541e-01	
   5.9290000e+01	   6.4882958e-01	   5.1331610e-01	   4.5973307e-01	
   5.9345000e+01	   6.8732396e-01	   5.3401149e-01	   4.8925397e-01	
   5.9400000e+01	   7.2564002e-01	   5.5297539e-01	   5.1872386e-01	
   5.9455000e+01	   7.6352336e-01	   5.7006559e-01	   5.4780134e-01	
   5.9510000e+01	   8.0074935e-01	   5.8521804e-01	   5.7616955e-01	
   5.9565000e+01	   8.3712102e-01	   5.9844923e-01	   6.0354229e-01	
   5.9620000e+01	   8.7246250e-01	   6.0985091e-01	   6.2966596e-01	
   5.9675000e+01	   9.0660985e-01	   6.1957807e-01	   6.5431818e-01	
   5.9730000e+01	   9.3940137e-01	   6.2783203e-01	   6.7730475e-01	
   5.9785000e+01	   9.7066999e-01	   6.3484129e-01	   6.9845800e-01	
   5.9840000e+01	   1.0002398e+00	   6.4084383e-01	   7.1763848e-01	
   5.9895000e+01	   1.0279282e+00	   6.4607284e-01	   7.3474004e-01	
   5.9950000e+01	   1.0535542e+00	   6.5074720e-01	   7.4969793e-01	
   6.0005000e+01	   1.0769518e+00	   6.5506754e-01	   7.6249776e-01	
   6.0060000e+01	   1.0979855e+00	   6.5921775e-01	   7.7318205e-01	
   6.0115000e+01	   1.1165628e+00	   6.6336924e-01	   7.8185024e-01	
   6.0170000e+01	   1.1326410e+00	   6.6768433e-01	   7.8865015e-01	
   6.0225000e+01	   1.1462285e+00	   6.7231626e-01	   7.9376217e-01	
   6.0280000e+01	   1.1573798e+00	   6.7740428e-01	   7.9737928e-01	
   6.0335000e+01	   1.1661861e+00	   6.8306368e-01	   7.9968673e-01	
   6.0390000e+01	   1.1727608e+00	   6.8937311e-01	   8.0084407e-01	
   6.0445000e+01	   1.1772257e+00	   6.9636304e-01	   8.0097297e-01	
   6.0500000e+01	   1.1796979e+00	   7.0400794e-01	   8.0015267e-01	
   6.0555000e+01	   1.1802819e+00	   7.1222372e-01	   7.9842359e-01	
   6.0610000e+01	   1.1790681e+00	   7.2087315e-01	   7.9579803e-01	
   6.0665000e+01	   1.1761401e+00	   7.2978184e-01	   7.9227710e-01	
   6.0720000e+01	   1.1715876e+00	   7.3876355e-01	   7.8787107e-01	
   6.0775000e+01	   1.1655227e+00	   7.4764851e-01	   7.8261867e-01	
   6.0830000e+01	   1.1580923e+00	   7.5630709e-01	   7.7660118e-01	
   6.0885000e+01	   1.1494858e+00	   7.6466275e-01	   7.6994906e-01	
   6.0940000e+01	   1.1399348e+00	   7.7269238e-01	   7.6283991e-01	
   6.0995000e+01	   1.1297046e+00	   7.8041581e-01	   7.5548761e-01	
   6.1050000e+01	   1.1190796e+00	   7.8787840e-01	   7.4812402e-01	
   6.1105000e+01	   1.1083430e+00	   7.9513169e-01	   7.4097629e-01	
   6.1160000e+01	   1.0977548e+00	   8.0221579e-01	   7.3424363e-01	
   6.1215000e+01	   1.0875299e+00	   8.0914543e-01	   7.2807767e-01	
   6.1270000e+01	   1.0778225e+00	   8.1589977e-01	   7.2256997e-01	
   6.1325000e+01	   1.0687202e+00	   8.2241789e-01	   7.1774971e-01	
   6.1380000e+01	   1.0602491e+00	   8.2860215e-01	   7.1359205e-01	
   6.1435000e+01	   1.0523872e+00	   8.3432956e-01	   7.1003376e-01	
   6.1490000e+01	   1.0450806e+00	   8.3946692e-01	   7.0699087e-01	
   6.1545000e+01	   1.0382593e+00	   8.4388446e-01	   7.0437321e-01	
   6.1600000e+01	   1.0318478e+00	   8.4746459e-01	   7.0209258e-01	
   6.1655000e+01	   1.0257713e+00	   8.5010478e-01	   7.0006334e-01	
   6.1710000e+01	   1.0199553e+00	   8.5171587e-01	   6.9819700e-01	
   6.1765000e+01	   1.0143218e+00	   8.5221781e-01	   6.9639518e-01	
   6.1820000e+01	   1.0087838e+00	   8.5153504e-01	   6.9454427e-01	
   6.1875000e+01	   1.0032418e+00	   8.4959239e-01	   6.9251335e-01	
   6.1930000e+01	   9.9758464e-01	   8.4631330e-01	   6.9015556e-01	
   6.1985000e+01	   9.9169561e-01	   8.4162347e-01	   6.8731413e-01	
   6.2040000e+01	   9.8546401e-01	   8.3546097e-01	   6.8383418e-01	
   6.2095000e+01	   9.7879923e-01	   8.2778999e-01	   6.7957901e-01	
   6.2150000e+01	   9.7164227e-01	   8.1861321e-01	   6.7444640e-01	
   6.2205000e+01	   9.6397133e-01	   8.0797918e-01	   6.6837956e-01	
   6.2260000e+01	   9.5580116e-01	   7.9598468e-01	   6.6136947e-01	
   6.2315000e+01	   9.4717766e-01	   7.8277363e-01	   6.5344829e-01	
   6.2370000e+01	   9.3816839e-01	   7.6853428e-01	   6.4467604e-01	
   6.2425000e+01	   9.2884971e-01	   7.5349445e-01	   6.3512483e-01	
   6.2480000e+01	   9.1929264e-01	   7.3791232e-01	   6.2486393e-01	
   6.2535000e+01	   9.0955023e-01	   7.2206170e-01	   6.1394816e-01	
   6.2590000e+01	   8.9964947e-01	   7.0621505e-01	   6.0241145e-01	
   6.2645000e+01	   8.8958976e-01	   6.9062987e-01	   5.9026774e-01	
   6.2700000e+01	   8.7934880e-01	   6.7554247e-01	   5.7751988e-01	
   6.2755000e+01	   8.6889406e-01	   6.6116952e-01	   5.6417357e-01	
   6.2810000e+01	   8.5819626e-01	   6.4771423e-01	   5.5025047e-01	
   6.2865000e+01	   8.4724143e-01	   6.3537302e-01	   5.3579582e-01	
   6.2920000e+01	   8.3603923e-01	   6.2434054e-01	   5.2087942e-01	
   6.2975000e+01	   8.2462658e-01	   6.1481166e-01	   5.0559094e-01	
   6.3030000e+01	   8.1306597e-01	   6.0697956e-01	   4.9003152e-01	
   6.3085000e+01	   8.0143855e-01	   6.0102926e-01	   4.7430368e-01	
   6.3140000e+01	   7.8983366e-01	   5.9712682e-01	   4.5850163e-01	
   6.3195000e+01	   7.7833672e-01	   5.9540361e-01	   4.4270294e-01	
   6.3250000e+01	   7.6701703e-01	   5.9593654e-01	   4.2696163e-01	
   6.3305000e+01	   7.5591742e-01	   5.9872802e-01	   4.1130331e-01	
   6.3360000e+01	   7.4504833e-01	   6.0369301e-01	   3.9572533e-01	
   6.3415000e+01	   7.3438950e-01	   6.1065988e-01	   3.8020486e-01	
   6.3470000e+01	   7.2389883e-01	   6.1938534e-01	   3.6471486e-01	
   6.3525000e+01	   7.1352487e-01	   6.2957711e-01	   3.4924303e-01	
   6.3580000e+01	   7.0321882e-01	   6.4091717e-01	   3.3380639e-01	
   6.3635000e+01	   6.9294379e-01	   6.5308052e-01	   3.1845722e-01	
   6.3690000e+01	   6.8267931e-01	   6.6574664e-01	   3.0327994e-01	
   6.3745000e+01	   6.7242001e-01	   6.7860226e-01	   2.8838211e-01	
   6.3800000e+01	   6.6216851e-01	   6.9133832e-01	   2.7388240e-01	
   6.3855000e+01	   6.5192438e-01	   7.0364590e-01	   2.5989770e-01	
   6.3910000e+01	   6.4167243e-01	   7.1521594e-01	   2.4653079e-01	
   6.3965000e+01	   6.3137302e-01	   7.2574435e-01	   2.3386048e-01	
   6.4020000e+01	   6.2095688e-01	   7.3494214e-01	   2.2193564e-01	
   6.4075000e+01	   6.1032646e-01	   7.4254925e-01	   2.1077412e-01	
   6.4130000e+01	   5.9936451e-01	   7.4834993e-01	   2.0036645e-01	
   6.4185000e+01	   5.8794846e-01	   7.5218612e-01	   1.9068382e-01	
   6.4240000e+01	   5.7596648e-01	   7.5396608e-01	   1.8168873e-01	
   6.4295000e+01	   5.6333110e-01	   7.5366767e-01	   1.7334562e-01	
   6.4350000e+01	   5.4998786e-01	   7.5133605e-01	   1.6562721e-01	
   6.4405000e+01	   5.3591792e-01	   7.4707488e-01	   1.5851374e-01	
   6.4460000e+01	   5.2113582e-01	   7.4103098e-01	   1.5198499e-01	
   6.4515000e+01	   5.0568346e-01	   7.3337500e-01	   1.4600865e-01	
   6.4570000e+01	   4.8962066e-01	   7.2428106e-01	   1.4052876e-01	
   6.4625000e+01	   4.7301231e-01	   7.1390812e-01	   1.3545763e-01	
   6.4680000e+01	   4.5591412e-01	   7.0238609e-01	   1.3067354e-01	
   6.4735000e+01	   4.3836120e-01	   6.8980852e-01	   1.2602476e-01	
   6.4790000e+01	   4.2036383e-01	   6.7623263e-01	   1.2133959e-01	
   6.4845000e+01	   4.0191206e-01	   6.6168757e-01	   1.1644221e-01	
   6.4900000e+01	   3.8298838e-01	   6.4619087e-01	   1.1117264e-01	
   6.4955000e+01	   3.6358402e-01	   6.2977057e-01	   1.0540689e-01	
   6.5010000e+01	   3.4371370e-01	   6.1248671e-01	   9.9071070e-02	
   6.5065000e+01	   3.2342444e-01	   5.9444568e-01	   9.2145522e-02	
   6.5120000e+01	   3.0279678e-01	   5.7580349e-01	   8.4659017e-02	
   6.5175000e+01	   2.8193891e-01	   5.5675775e-01	   7.6675759e-02	
   6.5230000e+01	   2.6097587e-01	   5.3753125e-01	   6.8278782e-02	
   6.5285000e+01	   2.4003665e-01	   5.1835197e-01	   5.9553576e-02	
   6.5340000e+01	   2.1924189e-01	   4.9943446e-01	   5.0574909e-02	
   6.5395000e+01	   1.9869504e-01	   4.8096647e-01	   4.1398234e-02	
   6.5450000e+01	   1.7847939e-01	   4.6310327e-01	   3.2056472e-02	
   6.5505000e+01	   1.5866237e-01	   4.4596997e-01	   2.2563373e-02	
   6.5560000e+01	   1.3930594e-01	   4.2966931e-01	   1.2923487e-02	
   6.5615000e+01	   1.2047941e-01	   4.1429137e-01	   3.1456239e-03	
   6.5670000e+01	   1.0226997e-01	   3.9992214e-01	  -6.7458680e-03	
   6.5725000e+01	   8.4787172e-02	   3.8664790e-01	  -1.6706466e-02	
   6.5780000e+01	   6.8159676e-02	   3.7455358e-01	  -2.6674248e-02	
   6.5835000e+01	   5.2525585e-02	   3.6371510e-01	  -3.6578488e-02	
   6.5890000e+01	   3.8019075e-02	   3.5418729e-01	  -4.6352205e-02	
   6.5945000e+01	   2.4756684e-02	   3.4599109e-01	  -5.5946146e-02	
   6.6000000e+01	   1.2826404e-02	   3.3910451e-01	  -6.5340268e-02	
   6.6055000e+01	   2.2828360e-03	   3.3346187e-01	  -7.4547963e-02	
   6.6110000e+01	  -6.8495425e-03	   3.2896281e-01	  -8.3609974e-02	
   6.6165000e+01	  -1.4566311e-02	   3.2548829e-01	  -9.2579649e-02	
   6.6220000e+01	  -2.0870981e-02	   3.2291828e-01	  -1.0150547e-01	
   6.6275000e+01	  -2.5765718e-02	   3.2114675e-01	  -1.1041714e-01	
   6.6330000e+01	  -2.9247215e-02	   3.2009061e-01	  -1.1931888e-01	
   6.6385000e+01	  -3.1307430e-02	   3.1969085e-01	  -1.2819126e-01	
   6.6440000e+01	  -3.1938179e-02	   3.1990487e-01	  -1.3700061e-01	
   6.6495000e+01	  -3.1138813e-02	   3.2069188e-01	  -1.4571207e-01	
   6.6550000e+01	  -2.8926002e-02	   3.2199592e-01	  -1.5430076e-01	
   6.6605000e+01	  -2.5343716e-02	   3.2373175e-01	  -1.6275764e-01	
   6.6660000e+01	  -2.0470743e-02	   3.2577798e-01	  -1.7108889e-01	
   6.6715000e+01	  -1.4422837e-02	   3.2797933e-01	  -1.7930993e-01	
   6.6770000e+01	  -7.3475750e-03	   3.3015795e-01	  -1.8743561e-01	
   6.6825000e+01	   5.8729913e-04	   3.3213146e-01	  -1.9546787e-01	
   6.6880000e+01	   9.2082256e-03	   3.3373309e-01	  -2.0338448e-01	
   6.6935000e+01	   1.8348392e-02	   3.3482957e-01	  -2.1113296e-01	
   6.6990000e+01	   2.7856057e-02	   3.3533473e-01	  -2.1863269e-01	
   6.7045000e+01	   3.7598374e-02	   3.3521782e-01	  -2.2578477e-01	
   6.7100000e+01	   4.7461128e-02	   3.3450442e-01	  -2.3248684e-01	
   6.7155000e+01	   5.7345246e-02	   3.3326969e-01	  -2.3864887e-01	
   6.7210000e+01	   6.7162064e-02	   3.3162707e-01	  -2.4420560e-01	
   6.7265000e+01	   7.6830001e-02	   3.2971680e-01	  -2.4912299e-01	
   6.7320000e+01	   8.6274468e-02	   3.2769649e-01	  -2.5339744e-01	
   6.7375000e+01	   9.5431505e-02	   3.2573631e-01	  -2.5704792e-01	
   6.7430000e+01	   1.0425458e-01	   3.2402075e-01	  -2.6010238e-01	
   6.7485000e+01	   1.1272254e-01	   3.2275551e-01	  -2.6258179e-01	
   6.7540000e+01	   1.2084577e-01	   3.2217297e-01	  -2.6448785e-01	
   6.7595000e+01	   1.2866802e-01	   3.2253019e-01	  -2.6579896e-01	
   6.7650000e+01	   1.3626351e-01	   3.2409855e-01	  -2.6647471e-01	
   6.7705000e+01	   1.4372927e-01	   3.2714683e-01	  -2.6646646e-01	
   6.7760000e+01	   1.5117237e-01	   3.3191912e-01	  -2.6573132e-01	
   6.7815000e+01	   1.5869302e-01	   3.3860929e-01	  -2.6424621e-01	
   6.7870000e+01	   1.6636633e-01	   3.4733643e-01	  -2.6201826e-01	
   6.7925000e+01	   1.7422684e-01	   3.5812656e-01	  -2.5908952e-01	
   6.7980000e+01	   1.8225934e-01	   3.7090415e-01	  -2.5553572e-01	
   6.8035000e+01	   1.9039771e-01	   3.8549616e-01	  -2.5145848e-01	
   6.8090000e+01	   1.9853328e-01	   4.0164829e-01	  -2.4697101e-01	
   6.8145000e+01	   2.0653081e-01	   4.1904955e-01	  -2.4218005e-01	
   6.8200000e+01	   2.1424756e-01	   4.3735818e-01	  -2.3717034e-01	
   6.8255000e+01	   2.2155023e-01	   4.5622341e-01	  -2.3199612e-01	
   6.8310000e+01	   2.2832686e-01	   4.7530142e-01	  -2.2668037e-01	
   6.8365000e+01	   2.3449276e-01	   4.9426611e-01	  -2.2121977e-01	
   6.8420000e+01	   2.3999027e-01	   5.1281499e-01	  -2.1559269e-01	
   6.8475000e+01	   2.4478268e-01	   5.3067080e-01	  -2.0976850e-01	
   6.8530000e+01	   2.4884426e-01	   5.4758015e-01	  -2.0371633e-01	
   6.8585000e+01	   2.5214958e-01	   5.6331214e-01	  -1.9741235e-01	
   6.8640000e+01	   2.5466493e-01	   5.7765869e-01	  -1.9084524e-01	
   6.8695000e+01	   2.5634413e-01	   5.9043658e-01	  -1.8401873e-01	
   6.8750000e+01	   2.5713060e-01	   6.0149126e-01	  -1.7694992e-01	
   6.8805000e+01	   2.5696611e-01	   6.1070214e-01	  -1.6966388e-01	
   6.8860000e+01	   2.5580318e-01	   6.1798856e-01	  -1.6218776e-01	
   6.8915000e+01	   2.5361664e-01	   6.2331558e-01	  -1.5454777e-01	
   6.8970000e+01	   2.5041081e-01	   6.2669872e-01	  -1.4677061e-01	
   6.9025000e+01	   2.4622161e-01	   6.2820665e-01	  -1.3888748e-01	
   6.9080000e+01	   2.4111449e-01	   6.2795982e-01	  -1.3093843e-01	
   6.9135000e+01	   2.3517905e-01	   6.2612370e-01	  -1.2297615e-01	
   6.9190000e+01	   2.2852144e-01	   6.2289725e-01	  -1.1506867e-01	
   6.9245000e+01	   2.2125677e-01	   6.1849862e-01	  -1.0729975e-01	
   6.9300000e+01	   2.1350366e-01	   6.1315161e-01	  -9.9765551e-02	
   6.9355000e+01	   2.0538176e-01	   6.0707672e-01	  -9.2567285e-02	
   6.9410000e+01	   1.9701240e-01	   6.0048963e-01	  -8.5800016e-02	
   6.9465000e+01	   1.8852153e-01	   5.9360617e-01	  -7.9538842e-02	
   6.9520000e+01	   1.8004297e-01	   5.8664897e-01	  -7.3826265e-02	
   6.9575000e+01	   1.7171874e-01	   5.7985077e-01	  -6.8665132e-02	
   6.9630000e+01	   1.6369532e-01	   5.7345243e-01	  -6.4018827e-02	
   6.9685000e+01	   1.5611650e-01	   5.6769551e-01	  -5.9817629e-02	
   6.9740000e+01	   1.4911402e-01	   5.6281044e-01	  -5.5969868e-02	
   6.9795000e+01	   1.4279760e-01	   5.5900152e-01	  -5.2376420e-02	
   6.9850000e+01	   1.3724631e-01	   5.5643315e-01	  -4.8945429e-02	
   6.9905000e+01	   1.3250361e-01	   5.5522146e-01	  -4.5603066e-02	
   6.9960000e+01	   1.2857766e-01	   5.5543363e-01	  -4.2298032e-02	
   7.0015000e+01	   1.2544776e-01	   5.5709415e-01	  -3.9000008e-02	
   7.0070000e+01	   1.2307516e-01	   5.6019506e-01	  -3.5693224e-02	
   7.0125000e+01	   1.2141475e-01	   5.6470586e-01	  -3.2367464e-02	
   7.0180000e+01	   1.2042341e-01	   5.7057983e-01	  -2.9010063e-02	
   7.0235000e+01	   1.2006376e-01	   5.7775554e-01	  -2.5601347e-02	
   7.0290000e+01	   1.2030330e-01	   5.8615483e-01	  -2.2113643e-02	
   7.0345000e+01	   1.2111005e-01	   5.9567886e-01	  -1.8512543e-02	
   7.0400000e+01	   1.2244540e-01	   6.0620348e-01	  -1.4758753e-02	
   7.0455000e+01	   1.2425545e-01	   6.1757400e-01	  -1.0809663e-02	
   7.0510000e+01	   1.2646239e-01	   6.2960079e-01	  -6.6211145e-03	
   7.0565000e+01	   1.2895851e-01	   6.4205806e-01	  -2.1497516e-03	
   7.0620000e+01	   1.3160499e-01	   6.5468955e-01	   2.6450310e-03	
   7.0675000e+01	   1.3423706e-01	   6.6722294e-01	   7.8009757e-03	
   7.0730000e+01	   1.3667534e-01	   6.7939081e-01	   1.3355248e-02	
   7.0785000e+01	   1.3874117e-01	   6.9095228e-01	   1.9348041e-02	
   7.0840000e+01	   1.4027215e-01	   7.0170911e-01	   2.5824603e-02	
   7.0895000e+01	   1.4113399e-01	   7.1151282e-01	   3.2832301e-02	
   7.0950000e+01	   1.4122617e-01	   7.2026318e-01	   4.0411866e-02	
   7.1005000e+01	   1.4048190e-01	   7.2790034e-01	   4.8585933e-02	
   7.1060000e+01	   1.3886377e-01	   7.3439362e-01	   5.7349084e-02	
   7.1115000e+01	   1.3635571e-01	   7.3972943e-01	   6.6661165e-02	
   7.1170000e+01	   1.3295226e-01	   7.4390061e-01	   7.6443821e-02	
   7.1225000e+01	   1.2864755e-01	   7.4689853e-01	   8.6580584e-02	
   7.1280000e+01	   1.2342765e-01	   7.4870932e-01	   9.6921194e-02	
   7.1335000e+01	   1.1726942e-01	   7.4931514e-01	   1.0729035e-01	
   7.1390000e+01	   1.1014679e-01	   7.4870121e-01	   1.1750063e-01	
   7.1445000e+01	   1.0204297e-01	   7.4686767e-01	   1.2736862e-01	
   7.1500000e+01	   9.2964967e-02	   7.4384215e-01	   1.3673170e-01	
   7.1555000e+01	   8.2956026e-02	   7.3968715e-01	   1.4546116e-01	
   7.1610000e+01	   7.2102687e-02	   7.3449955e-01	   1.5346916e-01	
   7.1665000e+01	   6.0535106e-02	   7.2840586e-01	   1.6071014e-01	
   7.1720000e+01	   4.8420797e-02	   7.2155692e-01	   1.6717746e-01	
   7.1775000e+01	   3.5952730e-02	   7.1412263e-01	   1.7289563e-01	
   7.1830000e+01	   2.3332931e-02	   7.0628453e-01	   1.7790875e-01	
   7.1885000e+01	   1.0753832e-02	   6.9822633e-01	   1.8226784e-01	
   7.1940000e+01	  -1.6190916e-03	   6.9012381e-01	   1.8601968e-01	
   7.1995000e+01	  -1.3660053e-02	   6.8213523e-01	   1.8919917e-01	
   7.2050000e+01	  -2.5288982e-02	   6.7439378e-01	   1.9182750e-01	
   7.2105000e+01	  -3.6469659e-02	   6.6700477e-01	   1.9391786e-01	
   7.2160000e+01	  -4.7200191e-02	   6.6004949e-01	   1.9548834e-01	
   7.2215000e+01	  -5.7498931e-02	   6.5359395e-01	   1.9657707e-01	
   7.2270000e+01	  -6.7390878e-02	   6.4769722e-01	   1.9725267e-01	
   7.2325000e+01	  -7.6898675e-02	   6.4241396e-01	   1.9761589e-01	
   7.2380000e+01	  -8.6039506e-02	   6.3779008e-01	   1.9779255e-01	
   7.2435000e+01	  -9.4826954e-02	   6.3385411e-01	   1.9792088e-01	
   7.2490000e+01	  -1.0327595e-01	   6.3060739e-01	   1.9813683e-01	
   7.2545000e+01	  -1.1140908e-01	   6.2801503e-01	   1.9855938e-01	
   7.2600000e+01	  -1.1926280e-01	   6.2599878e-01	   1.9927724e-01	
   7.2655000e+01	  -1.2689257e-01	   6.2443300e-01	   2.0033890e-01	
   7.2710000e+01	  -1.3437632e-01	   6.2314555e-01	   2.0174750e-01	
   7.2765000e+01	  -1.4181501e-01	   6.2192539e-01	   2.0346117e-01	
   7.2820000e+01	  -1.4932817e-01	   6.2053717e-01	   2.0539908e-01	
   7.2875000e+01	  -1.5704322e-01	   6.1874104e-01	   2.0745375e-01	
   7.2930000e+01	  -1.6508063e-01	   6.1631435e-01	   2.0950728e-01	
   7.2985000e+01	  -1.7353957e-01	   6.1307110e-01	   2.1144750e-01	
   7.3040000e+01	  -1.8248753e-01	   6.0887542e-01	   2.1318025e-01	
   7.3095000e+01	  -1.9195506e-01	   6.0364775e-01	   2.1463630e-01	
   7.3150000e+01	  -2.0193536e-01	   5.9736421e-01	   2.1577261e-01	
   7.3205000e+01	  -2.1238825e-01	   5.9004944e-01	   2.1656916e-01	
   7.3260000e+01	  -2.2324688e-01	   5.8176426e-01	   2.1702288e-01	
   7.3315000e+01	  -2.3442512e-01	   5.7259052e-01	   2.1714088e-01	
   7.3370000e+01	  -2.4582397e-01	   5.6261683e-01	   2.1693464e-01	
   7.3425000e+01	  -2.5733604e-01	   5.5192909e-01	   2.1641691e-01	
   7.3480000e+01	  -2.6884636e-01	   5.4060851e-01	   2.1560314e-01	
   7.3535000e+01	  -2.8022883e-01	   5.2873674e-01	   2.1451712e-01	
   7.3590000e+01	  -2.9134039e-01	   5.1640339e-01	   2.1319805e-01	
   7.3645000e+01	  -3.0201691e-01	   5.0371115e-01	   2.1170475e-01	
   7.3700000e+01	  -3.1207336e-01	   4.9077536e-01	   2.1011508e-01	
   7.3755000e+01	  -3.2130891e-01	   4.7771772e-01	   2.0852181e-01	
   7.3810000e+01	  -3.2951700e-01	   4.6465559e-01	   2.0702568e-01	
   7.3865000e+01	  -3.3649993e-01	   4.5168927e-01	   2.0572572e-01	
   7.3920000e+01	  -3.4208672e-01	   4.3888907e-01	   2.0470677e-01	
   7.3975000e+01	  -3.4615170e-01	   4.2628423e-01	   2.0402619e-01	
   7.4030000e+01	  -3.4863049e-01	   4.1385592e-01	   2.0370332e-01	
   7.4085000e+01	  -3.4953033e-01	   4.0153701e-01	   2.0371481e-01	
   7.4140000e+01	  -3.4893148e-01	   3.8922070e-01	   2.0399772e-01	
   7.4195000e+01	  -3.4697792e-01	   3.7677892e-01	   2.0446084e-01	
   7.4250000e+01	  -3.4385907e-01	   3.6408766e-01	   2.0500156e-01	
   7.4305000e+01	  -3.3978796e-01	   3.5105276e-01	   2.0552240e-01	
   7.4360000e+01	  -3.3498133e-01	   3.3762986e-01	   2.0594198e-01	
   7.4415000e+01	  -3.2964435e-01	   3.2383638e-01	   2.0619844e-01	
   7.4470000e+01	  -3.2396019e-01	   3.0975488e-01	   2.0624666e-01	
   7.4525000e+01	  -3.1808533e-01	   2.9552800e-01	   2.0605096e-01	
   7.4580000e+01	  -3.1215154e-01	   2.8134439e-01	   2.0557585e-01	
   7.4635000e+01	  -3.0627439e-01	   2.6741676e-01	   2.0477757e-01	
   7.4690000e+01	  -3.0056561e-01	   2.5395567e-01	   2.0359820e-01	
   7.4745000e+01	  -2.9514582e-01	   2.4114432e-01	   2.0196285e-01	
   7.4800000e+01	  -2.9015326e-01	   2.2911931e-01	   1.9978064e-01	
   7.4855000e+01	  -2.8574462e-01	   2.1796080e-01	   1.9695113e-01	
   7.4910000e+01	  -2.8208609e-01	   2.0769312e-01	   1.9337721e-01	
   7.4965000e+01	  -2.7933742e-01	   1.9829462e-01	   1.8898229e-01	
   7.5020000e+01	  -2.7763435e-01	   1.8971258e-01	   1.8372634e-01	
   7.5075000e+01	  -2.7707390e-01	   1.8187857e-01	   1.7761610e-01	
   7.5130000e+01	  -2.7770562e-01	   1.7472006e-01	   1.7070724e-01	
   7.5185000e+01	  -2.7953023e-01	   1.6816508e-01	   1.6309908e-01	
   7.5240000e+01	  -2.8250568e-01	   1.6213893e-01	   1.5492326e-01	
   7.5295000e+01	  -2.8655831e-01	   1.5655601e-01	   1.4632938e-01	
   7.5350000e+01	  -2.9159615e-01	   1.5131057e-01	   1.3747030e-01	
   7.5405000e+01	  -2.9752308e-01	   1.4626888e-01	   1.2848825e-01	
   7.5460000e+01	  -3.0425263e-01	   1.4126333e-01	   1.1950266e-01	
   7.5515000e+01	  -3.1171912e-01	   1.3609016e-01	   1.1060137e-01	
   7.5570000e+01	  -3.1988262e-01	   1.3051352e-01	   1.0183662e-01	
   7.5625000e+01	  -3.2872632e-01	   1.2427774e-01	   9.3227267e-02	
   7.5680000e+01	  -3.3824722e-01	   1.1712640e-01	   8.4767448e-02	
   7.5735000e+01	  -3.4844293e-01	   1.0882489e-01	   7.6439212e-02	
   7.5790000e+01	  -3.5929771e-01	   9.9182218e-02	   6.8224326e-02	
   7.5845000e+01	  -3.7077063e-01	   8.8068920e-02	   6.0111069e-02	
   7.5900000e+01	  -3.8278791e-01	   7.5428729e-02	   5.2095253e-02	
   7.5955000e+01	  -3.9524051e-01	   6.1283007e-02	   4.4176900e-02	
   7.6010000e+01	  -4.0798702e-01	   4.5728855e-02	   3.6354510e-02	
   7.6065000e+01	  -4.2086112e-01	   2.8932490e-02	   2.8619134e-02	
   7.6120000e+01	  -4.3368173e-01	   1.1118955e-02	   2.0950331e-02	
   7.6175000e+01	  -4.4626436e-01	  -7.4416825e-03	   1.3315371e-02	
   7.6230000e+01	  -4.5843089e-01	  -2.6450697e-02	   5.6725034e-03	
   7.6285000e+01	  -4.7001524e-01	  -4.5596349e-02	  -2.0211567e-03	
   7.6340000e+01	  -4.8086325e-01	  -6.4564746e-02	  -9.7977088e-03	
   7.6395000e+01	  -4.9082816e-01	  -8.3045488e-02	  -1.7664893e-02	
   7.6450000e+01	  -4.9976540e-01	  -1.0073600e-01	  -2.5594626e-02	
   7.6505000e+01	  -5.0752978e-01	  -1.1734822e-01	  -3.3517402e-02	
   7.6560000e+01	  -5.1397664e-01	  -1.3261764e-01	  -4.1324495e-02	
   7.6615000e+01	  -5.1896678e-01	  -1.4631244e-01	  -4.8876930e-02	
   7.6670000e+01	  -5.2237361e-01	  -1.5824242e-01	  -5.6018561e-02	
   7.6725000e+01	  -5.2409120e-01	  -1.6826885e-01	  -6.2591500e-02	
   7.6780000e+01	  -5.2404213e-01	  -1.7631528e-01	  -6.8452993e-02	
   7.6835000e+01	  -5.2218416e-01	  -1.8237513e-01	  -7.3491082e-02	
   7.6890000e+01	  -5.1851249e-01	  -1.8651080e-01	  -7.7634049e-02	
   7.6945000e+01	  -5.1305521e-01	  -1.8884259e-01	  -8.0849968e-02	
   7.7000000e+01	  -5.0586281e-01	  -1.8953083e-01	  -8.3137437e-02	
   7.7055000e+01	  -4.9699624e-01	  -1.8875695e-01	  -8.4512319e-02	
   7.7110000e+01	  -4.8651813e-01	  -1.8670756e-01	  -8.4995211e-02	
   7.7165000e+01	  -4.7448916e-01	  -1.8356325e-01	  -8.4602276e-02	
   7.7220000e+01	  -4.6096915e-01	  -1.7949176e-01	  -8.3340361e-02	
   7.7275000e+01	  -4.4602184e-01	  -1.7464543e-01	  -8.1206499e-02	
   7.7330000e+01	  -4.2972230e-01	  -1.6916224e-01	  -7.8191461e-02	
   7.7385000e+01	  -4.1216560e-01	  -1.6316957e-01	  -7.4286607e-02	
   7.7440000e+01	  -3.9347502e-01	  -1.5678952e-01	  -6.9493038e-02	
   7.7495000e+01	  -3.7380734e-01	  -1.5014397e-01	  -6.3831835e-02	
   7.7550000e+01	  -3.5335272e-01	  -1.4335540e-01	  -5.7352455e-02	
   7.7605000e+01	  -3.3232674e-01	  -1.3653973e-01	  -5.0135137e-02	
   7.7660000e+01	  -3.1095593e-01	  -1.2979313e-01	  -4.2286040e-02	
   7.7715000e+01	  -2.8946133e-01	  -1.2317922e-01	  -3.3928251e-02	
   7.7770000e+01	  -2.6804484e-01	  -1.1672178e-01	  -2.5192571e-02	
   7.7825000e+01	  -2.4688022e-01	  -1.1040469e-01	  -1.6210650e-02	
   7.7880000e+01	  -2.2610929e-01	  -1.0417984e-01	  -7.1122711e-03	
   7.7935000e+01	  -2.0584424e-01	  -9.7982930e-02	   1.9725406e-03	
   7.7990000e+01	  -1.8617604e-01	  -9.1753771e-02	   1.0908197e-02	
   7.8045000e+01	  -1.6718710e-01	  -8.5455400e-02	   1.9548123e-02	
   7.8100000e+01	  -1.4896386e-01	  -7.9088176e-02	   2.7732224e-02	
   7.8155000e+01	  -1.3160550e-01	  -7.2698012e-02	   3.5289477e-02	
   7.8210000e+01	  -1.1522665e-01	  -6.6377811e-02	   4.2047185e-02	
   7.8265000e+01	  -9.9953159e-02	  -6.0260061e-02	   4.7847204e-02	
   7.8320000e+01	  -8.5911827e-02	  -5.4500901e-02	   5.2566616e-02	
   7.8375000e+01	  -7.3216911e-02	  -4.9260134e-02	   5.6137294e-02	
   7.8430000e+01	  -6.1957753e-02	  -4.4682883e-02	   5.8558399e-02	
   7.8485000e+01	  -5.2190182e-02	  -4.0886285e-02	   5.9898813e-02	
   7.8540000e+01	  -4.3932499e-02	  -3.7952758e-02	   6.0289793e-02	
   7.8595000e+01	  -3.7166154e-02	  -3.5930566e-02	   5.9909433e-02	
   7.8650000e+01	  -3.1841287e-02	  -3.4840579e-02	   5.8960750e-02	
   7.8705000e+01	  -2.7886565e-02	  -3.4686032e-02	   5.7646679e-02	
   7.8760000e+01	  -2.5221487e-02	  -3.5462561e-02	   5.6146906e-02	
   7.8815000e+01	  -2.3768773e-02	  -3.7167862e-02	   5.4600631e-02	
   7.8870000e+01	  -2.3464199e-02	  -3.9809649e-02	   5.3097325e-02	
   7.8925000e+01	  -2.4260485e-02	  -4.3407948e-02	   5.1676751e-02	
   7.8980000e+01	  -2.6122509e-02	  -4.7988235e-02	   5.0338615e-02	
   7.9035000e+01	  -2.9014787e-02	  -5.3566841e-02	   4.9059155e-02	
   7.9090000e+01	  -3.2886348e-02	  -6.0134094e-02	   4.7809742e-02	
   7.9145000e+01	  -3.7658621e-02	  -6.7640310e-02	   4.6573390e-02	
   7.9200000e+01	  -4.3219769e-02	  -7.5986959e-02	   4.5356631e-02	
   7.9255000e+01	  -4.9426735e-02	  -8.5024079e-02	   4.4194442e-02	
   7.9310000e+01	  -5.6114284e-02	  -9.4555269e-02	   4.3146942e-02	
   7.9365000e+01	  -6.3107916e-02	  -1.0435055e-01	   4.2289127e-02	
   7.9420000e+01	  -7.0236246e-02	  -1.1416475e-01	   4.1697029e-02	
   7.9475000e+01	  -7.7340017e-02	  -1.2375754e-01	   4.1433590e-02	
   7.9530000e+01	  -8.4277717e-02	  -1.3291155e-01	   4.1536511e-02	
   7.9585000e+01	  -9.0928792e-02	  -1.4144590e-01	   4.2010035e-02	
   7.9640000e+01	  -9.7193906e-02	  -1.4922313e-01	   4.2822967e-02	
   7.9695000e+01	  -1.0299107e-01	  -1.5614886e-01	   4.3914217e-02	
   7.9750000e+01	  -1.0824861e-01	  -1.6216579e-01	   4.5204212e-02	
   7.9805000e+01	  -1.1289829e-01	  -1.6724512e-01	   4.6608303e-02	
   7.9860000e+01	  -1.1687147e-01	  -1.7137878e-01	   4.8048308e-02	
   7.9915000e+01	  -1.2009967e-01	  -1.7457475e-01	   4.9459808e-02	
   7.9970000e+01	  -1.2251988e-01	  -1.7685678e-01	   5.0794830e-02	
   8.0025000e+01	  -1.2408384e-01	  -1.7826774e-01	   5.2021666e-02	
   8.0080000e+01	  -1.2476856e-01	  -1.7887331e-01	   5.3124007e-02	
   8.0135000e+01	  -1.2458517e-01	  -1.7876427e-01	   5.4099827e-02	
   8.0190000e+01	  -1.2358358e-01	  -1.7805751e-01	   5.4958581e-02	
   8.0245000e+01	  -1.2185141e-01	  -1.7689546e-01	   5.5715918e-02	
   8.0300000e+01	  -1.1950571e-01	  -1.7544106e-01	   5.6388071e-02	
   8.0355000e+01	  -1.1667813e-01	  -1.7386638e-01	   5.6989832e-02	
   8.0410000e+01	  -1.1349732e-01	  -1.7233726e-01	   5.7537721e-02	
   8.0465000e+01	  -1.1007376e-01	  -1.7099912e-01	   5.8056038e-02	
   8.0520000e+01	  -1.0648950e-01	  -1.6996756e-01	   5.8581781e-02	
   8.0575000e+01	  -1.0279380e-01	  -1.6932324e-01	   5.9165512e-02	
   8.0630000e+01	  -9.9003823e-02	  -1.6911090e-01	   5.9867048e-02	
   8.0685000e+01	  -9.5109979e-02	  -1.6934362e-01	   6.0746154e-02	
   8.0740000e+01	  -9.1084717e-02	  -1.7001233e-01	   6.1849861e-02	
   8.0795000e+01	  -8.6893602e-02	  -1.7109753e-01	   6.3199591e-02	
   8.0850000e+01	  -8.2506159e-02	  -1.7257868e-01	   6.4782034e-02	
   8.0905000e+01	  -7.7903102e-02	  -1.7443815e-01	   6.6547604e-02	
   8.0960000e+01	  -7.3077047e-02	  -1.7665830e-01	   6.8418483e-02	
   8.1015000e+01	  -6.8026692e-02	  -1.7921306e-01	   7.0304432e-02	
   8.1070000e+01	  -6.2747809e-02	  -1.8205871e-01	   7.2120973e-02	
   8.1125000e+01	  -5.7225504e-02	  -1.8512773e-01	   7.3804071e-02	
   8.1180000e+01	  -5.1430493e-02	  -1.8832746e-01	   7.5317610e-02	
   8.1235000e+01	  -4.5319982e-02	  -1.9154375e-01	   7.6652522e-02	
   8.1290000e+01	  -3.8842868e-02	  -1.9465058e-01	   7.7818739e-02	
   8.1345000e+01	  -3.1949164e-02	  -1.9752444e-01	   7.8833156e-02	
   8.1400000e+01	  -2.4602594e-02	  -2.0005944e-01	   7.9708215e-02	
   8.1455000e+01	  -1.6793108e-02	  -2.0217891e-01	   8.0445097e-02	
   8.1510000e+01	  -8.5453425e-03	  -2.0384130e-01	   8.1032980e-02	
   8.1565000e+01	   7.9610478e-05	  -2.0503946e-01	   8.1453708e-02	
   8.1620000e+01	   8.9896697e-03	  -2.0579344e-01	   8.1691142e-02	
   8.1675000e+01	   1.8072939e-02	  -2.0613815e-01	   8.1744121e-02	
   8.1730000e+01	   2.7211162e-02	  -2.0610897e-01	   8.1639330e-02	
   8.1785000e+01	   3.6291772e-02	  -2.0572910e-01	   8.1438576e-02	
   8.1840000e+01	   4.5216493e-02	  -2.0500255e-01	   8.1237349e-02	
   8.1895000e+01	   5.3905937e-02	  -2.0391508e-01	   8.1155477e-02	
   8.1950000e+01	   6.2299771e-02	  -2.0244245e-01	   8.1322279e-02	
   8.2005000e+01	   7.0351925e-02	  -2.0056315e-01	   8.1858446e-02	
   8.2060000e+01	   7.8021470e-02	  -1.9827070e-01	   8.2857225e-02	
   8.2115000e+01	   8.5261578e-02	  -1.9558195e-01	   8.4368452e-02	
   8.2170000e+01	   9.2009936e-02	  -1.9253966e-01	   8.6388325e-02	
   8.2225000e+01	   9.8183838e-02	  -1.8920921e-01	   8.8856026e-02	
   8.2280000e+01	   1.0368241e-01	  -1.8566878e-01	   9.1658506e-02	
   8.2335000e+01	   1.0839657e-01	  -1.8199359e-01	   9.4645104e-02	
   8.2390000e+01	   1.1222399e-01	  -1.7823788e-01	   9.7650196e-02	
   8.2445000e+01	   1.1508418e-01	  -1.7442027e-01	   1.0051742e-01	
   8.2500000e+01	   1.1692929e-01	  -1.7051676e-01	   1.0311886e-01	
   8.2555000e+01	   1.1774928e-01	  -1.6646395e-01	   1.0536628e-01	
   8.2610000e+01	   1.1757143e-01	  -1.6217346e-01	   1.0721373e-01	
   8.2665000e+01	   1.1645452e-01	  -1.5755551e-01	   1.0865158e-01	
   8.2720000e+01	   1.1447849e-01	  -1.5254566e-01	   1.0969400e-01	
   8.2775000e+01	   1.1173175e-01	  -1.4712626e-01	   1.1036377e-01	
   8.2830000e+01	   1.0829819e-01	  -1.4133676e-01	   1.1067886e-01	
   8.2885000e+01	   1.0424656e-01	  -1.3527223e-01	   1.1064322e-01	
   8.2940000e+01	   9.9624842e-02	  -1.2907312e-01	   1.1024382e-01	
   8.2995000e+01	   9.4462195e-02	  -1.2290845e-01	   1.0945585e-01	
   8.3050000e+01	   8.8777942e-02	  -1.1695588e-01	   1.0825503e-01	
   8.3105000e+01	   8.2594122e-02	  -1.1138414e-01	   1.0663225e-01	
   8.3160000e+01	   7.5946992e-02	  -1.0634273e-01	   1.0460469e-01	
   8.3215000e+01	   6.8894307e-02	  -1.0195870e-01	   1.0222028e-01	
   8.3270000e+01	   6.1517163e-02	  -9.8336293e-02	   9.9555288e-02	
   8.3325000e+01	   5.3915894e-02	  -9.5557162e-02	   9.6705506e-02	
   8.3380000e+01	   4.6199611e-02	  -9.3682049e-02	   9.3771672e-02	
   8.3435000e+01	   3.8470559e-02	  -9.2755829e-02	   9.0843030e-02	
   8.3490000e+01	   3.0806998e-02	  -9.2815215e-02	   8.7984685e-02	
   8.3545000e+01	   2.3249347e-02	  -9.3896555e-02	   8.5231998e-02	
   8.3600000e+01	   1.5793176e-02	  -9.6041188e-02	   8.2591229e-02	
   8.3655000e+01	   8.3908438e-03	  -9.9296535e-02	   8.0044426e-02	
   8.3710000e+01	   9.6144029e-04	  -1.0371193e-01	   7.7557395e-02	
   8.3765000e+01	  -6.5938672e-03	  -1.0932997e-01	   7.5089207e-02	
   8.3820000e+01	  -1.4375323e-02	  -1.1617605e-01	   7.2600580e-02	
   8.3875000e+01	  -2.2470190e-02	  -1.2424847e-01	   7.0058670e-02	
   8.3930000e+01	  -3.0942036e-02	  -1.3351099e-01	   6.7437234e-02	
   8.3985000e+01	  -3.9824512e-02	  -1.4389013e-01	   6.4712767e-02	
   8.4040000e+01	  -4.9120300e-02	  -1.5527988e-01	   6.1858339e-02	
   8.4095000e+01	  -5.8805080e-02	  -1.6755401e-01	   5.8836995e-02	
   8.4150000e+01	  -6.8834845e-02	  -1.8058257e-01	   5.5596280e-02	
   8.4205000e+01	  -7.9153554e-02	  -1.9424653e-01	   5.2065209e-02	
   8.4260000e+01	  -8.9698147e-02	  -2.0844451e-01	   4.8154979e-02	
   8.4315000e+01	  -1.0039912e-01	  -2.2308914e-01	   4.3764509e-02	
   8.4370000e+01	  -1.1117669e-01	  -2.3809566e-01	   3.8791296e-02	
   8.4425000e+01	  -1.2193457e-01	  -2.5336790e-01	   3.3145656e-02	
   8.4480000e+01	  -1.3255505e-01	  -2.6878770e-01	   2.6763678e-02	
   8.4535000e+01	  -1.4289868e-01	  -2.8421125e-01	   1.9614754e-02	
   8.4590000e+01	  -1.5280921e-01	  -2.9947279e-01	   1.1703141e-02	
   8.4645000e+01	  -1.6212289e-01	  -3.1439413e-01	   3.0650390e-03	
   8.4700000e+01	  -1.7068034e-01	  -3.2879873e-01	  -6.2380323e-03	
   8.4755000e+01	  -1.7833949e-01	  -3.4252846e-01	  -1.6129256e-02	
   8.4810000e+01	  -1.8498777e-01	  -3.5545866e-01	  -2.6528315e-02	
   8.4865000e+01	  -1.9055116e-01	  -3.6750587e-01	  -3.7361784e-02	
   8.4920000e+01	  -1.9499775e-01	  -3.7862541e-01	  -4.8568643e-02	
   8.4975000e+01	  -1.9833411e-01	  -3.8879905e-01	  -6.0098776e-02	
   8.5030000e+01	  -2.0059450e-01	  -3.9801635e-01	  -7.1905104e-02	
   8.5085000e+01	  -2.0182642e-01	  -4.0625523e-01	  -8.3932856e-02	
   8.5140000e+01	  -2.0207699e-01	  -4.1346754e-01	  -9.6110394e-02	
   8.5195000e+01	  -2.0138373e-01	  -4.1957352e-01	  -1.0834485e-01	
   8.5250000e+01	  -1.9977154e-01	  -4.2446616e-01	  -1.2052405e-01	
   8.5305000e+01	  -1.9725556e-01	  -4.2802384e-01	  -1.3252449e-01	
   8.5360000e+01	  -1.9384882e-01	  -4.3012902e-01	  -1.4422301e-01	
   8.5415000e+01	  -1.8957349e-01	  -4.3068980e-01	  -1.5550831e-01	
   8.5470000e+01	  -1.8447357e-01	  -4.2965866e-01	  -1.6628823e-01	
   8.5525000e+01	  -1.7862603e-01	  -4.2704247e-01	  -1.7649133e-01	
   8.5580000e+01	  -1.7214679e-01	  -4.2290184e-01	  -1.8606329e-01	
   8.5635000e+01	  -1.6518899e-01	  -4.1734181e-01	  -1.9495878e-01	
   8.5690000e+01	  -1.5793331e-01	  -4.1049752e-01	  -2.0312966e-01	
   8.5745000e+01	  -1.5057278e-01	  -4.0251893e-01	  -2.1051209e-01	
   8.5800000e+01	  -1.4329640e-01	  -3.9355897e-01	  -2.1701766e-01	
   8.5855000e+01	  -1.3627630e-01	  -3.8376860e-01	  -2.2253321e-01	
   8.5910000e+01	  -1.2966151e-01	  -3.7329930e-01	  -2.2693121e-01	
   8.5965000e+01	  -1.2357865e-01	  -3.6230982e-01	  -2.3008763e-01	
   8.6020000e+01	  -1.1813775e-01	  -3.5097334e-01	  -2.3190281e-01	
   8.6075000e+01	  -1.1344038e-01	  -3.3948243e-01	  -2.3232088e-01	
   8.6130000e+01	  -1.0958749e-01	  -3.2805048e-01	  -2.3134494e-01	
   8.6185000e+01	  -1.0668471e-01	  -3.1690922e-01	  -2.2904643e-01	
   8.6240000e+01	  -1.0484321e-01	  -3.0630163e-01	  -2.2556790e-01	
   8.6295000e+01	  -1.0417528e-01	  -2.9646960e-01	  -2.2111864e-01	
   8.6350000e+01	  -1.0478516e-01	  -2.8763735e-01	  -2.1596120e-01	
   8.6405000e+01	  -1.0675763e-01	  -2.7999407e-01	  -2.1038958e-01	
   8.6460000e+01	  -1.1014694e-01	  -2.7368048e-01	  -2.0470375e-01	
   8.6515000e+01	  -1.1496929e-01	  -2.6878294e-01	  -1.9918744e-01	
   8.6570000e+01	  -1.2120089e-01	  -2.6533437e-01	  -1.9409448e-01	
   8.6625000e+01	  -1.2878173e-01	  -2.6331933e-01	  -1.8964535e-01	
   8.6680000e+01	  -1.3762439e-01	  -2.6268092e-01	  -1.8603174e-01	
   8.6735000e+01	  -1.4762639e-01	  -2.6333009e-01	  -1.8342484e-01	
   8.6790000e+01	  -1.5868527e-01	  -2.6515922e-01	  -1.8198361e-01	
   8.6845000e+01	  -1.7071375e-01	  -2.6805924e-01	  -1.8185930e-01	
   8.6900000e+01	  -1.8365134e-01	  -2.7193648e-01	  -1.8319401e-01	
   8.6955000e+01	  -1.9746841e-01	  -2.7672353e-01	  -1.8611340e-01	
   8.7010000e+01	  -2.1216096e-01	  -2.8237975e-01	  -1.9071493e-01	
   8.7065000e+01	  -2.2773793e-01	  -2.8888061e-01	  -1.9705400e-01	
   8.7120000e+01	  -2.4420524e-01	  -2.9620119e-01	  -2.0513071e-01	
   8.7175000e+01	  -2.6155195e-01	  -3.0430200e-01	  -2.1488201e-01	
   8.7230000e+01	  -2.7974219e-01	  -3.1312232e-01	  -2.2618221e-01	
   8.7285000e+01	  -2.9871403e-01	  -3.2258125e-01	  -2.3885078e-01	
   8.7340000e+01	  -3.1838354e-01	  -3.3258354e-01	  -2.5266353e-01	
   8.7395000e+01	  -3.3865278e-01	  -3.4302741e-01	  -2.6736505e-01	
   8.7450000e+01	  -3.5941988e-01	  -3.5381240e-01	  -2.8268175e-01	
   8.7505000e+01	  -3.8058882e-01	  -3.6484573e-01	  -2.9833435e-01	
   8.7560000e+01	  -4.0207560e-01	  -3.7604513e-01	  -3.1404797e-01	
   8.7615000e+01	  -4.2380858e-01	  -3.8733677e-01	  -3.2955878e-01	
   8.7670000e+01	  -4.4572280e-01	  -3.9864869e-01	  -3.4461688e-01	
   8.7725000e+01	  -4.6775066e-01	  -4.0990297e-01	  -3.5898618e-01	
   8.7780000e+01	  -4.8981248e-01	  -4.2100968e-01	  -3.7244414e-01	
   8.7835000e+01	  -5.1181031e-01	  -4.3186429e-01	  -3.8478431e-01	
   8.7890000e+01	  -5.3362576e-01	  -4.4234870e-01	  -3.9582295e-01	
   8.7945000e+01	  -5.5512191e-01	  -4.5233471e-01	  -4.0540857e-01	
   8.8000000e+01	  -5.7614876e-01	  -4.6168990e-01	  -4.1343202e-01	
   8.8055000e+01	  -5.9655091e-01	  -4.7028763e-01	  -4.1983542e-01	
   8.8110000e+01	  -6.1617589e-01	  -4.7802218e-01	  -4.2461841e-01	
   8.8165000e+01	  -6.3488126e-01	  -4.8482509e-01	  -4.2784005e-01	
   8.8220000e+01	  -6.5253789e-01	  -4.9067462e-01	  -4.2961440e-01	
   8.8275000e+01	  -6.6902826e-01	  -4.9559366e-01	  -4.3009939e-01	
   8.8330000e+01	  -6.8424140e-01	  -4.9963868e-01	  -4.2948187e-01	
   8.8385000e+01	  -6.9806894e-01	  -5.0288613e-01	  -4.2796342e-01	
   8.8440000e+01	  -7.1040524e-01	  -5.0542069e-01	  -4.2575007e-01	
   8.8495000e+01	  -7.2115204e-01	  -5.0732676e-01	  -4.2304616e-01	
   8.8550000e+01	  -7.3022632e-01	  -5.0868413e-01	  -4.2005156e-01	
   8.8605000e+01	  -7.3757041e-01	  -5.0956755e-01	  -4.1696115e-01	
   8.8660000e+01	  -7.4316285e-01	  -5.1004901e-01	  -4.1396576e-01	
   8.8715000e+01	  -7.4702834e-01	  -5.1020024e-01	  -4.1125317e-01	
   8.8770000e+01	  -7.4924483e-01	  -5.1009419e-01	  -4.0900858e-01	
   8.8825000e+01	  -7.4994532e-01	  -5.0980415e-01	  -4.0741294e-01	
   8.8880000e+01	  -7.4931242e-01	  -5.0939748e-01	  -4.0663665e-01	
   8.8935000e+01	  -7.4756395e-01	  -5.0892293e-01	  -4.0682783e-01	
   8.8990000e+01	  -7.4493211e-01	  -5.0839497e-01	  -4.0809772e-01	
   8.9045000e+01	  -7.4164126e-01	  -5.0778214e-01	  -4.1050906e-01	
   8.9100000e+01	  -7.3789004e-01	  -5.0700412e-01	  -4.1407050e-01	
   8.9155000e+01	  -7.3384086e-01	  -5.0593878e-01	  -4.1873729e-01	
   8.9210000e+01	  -7.2961784e-01	  -5.0443702e-01	  -4.2441695e-01	
   8.9265000e+01	  -7.2531286e-01	  -5.0234200e-01	  -4.3097943e-01	
   8.9320000e+01	  -7.2099779e-01	  -4.9950926e-01	  -4.3827074e-01	
   8.9375000e+01	  -7.1673929e-01	  -4.9582503e-01	  -4.4612765e-01	
   8.9430000e+01	  -7.1261211e-01	  -4.9122178e-01	  -4.5439052e-01	
   8.9485000e+01	  -7.0870849e-01	  -4.8568928e-01	  -4.6291201e-01	
   8.9540000e+01	  -7.0514094e-01	  -4.7927864e-01	  -4.7155984e-01	
   8.9595000e+01	  -7.0203690e-01	  -4.7209671e-01	  -4.8021202e-01	
   8.9650000e+01	  -6.9952643e-01	  -4.6429133e-01	  -4.8874575e-01	
   8.9705000e+01	  -6.9772690e-01	  -4.5603274e-01	  -4.9702576e-01	
   8.9760000e+01	  -6.9672944e-01	  -4.4749737e-01	  -5.0489879e-01	
   8.9815000e+01	  -6.9658968e-01	  -4.3885677e-01	  -5.1219701e-01	
   8.9870000e+01	  -6.9732344e-01	  -4.3027172e-01	  -5.1874885e-01	
   8.9925000e+01	  -6.9890753e-01	  -4.2189157e-01	  -5.2439369e-01	
   8.9980000e+01	  -7.0128561e-01	  -4.1385780e-01	  -5.2899740e-01	
   9.0035000e+01	  -7.0437836e-01	  -4.0630971e-01	  -5.3246563e-01	
   9.0090000e+01	  -7.0809601e-01	  -3.9938900e-01	  -5.3475253e-01	
   9.0145000e+01	  -7.1235117e-01	  -3.9324214e-01	  -5.3586457e-01	
   9.0200000e+01	  -7.1707000e-01	  -3.8801955e-01	  -5.3585972e-01	
   9.0255000e+01	  -7.2219892e-01	  -3.8387033e-01	  -5.3484084e-01	
   9.0310000e+01	  -7.2770460e-01	  -3.8093109e-01	  -5.3294206e-01	
   9.0365000e+01	  -7.3356811e-01	  -3.7931092e-01	  -5.3031009e-01	
   9.0420000e+01	  -7.3977695e-01	  -3.7907686e-01	  -5.2708565e-01	
   9.0475000e+01	  -7.4631845e-01	  -3.8024328e-01	  -5.2338912e-01	
   9.0530000e+01	  -7.5317633e-01	  -3.8276768e-01	  -5.1931240e-01	
   9.0585000e+01	  -7.6033084e-01	  -3.8655480e-01	  -5.1491796e-01	
   9.0640000e+01	  -7.6776283e-01	  -3.9146879e-01	  -5.1024587e-01	
   9.0695000e+01	  -7.7546065e-01	  -3.9734987e-01	  -5.0532771e-01	
   9.0750000e+01	  -7.8342801e-01	  -4.0403143e-01	  -5.0020419e-01	
   9.0805000e+01	  -7.9169073e-01	  -4.1135552e-01	  -4.9494220e-01	
   9.0860000e+01	  -8.0030146e-01	  -4.1918664e-01	  -4.8964768e-01	
   9.0915000e+01	  -8.0934023e-01	  -4.2742172e-01	  -4.8447054e-01	
   9.0970000e+01	  -8.1890887e-01	  -4.3599308e-01	  -4.7959927e-01	
   9.1025000e+01	  -8.2911944e-01	  -4.4486439e-01	  -4.7524685e-01	
   9.1080000e+01	  -8.4008032e-01	  -4.5402263e-01	  -4.7163272e-01	
   9.1135000e+01	  -8.5188414e-01	  -4.6346902e-01	  -4.6896536e-01	
   9.1190000e+01	  -8.6459933e-01	  -4.7321027e-01	  -4.6742884e-01	
   9.1245000e+01	  -8.7826540e-01	  -4.8325188e-01	  -4.6717562e-01	
   9.1300000e+01	  -8.9289135e-01	  -4.9359576e-01	  -4.6832559e-01	
   9.1355000e+01	  -9.0845747e-01	  -5.0424276e-01	  -4.7096922e-01	
   9.1410000e+01	  -9.2492032e-01	  -5.1519830e-01	  -4.7517227e-01	
   9.1465000e+01	  -9.4222042e-01	  -5.2647867e-01	  -4.8098066e-01	
   9.1520000e+01	  -9.6029122e-01	  -5.3811513e-01	  -4.8842554e-01	
   9.1575000e+01	  -9.7906651e-01	  -5.5015231e-01	  -4.9752641e-01	
   9.1630000e+01	  -9.9848269e-01	  -5.6263818e-01	  -5.0828890e-01	
   9.1685000e+01	  -1.0184747e+00	  -5.7560820e-01	  -5.2069532e-01	
   9.1740000e+01	  -1.0389684e+00	  -5.8907153e-01	  -5.3469127e-01	
   9.1795000e+01	  -1.0598735e+00	  -6.0300478e-01	  -5.5017360e-01	
   9.1850000e+01	  -1.0810795e+00	  -6.1735370e-01	  -5.6698463e-01	
   9.1905000e+01	  -1.1024553e+00	  -6.3204094e-01	  -5.8491435e-01	
   9.1960000e+01	  -1.1238520e+00	  -6.4697990e-01	  -6.0371024e-01	
   9.2015000e+01	  -1.1451096e+00	  -6.6209244e-01	  -6.2309227e-01	
   9.2070000e+01	  -1.1660664e+00	  -6.7732616e-01	  -6.4277013e-01	
   9.2125000e+01	  -1.1865691e+00	  -6.9266732e-01	  -6.6245993e-01	
   9.2180000e+01	  -1.2064810e+00	  -7.0814709e-01	  -6.8189876e-01	
   9.2235000e+01	  -1.2256866e+00	  -7.2383933e-01	  -7.0085488e-01	
   9.2290000e+01	  -1.2440907e+00	  -7.3984850e-01	  -7.1913128e-01	
   9.2345000e+01	  -1.2616129e+00	  -7.5628982e-01	  -7.3656252e-01	
   9.2400000e+01	  -1.2781804e+00	  -7.7326743e-01	  -7.5300919e-01	
   9.2455000e+01	  -1.2937219e+00	  -7.9085674e-01	  -7.6835474e-01	
   9.2510000e+01	  -1.3081650e+00	  -8.0909328e-01	  -7.8250501e-01	
   9.2565000e+01	  -1.3214358e+00	  -8.2796805e-01	  -7.9538810e-01	
   9.2620000e+01	  -1.3334601e+00	  -8.4742968e-01	  -8.0695369e-01	
   9.2675000e+01	  -1.3441686e+00	  -8.6739235e-01	  -8.1717355e-01	
   9.2730000e+01	  -1.3535046e+00	  -8.8774577e-01	  -8.2604320e-01	
   9.2785000e+01	  -1.3614336e+00	  -9.0836282e-01	  -8.3358347e-01	
   9.2840000e+01	  -1.3679515e+00	  -9.2910282e-01	  -8.3984069e-01	
   9.2895000e+01	  -1.3730871e+00	  -9.4981029e-01	  -8.4488485e-01	
   9.2950000e+01	  -1.3768993e+00	  -9.7031010e-01	  -8.4880339e-01	
   9.3005000e+01	  -1.3794662e+00	  -9.9040167e-01	  -8.5169011e-01	
   9.3060000e+01	  -1.3808735e+00	  -1.0098566e+00	  -8.5363228e-01	
   9.3115000e+01	  -1.3812027e+00	  -1.0284229e+00	  -8.5470033e-01	
   9.3170000e+01	  -1.3805269e+00	  -1.0458354e+00	  -8.5494314e-01	
   9.3225000e+01	  -1.3789094e+00	  -1.0618312e+00	  -8.5438958e-01	
   9.3280000e+01	  -1.3764078e+00	  -1.0761676e+00	  -8.5305563e-01	
   9.3335000e+01	  -1.3730801e+00	  -1.0886427e+00	  -8.5095491e-01	
   9.3390000e+01	  -1.3689952e+00	  -1.0991162e+00	  -8.4810976e-01	
   9.3445000e+01	  -1.3642404e+00	  -1.1075239e+00	  -8.4456114e-01	
   9.3500000e+01	  -1.3589257e+00	  -1.1138839e+00	  -8.4037580e-01	
   9.3555000e+01	  -1.3531800e+00	  -1.1182908e+00	  -8.3564929e-01	
   9.3610000e+01	  -1.3471410e+00	  -1.1208993e+00	  -8.3050328e-01	
   9.3665000e+01	  -1.3409414e+00	  -1.1219006e+00	  -8.2507688e-01	
   9.3720000e+01	  -1.3346946e+00	  -1.1214991e+00	  -8.1951450e-01	
   9.3775000e+01	  -1.3284855e+00	  -1.1198931e+00	  -8.1395361e-01	
   9.3830000e+01	  -1.3223649e+00	  -1.1172635e+00	  -8.0851539e-01	
   9.3885000e+01	  -1.3163519e+00	  -1.1137694e+00	  -8.0329999e-01	
   9.3940000e+01	  -1.3104392e+00	  -1.1095478e+00	  -7.9838682e-01	
   9.3995000e+01	  -1.3046047e+00	  -1.1047184e+00	  -7.9383982e-01	
   9.4050000e+01	  -1.2988246e+00	  -1.0993885e+00	  -7.8971491e-01	
   9.4105000e+01	  -1.2930853e+00	  -1.0936582e+00	  -7.8606569e-01	
   9.4160000e+01	  -1.2873894e+00	  -1.0876218e+00	  -7.8294465e-01	
   9.4215000e+01	  -1.2817556e+00	  -1.0813645e+00	  -7.8039972e-01	
   9.4270000e+01	  -1.2762113e+00	  -1.0749568e+00	  -7.7846734e-01	
   9.4325000e+01	  -1.2707810e+00	  -1.0684479e+00	  -7.7716354e-01	
   9.4380000e+01	  -1.2654744e+00	  -1.0618607e+00	  -7.7647564e-01	
   9.4435000e+01	  -1.2602764e+00	  -1.0551906e+00	  -7.7635744e-01	
   9.4490000e+01	  -1.2551429e+00	  -1.0484104e+00	  -7.7672942e-01	
   9.4545000e+01	  -1.2500022e+00	  -1.0414788e+00	  -7.7748259e-01	
   9.4600000e+01	  -1.2447611e+00	  -1.0343514e+00	  -7.7848448e-01	
   9.4655000e+01	  -1.2393146e+00	  -1.0269919e+00	  -7.7958675e-01	
   9.4710000e+01	  -1.2335596e+00	  -1.0193858e+00	  -7.8063502e-01	
   9.4765000e+01	  -1.2274095e+00	  -1.0115538e+00	  -7.8148062e-01	
   9.4820000e+01	  -1.2208079e+00	  -1.0035625e+00	  -7.8199196e-01	
   9.4875000e+01	  -1.2137371e+00	  -9.9552838e-01	  -7.8206278e-01	
   9.4930000e+01	  -1.2062199e+00	  -9.8761020e-01	  -7.8161492e-01	
   9.4985000e+01	  -1.1983133e+00	  -9.7999034e-01	  -7.8059395e-01	
   9.5040000e+01	  -1.1900972e+00	  -9.7284985e-01	  -7.7895854e-01	
   9.5095000e+01	  -1.1816603e+00	  -9.6634364e-01	  -7.7666812e-01	
   9.5150000e+01	  -1.1730894e+00	  -9.6058253e-01	  -7.7367481e-01	
   9.5205000e+01	  -1.1644644e+00	  -9.5562598e-01	  -7.6992301e-01	
   9.5260000e+01	  -1.1558593e+00	  -9.5148600e-01	  -7.6535651e-01	
   9.5315000e+01	  -1.1473489e+00	  -9.4814022e-01	  -7.5993014e-01	
   9.5370000e+01	  -1.1390170e+00	  -9.4555117e-01	  -7.5362370e-01	
   9.5425000e+01	  -1.1309665e+00	  -9.4368697e-01	  -7.4645664e-01	
   9.5480000e+01	  -1.1233265e+00	  -9.4253800e-01	  -7.3850173e-01	
   9.5535000e+01	  -1.1162555e+00	  -9.4212542e-01	  -7.2989467e-01	
