
0   5   7	
   0.0000000e+00	  -1.0115947e-01	   7.8935238e-02	
   5.5000000e-02	  -1.2330341e-01	   6.5943804e-02	
   1.1000000e-01	  -1.4522820e-01	   5.2892928e-02	
   1.6500000e-01	  -1.6634674e-01	   4.0109522e-02	
   2.2000000e-01	  -1.8611042e-01	   2.7901617e-02	
   2.7500000e-01	  -2.0403532e-01	   1.6543630e-02	
   3.3000000e-01	  -2.1972170e-01	   6.2651702e-03	
   3.8500000e-01	  -2.3286319e-01	  -2.7543953e-03	
   4.4000000e-01	  -2.4324529e-01	  -1.0385198e-02	
   4.9500000e-01	  -2.5073707e-01	  -1.6541799e-02	
   5.5000000e-01	  -2.5528165e-01	  -2.1176977e-02	
   6.0500000e-01	  -2.5688894e-01	  -2.4277210e-02	
   6.6000000e-01	  -2.5563151e-01	  -2.5861235e-02	
   7.1500000e-01	  -2.5164246e-01	  -2.5981194e-02	
   7.7000000e-01	  -2.4511346e-01	  -2.4724638e-02	
   8.2500000e-01	  -2.3629186e-01	  -2.2215754e-02	
   8.8000000e-01	  -2.2547638e-01	  -1.8615001e-02	
   9.3500000e-01	  -2.1301087e-01	  -1.4116424e-02	
   9.9000000e-01	  -1.9927490e-01	  -8.9415004e-03	
   1.0450000e+00	  -1.8466985e-01	  -3.3288389e-03	
   1.1000000e+00	  -1.6960077e-01	   2.4792175e-03	
   1.1550000e+00	  -1.5445642e-01	   8.2506262e-03	
   1.2100000e+00	  -1.3959068e-01	   1.3775982e-02	
   1.2650000e+00	  -1.2530894e-01	   1.8877513e-02	
   1.3200000e+00	  -1.1186292e-01	   2.3413493e-02	
   1.3750000e+00	  -9.9454472e-02	   2.7277581e-02	
   1.4300000e+00	  -8.8245153e-02	   3.0393947e-02	
   1.4850000e+00	  -7.8366115e-02	   3.2710067e-02	
   1.5400000e+00	  -6.9924787e-02	   3.4189190e-02	
   1.5950000e+00	  -6.3007031e-02	   3.4804297e-02	
   1.6500000e+00	  -5.7674262e-02	   3.4535470e-02	
   1.7050000e+00	  -5.3954718e-02	   3.3372302e-02	
   1.7600000e+00	  -5.1830024e-02	   3.1320835e-02	
   1.8150000e+00	  -5.1221676e-02	   2.8411955e-02	
   1.8700000e+00	  -5.1982904e-02	   2.4707909e-02	
   1.9250000e+00	  -5.3898872e-02	   2.0305163e-02	
   1.9800000e+00	  -5.6695687e-02	   1.5332713e-02	
   2.0350000e+00	  -6.0057656e-02	   9.9451407e-03	
   2.0900000e+00	  -6.3650994e-02	   4.3109421e-03	
   2.1450000e+00	  -6.7150185e-02	  -1.4016009e-03	
   2.2000000e+00	  -7.0262762e-02	  -7.0383181e-03	
   2.2550000e+00	  -7.2749212e-02	  -1.2470782e-02	
   2.3100000e+00	  -7.4435016e-02	  -1.7603900e-02	
   2.3650000e+00	  -7.5212284e-02	  -2.2378002e-02	
   2.4200000e+00	  -7.5031371e-02	  -2.6765668e-02	
   2.4750000e+00	  -7.3886803e-02	  -3.0765726e-02	
   2.5300000e+00	  -7.1803645e-02	  -3.4397152e-02	
   2.5850000e+00	  -6.8828320e-02	  -3.7694149e-02	
   2.6400000e+00	  -6.5024546e-02	  -4.0702575e-02	
   2.6950000e+00	  -6.0473394e-02	  -4.3477946e-02	
   2.7500000e+00	  -5.5276071e-02	  -4.6085357e-02	
   2.8050000e+00	  -4.9557396e-02	  -4.8600856e-02	
   2.8600000e+00	  -4.3467625e-02	  -5.1112861e-02	
   2.9150000e+00	  -3.7180794e-02	  -5.3721972e-02	
   2.9700000e+00	  -3.0888168e-02	  -5.6537800e-02	
   3.0250000e+00	  -2.4786516e-02	  -5.9672364e-02	
   3.0800000e+00	  -1.9063289e-02	  -6.3231271e-02	
   3.1350000e+00	  -1.3882966e-02	  -6.7305376e-02	
   3.1900000e+00	  -9.3786328e-03	  -7.1965254e-02	
   3.2450000e+00	  -5.6507442e-03	  -7.7259142e-02	
   3.3000000e+00	  -2.7726159e-03	  -8.3213773e-02	
   3.3550000e+00	  -8.0025647e-04	  -8.9837252e-02	
   3.4100000e+00	   2.1709226e-04	  -9.7123239e-02	
   3.4650000e+00	   2.2930638e-04	  -1.0505523e-01	
   3.5200000e+00	  -8.1676921e-04	  -1.1360902e-01	
   3.5750000e+00	  -2.9733779e-03	  -1.2275193e-01	
   3.6300000e+00	  -6.2840846e-03	  -1.3243971e-01	
   3.6850000e+00	  -1.0776047e-02	  -1.4261380e-01	
   3.7400000e+00	  -1.6455053e-02	  -1.5320111e-01	
   3.7950000e+00	  -2.3304218e-02	  -1.6411649e-01	
   3.8500000e+00	  -3.1286893e-02	  -1.7526724e-01	
   3.9050000e+00	  -4.0353700e-02	  -1.8655870e-01	
   3.9600000e+00	  -5.0451483e-02	  -1.9790025e-01	
   4.0150000e+00	  -6.1530878e-02	  -2.0921055e-01	
   4.0700000e+00	  -7.3550519e-02	  -2.2042130e-01	
   4.1250000e+00	  -8.6476567e-02	  -2.3147891e-01	
   4.1800000e+00	  -1.0027626e-01	  -2.4234355e-01	
   4.2350000e+00	  -1.1490678e-01	  -2.5298526e-01	
   4.2900000e+00	  -1.3030416e-01	  -2.6337876e-01	
   4.3450000e+00	  -1.4637656e-01	  -2.7349879e-01	
   4.4000000e+00	  -1.6300268e-01	  -2.8331698e-01	
   4.4550000e+00	  -1.8003482e-01	  -2.9280053e-01	
   4.5100000e+00	  -1.9730604e-01	  -3.0191285e-01	
   4.5650000e+00	  -2.1464119e-01	  -3.1061633e-01	
   4.6200000e+00	  -2.3186976e-01	  -3.1887618e-01	
   4.6750000e+00	  -2.4883643e-01	  -3.2666315e-01	
   4.7300000e+00	  -2.6540553e-01	  -3.3395337e-01	
   4.7850000e+00	  -2.8145864e-01	  -3.4072543e-01	
   4.8400000e+00	  -2.9688881e-01	  -3.4695599e-01	
   4.8950000e+00	  -3.1159530e-01	  -3.5261557e-01	
   4.9500000e+00	  -3.2548050e-01	  -3.5766600e-01	
   5.0050000e+00	  -3.3844902e-01	  -3.6206013e-01	
   5.0600000e+00	  -3.5040880e-01	  -3.6574413e-01	
   5.1150000e+00	  -3.6127364e-01	  -3.6866125e-01	
   5.1700000e+00	  -3.7096672e-01	  -3.7075632e-01	
   5.2250000e+00	  -3.7942529e-01	  -3.7198045e-01	
   5.2800000e+00	  -3.8660584e-01	  -3.7229540e-01	
   5.3350000e+00	  -3.9248664e-01	  -3.7167569e-01	
   5.3900000e+00	  -3.9706592e-01	  -3.7010718e-01	
   5.4450000e+00	  -4.0035733e-01	  -3.6758367e-01	
   5.5000000e+00	  -4.0238610e-01	  -3.6410404e-01	
   5.5550000e+00	  -4.0318776e-01	  -3.5967161e-01	
   5.6100000e+00	  -4.0280883e-01	  -3.5429588e-01	
   5.6650000e+00	  -4.0130866e-01	  -3.4799590e-01	
   5.7200000e+00	  -3.9876156e-01	  -3.4080479e-01	
   5.7750000e+00	  -3.9525931e-01	  -3.3277466e-01	
   5.8300000e+00	  -3.9091339e-01	  -3.2398066e-01	
   5.8850000e+00	  -3.8585509e-01	  -3.1452255e-01	
   5.9400000e+00	  -3.8023064e-01	  -3.0452185e-01	
   5.9950000e+00	  -3.7419054e-01	  -2.9411426e-01	
   6.0500000e+00	  -3.6787481e-01	  -2.8343826e-01	
   6.1050000e+00	  -3.6139849e-01	  -2.7262308e-01	
   6.1600000e+00	  -3.5484187e-01	  -2.6177927e-01	
   6.2150000e+00	  -3.4824790e-01	  -2.5099378e-01	
   6.2700000e+00	  -3.4162598e-01	  -2.4032936e-01	
   6.3250000e+00	  -3.3496008e-01	  -2.2982777e-01	
   6.3800000e+00	  -3.2821841e-01	  -2.1951592e-01	
   6.4350000e+00	  -3.2136148e-01	  -2.0941268e-01	
   6.4900000e+00	  -3.1434541e-01	  -1.9953312e-01	
   6.5450000e+00	  -3.0711973e-01	  -1.8988886e-01	
   6.6000000e+00	  -2.9962170e-01	  -1.8048523e-01	
   6.6550000e+00	  -2.9177164e-01	  -1.7131780e-01	
   6.7100000e+00	  -2.8347242e-01	  -1.6237036e-01	
   6.7650000e+00	  -2.7461494e-01	  -1.5361594e-01	
   6.8200000e+00	  -2.6508988e-01	  -1.4502172e-01	
   6.8750000e+00	  -2.5480409e-01	  -1.3655700e-01	
   6.9300000e+00	  -2.4369837e-01	  -1.2820281e-01	
   6.9850000e+00	  -2.3176334e-01	  -1.1996096e-01	
   7.0400000e+00	  -2.1905064e-01	  -1.1186051e-01	
   7.0950000e+00	  -2.0567680e-01	  -1.0395948e-01	
   7.1500000e+00	  -1.9181679e-01	  -9.6340121e-02	
   7.2050000e+00	  -1.7768695e-01	  -8.9098259e-02	
   7.2600000e+00	  -1.6352143e-01	  -8.2329763e-02	
   7.3150000e+00	  -1.4954946e-01	  -7.6118253e-02	
   7.3700000e+00	  -1.3597895e-01	  -7.0526478e-02	
   7.4250000e+00	  -1.2298816e-01	  -6.5592027e-02	
   7.4800000e+00	  -1.1072389e-01	  -6.1327380e-02	
   7.5350000e+00	  -9.9303795e-02	  -5.7723683e-02	
   7.5900000e+00	  -8.8820254e-02	  -5.4756614e-02	
   7.6450000e+00	  -7.9344062e-02	  -5.2392348e-02	
   7.7000000e+00	  -7.0927554e-02	  -5.0592618e-02	
   7.7550000e+00	  -6.3606141e-02	  -4.9318426e-02	
   7.8100000e+00	  -5.7396300e-02	  -4.8531412e-02	
   7.8650000e+00	  -5.2289133e-02	  -4.8192175e-02	
   7.9200000e+00	  -4.8241934e-02	  -4.8256793e-02	
   7.9750000e+00	  -4.5172410e-02	  -4.8674123e-02	
   8.0300000e+00	  -4.2958610e-02	  -4.9385383e-02	
   8.0850000e+00	  -4.1444516e-02	  -5.0325409e-02	
   8.1400000e+00	  -4.0449776e-02	  -5.1424590e-02	
   8.1950000e+00	  -3.9782633e-02	  -5.2611891e-02	
   8.2500000e+00	  -3.9255412e-02	  -5.3819884e-02	
   8.3050000e+00	  -3.8700821e-02	  -5.4991398e-02	
   8.3600000e+00	  -3.7985753e-02	  -5.6085981e-02	
   8.4150000e+00	  -3.7018764e-02	  -5.7083978e-02	
   8.4700000e+00	  -3.5748535e-02	  -5.7986411e-02	
   8.5250000e+00	  -3.4153488e-02	  -5.8809944e-02	
   8.5800000e+00	  -3.2226612e-02	  -5.9578430e-02	
   8.6350000e+00	  -2.9962018e-02	  -6.0314225e-02	
   8.6900000e+00	  -2.7347998e-02	  -6.1031984e-02	
   8.7450000e+00	  -2.4366811e-02	  -6.1735783e-02	
   8.8000000e+00	  -2.0998374e-02	  -6.2419054e-02	
   8.8550000e+00	  -1.7225227e-02	  -6.3066595e-02	
   8.9100000e+00	  -1.3037427e-02	  -6.3658044e-02	
   8.9650000e+00	  -8.4363140e-03	  -6.4171981e-02	
   9.0200000e+00	  -3.4357615e-03	  -6.4589437e-02	
   9.0750000e+00	   1.9405496e-03	  -6.4895463e-02	
   9.1300000e+00	   7.6660398e-03	  -6.5078154e-02	
   9.1850000e+00	   1.3720237e-02	  -6.5125825e-02	
   9.2400000e+00	   2.0096309e-02	  -6.5023920e-02	
   9.2950000e+00	   2.6804121e-02	  -6.4753261e-02	
   9.3500000e+00	   3.3867264e-02	  -6.4290611e-02	
   9.4050000e+00	   4.1314088e-02	  -6.3611697e-02	
   9.4600000e+00	   4.9164630e-02	  -6.2696128e-02	
   9.5150000e+00	   5.7417035e-02	  -6.1533207e-02	
   9.5700000e+00	   6.6037581e-02	  -6.0127156e-02	
   9.6250000e+00	   7.4957543e-02	  -5.8499668e-02	
   9.6800000e+00	   8.4078512e-02	  -5.6687870e-02	
   9.7350000e+00	   9.3284995e-02	  -5.4737790e-02	
   9.7900000e+00	   1.0246025e-01	  -5.2696034e-02	
   9.8450000e+00	   1.1150054e-01	  -5.0602844e-02	
   9.9000000e+00	   1.2032457e-01	  -4.8488068e-02	
   9.9550000e+00	   1.2887726e-01	  -4.6370114e-02	
   1.0010000e+01	   1.3712807e-01	  -4.4257692e-02	
   1.0065000e+01	   1.4506476e-01	  -4.2154016e-02	
   1.0120000e+01	   1.5268352e-01	  -4.0062698e-02	
   1.0175000e+01	   1.5997743e-01	  -3.7994039e-02	
   1.0230000e+01	   1.6692588e-01	  -3.5970341e-02	
   1.0285000e+01	   1.7348850e-01	  -3.4029071e-02	
   1.0340000e+01	   1.7960734e-01	  -3.2222555e-02	
   1.0395000e+01	   1.8521786e-01	  -3.0613591e-02	
   1.0450000e+01	   1.9026420e-01	  -2.9268612e-02	
   1.0505000e+01	   1.9471134e-01	  -2.8251431e-02	
   1.0560000e+01	   1.9855040e-01	  -2.7619056e-02	
   1.0615000e+01	   2.0179777e-01	  -2.7419312e-02	
   1.0670000e+01	   2.0448962e-01	  -2.7690347e-02	
   1.0725000e+01	   2.0667224e-01	  -2.8462613e-02	
   1.0780000e+01	   2.0838986e-01	  -2.9762922e-02	
   1.0835000e+01	   2.0967304e-01	  -3.1618946e-02	
   1.0890000e+01	   2.1053083e-01	  -3.4062411e-02	
   1.0945000e+01	   2.1094936e-01	  -3.7129463e-02	
   1.1000000e+01	   2.1089883e-01	  -4.0856811e-02	
   1.1055000e+01	   2.1034745e-01	  -4.5273699e-02	
   1.1110000e+01	   2.0927752e-01	  -5.0392272e-02	
   1.1165000e+01	   2.0769745e-01	  -5.6199995e-02	
   1.1220000e+01	   2.0564693e-01	  -6.2656228e-02	
   1.1275000e+01	   2.0319521e-01	  -6.9692974e-02	
   1.1330000e+01	   2.0043362e-01	  -7.7218976e-02	
   1.1385000e+01	   1.9746320e-01	  -8.5126490e-02	
   1.1440000e+01	   1.9437906e-01	  -9.3299896e-02	
   1.1495000e+01	   1.9125459e-01	  -1.0162481e-01	
   1.1550000e+01	   1.8812852e-01	  -1.0999635e-01	
   1.1605000e+01	   1.8499619e-01	  -1.1832590e-01	
   1.1660000e+01	   1.8180601e-01	  -1.2654535e-01	
   1.1715000e+01	   1.7846336e-01	  -1.3460737e-01	
   1.1770000e+01	   1.7484332e-01	  -1.4248111e-01	
   1.1825000e+01	   1.7080938e-01	  -1.5014526e-01	
   1.1880000e+01	   1.6623293e-01	  -1.5758145e-01	
   1.1935000e+01	   1.6100810e-01	  -1.6476988e-01	
   1.1990000e+01	   1.5505927e-01	  -1.7168775e-01	
   1.2045000e+01	   1.4834098e-01	  -1.7831003e-01	
   1.2100000e+01	   1.4083259e-01	  -1.8461250e-01	
   1.2155000e+01	   1.3253126e-01	  -1.9057604e-01	
   1.2210000e+01	   1.2344700e-01	  -1.9619074e-01	
   1.2265000e+01	   1.1360144e-01	  -2.0145837e-01	
   1.2320000e+01	   1.0303037e-01	  -2.0639280e-01	
   1.2375000e+01	   9.1788838e-02	  -2.1101737e-01	
   1.2430000e+01	   7.9957524e-02	  -2.1535919e-01	
   1.2485000e+01	   6.7648232e-02	  -2.1944131e-01	
   1.2540000e+01	   5.5006394e-02	  -2.2327520e-01	
   1.2595000e+01	   4.2209824e-02	  -2.2685525e-01	
   1.2650000e+01	   2.9464275e-02	  -2.3015620e-01	
   1.2705000e+01	   1.6995938e-02	  -2.3313454e-01	
   1.2760000e+01	   5.0403130e-03	  -2.3573406e-01	
   1.2815000e+01	  -6.1718955e-03	  -2.3789466e-01	
   1.2870000e+01	  -1.6428855e-02	  -2.3956152e-01	
   1.2925000e+01	  -2.5547662e-02	  -2.4069147e-01	
   1.2980000e+01	  -3.3377147e-02	  -2.4125486e-01	
   1.3035000e+01	  -3.9792700e-02	  -2.4123314e-01	
   1.3090000e+01	  -4.4686125e-02	  -2.4061385e-01	
   1.3145000e+01	  -4.7956022e-02	  -2.3938532e-01	
   1.3200000e+01	  -4.9503303e-02	  -2.3753340e-01	
   1.3255000e+01	  -4.9233130e-02	  -2.3504088e-01	
   1.3310000e+01	  -4.7061587e-02	  -2.3188951e-01	
   1.3365000e+01	  -4.2924578e-02	  -2.2806378e-01	
   1.3420000e+01	  -3.6787430e-02	  -2.2355597e-01	
   1.3475000e+01	  -2.8653647e-02	  -2.1837196e-01	
   1.3530000e+01	  -1.8569496e-02	  -2.1253545e-01	
   1.3585000e+01	  -6.6207625e-03	  -2.0608859e-01	
   1.3640000e+01	   7.0783667e-03	  -1.9908790e-01	
   1.3695000e+01	   2.2399492e-02	  -1.9159720e-01	
   1.3750000e+01	   3.9211707e-02	  -1.8368006e-01	
   1.3805000e+01	   5.7388407e-02	  -1.7539375e-01	
   1.3860000e+01	   7.6809093e-02	  -1.6678586e-01	
   1.3915000e+01	   9.7356152e-02	  -1.5789406e-01	
   1.3970000e+01	   1.1890713e-01	  -1.4874884e-01	
   1.4025000e+01	   1.4132503e-01	  -1.3937797e-01	
   1.4080000e+01	   1.6445042e-01	  -1.2981168e-01	
   1.4135000e+01	   1.8809803e-01	  -1.2008714e-01	
   1.4190000e+01	   2.1205962e-01	  -1.1025025e-01	
   1.4245000e+01	   2.3611365e-01	  -1.0035267e-01	
   1.4300000e+01	   2.6004032e-01	  -9.0444801e-02	
   1.4355000e+01	   2.8363893e-01	  -8.0567622e-02	
   1.4410000e+01	   3.0674346e-01	  -7.0746605e-02	
   1.4465000e+01	   3.2923355e-01	  -6.0988623e-02	
   1.4520000e+01	   3.5103889e-01	  -5.1282033e-02	
   1.4575000e+01	   3.7213622e-01	  -4.1600172e-02	
   1.4630000e+01	   3.9254012e-01	  -3.1908106e-02	
   1.4685000e+01	   4.1228965e-01	  -2.2171388e-02	
   1.4740000e+01	   4.3143313e-01	  -1.2365025e-02	
   1.4795000e+01	   4.5001446e-01	  -2.4809238e-03	
   1.4850000e+01	   4.6806421e-01	   7.4681728e-03	
   1.4905000e+01	   4.8559825e-01	   1.7449940e-02	
   1.4960000e+01	   5.0262343e-01	   2.7418538e-02	
   1.5015000e+01	   5.1914744e-01	   3.7322398e-02	
   1.5070000e+01	   5.3518774e-01	   4.7110391e-02	
   1.5125000e+01	   5.5077624e-01	   5.6735304e-02	
   1.5180000e+01	   5.6595819e-01	   6.6155340e-02	
   1.5235000e+01	   5.8078523e-01	   7.5333810e-02	
   1.5290000e+01	   5.9530326e-01	   8.4236358e-02	
   1.5345000e+01	   6.0953813e-01	   9.2825585e-02	
   1.5400000e+01	   6.2348268e-01	   1.0105421e-01	
   1.5455000e+01	   6.3708834e-01	   1.0885878e-01	
   1.5510000e+01	   6.5026283e-01	   1.1615614e-01	
   1.5565000e+01	   6.6287523e-01	   1.2284430e-01	
   1.5620000e+01	   6.7476906e-01	   1.2880856e-01	
   1.5675000e+01	   6.8578112e-01	   1.3393172e-01	
   1.5730000e+01	   6.9576074e-01	   1.3810620e-01	
   1.5785000e+01	   7.0458430e-01	   1.4124560e-01	
   1.5840000e+01	   7.1216325e-01	   1.4329352e-01	
   1.5895000e+01	   7.1844605e-01	   1.4422832e-01	
   1.5950000e+01	   7.2341502e-01	   1.4406280e-01	
   1.6005000e+01	   7.2707882e-01	   1.4283929e-01	
   1.6060000e+01	   7.2946192e-01	   1.4062204e-01	
   1.6115000e+01	   7.3059359e-01	   1.3748834e-01	
   1.6170000e+01	   7.3049847e-01	   1.3351950e-01	
   1.6225000e+01	   7.2919130e-01	   1.2879274e-01	
   1.6280000e+01	   7.2667751e-01	   1.2337618e-01	
   1.6335000e+01	   7.2296002e-01	   1.1732847e-01	
   1.6390000e+01	   7.1804976e-01	   1.1070256e-01	
   1.6445000e+01	   7.1197583e-01	   1.0355154e-01	
   1.6500000e+01	   7.0479260e-01	   9.5934239e-02	
   1.6555000e+01	   6.9658261e-01	   8.7919145e-02	
   1.6610000e+01	   6.8745524e-01	   7.9585794e-02	
   1.6665000e+01	   6.7754085e-01	   7.1023773e-02	
   1.6720000e+01	   6.6698110e-01	   6.2329660e-02	
   1.6775000e+01	   6.5591729e-01	   5.3602269e-02	
   1.6830000e+01	   6.4447853e-01	   4.4936302e-02	
   1.6885000e+01	   6.3277196e-01	   3.6415146e-02	
   1.6940000e+01	   6.2087726e-01	   2.8104857e-02	
   1.6995000e+01	   6.0884744e-01	   2.0051689e-02	
   1.7050000e+01	   5.9671583e-01	   1.2284221e-02	
   1.7105000e+01	   5.8450730e-01	   4.8189795e-03	
   1.7160000e+01	   5.7224922e-01	  -2.3328043e-03	
   1.7215000e+01	   5.5997857e-01	  -9.1595572e-03	
   1.7270000e+01	   5.4774330e-01	  -1.5646486e-02	
   1.7325000e+01	   5.3559826e-01	  -2.1776386e-02	
   1.7380000e+01	   5.2359772e-01	  -2.7533548e-02	
   1.7435000e+01	   5.1178715e-01	  -3.2908899e-02	
   1.7490000e+01	   5.0019585e-01	  -3.7904730e-02	
   1.7545000e+01	   4.8883057e-01	  -4.2538088e-02	
   1.7600000e+01	   4.7767146e-01	  -4.6841646e-02	
   1.7655000e+01	   4.6667351e-01	  -5.0860868e-02	
   1.7710000e+01	   4.5577489e-01	  -5.4647725e-02	
   1.7765000e+01	   4.4491005e-01	  -5.8252833e-02	
   1.7820000e+01	   4.3402390e-01	  -6.1717893e-02	
   1.7875000e+01	   4.2308393e-01	  -6.5069515e-02	
   1.7930000e+01	   4.1208787e-01	  -6.8315368e-02	
   1.7985000e+01	   4.0106455e-01	  -7.1443992e-02	
   1.8040000e+01	   3.9006747e-01	  -7.4428876e-02	
   1.8095000e+01	   3.7916275e-01	  -7.7236083e-02	
   1.8150000e+01	   3.6841391e-01	  -7.9833867e-02	
   1.8205000e+01	   3.5786614e-01	  -8.2202649e-02	
   1.8260000e+01	   3.4753336e-01	  -8.4343813e-02	
   1.8315000e+01	   3.3739113e-01	  -8.6285774e-02	
   1.8370000e+01	   3.2737744e-01	  -8.8085612e-02	
   1.8425000e+01	   3.1740199e-01	  -8.9825262e-02	
   1.8480000e+01	   3.0736174e-01	  -9.1602885e-02	
   1.8535000e+01	   2.9715801e-01	  -9.3521651e-02	
   1.8590000e+01	   2.8671075e-01	  -9.5678463e-02	
   1.8645000e+01	   2.7596719e-01	  -9.8154508e-02	
   1.8700000e+01	   2.6490461e-01	  -1.0100861e-01	
   1.8755000e+01	   2.5352786e-01	  -1.0427368e-01	
   1.8810000e+01	   2.4186296e-01	  -1.0795629e-01	
   1.8865000e+01	   2.2994732e-01	  -1.1203991e-01	
   1.8920000e+01	   2.1781695e-01	  -1.1649154e-01	
   1.8975000e+01	   2.0549248e-01	  -1.2127026e-01	
   1.9030000e+01	   1.9296831e-01	  -1.2633547e-01	
   1.9085000e+01	   1.8020793e-01	  -1.3165283e-01	
   1.9140000e+01	   1.6714716e-01	  -1.3719649e-01	
   1.9195000e+01	   1.5370549e-01	  -1.4294640e-01	
   1.9250000e+01	   1.3980343e-01	  -1.4888180e-01	
   1.9305000e+01	   1.2538058e-01	  -1.5497387e-01	
   1.9360000e+01	   1.1040864e-01	  -1.6118126e-01	
   1.9415000e+01	   9.4896882e-02	  -1.6744953e-01	
   1.9470000e+01	   7.8890753e-02	  -1.7371344e-01	
   1.9525000e+01	   6.2464582e-02	  -1.7990120e-01	
   1.9580000e+01	   4.5709755e-02	  -1.8594048e-01	
   1.9635000e+01	   2.8720183e-02	  -1.9176584e-01	
   1.9690000e+01	   1.1578296e-02	  -1.9732551e-01	
   1.9745000e+01	  -5.6549898e-03	  -2.0258628e-01	
   1.9800000e+01	  -2.2943497e-02	  -2.0753522e-01	
   1.9855000e+01	  -4.0270273e-02	  -2.1217755e-01	
   1.9910000e+01	  -5.7623451e-02	  -2.1653011e-01	
   1.9965000e+01	  -7.4977186e-02	  -2.2061152e-01	
   2.0020000e+01	  -9.2274020e-02	  -2.2443146e-01	
   2.0075000e+01	  -1.0941420e-01	  -2.2798175e-01	
   2.0130000e+01	  -1.2625423e-01	  -2.3123097e-01	
   2.0185000e+01	  -1.4261394e-01	  -2.3412369e-01	
   2.0240000e+01	  -1.5829046e-01	  -2.3658419e-01	
   2.0295000e+01	  -1.7307694e-01	  -2.3852390e-01	
   2.0350000e+01	  -1.8678270e-01	  -2.3985058e-01	
   2.0405000e+01	  -1.9925002e-01	  -2.4047712e-01	
   2.0460000e+01	  -2.1036350e-01	  -2.4032771e-01	
   2.0515000e+01	  -2.2005012e-01	  -2.3934032e-01	
   2.0570000e+01	  -2.2827250e-01	  -2.3746517e-01	
   2.0625000e+01	  -2.3501966e-01	  -2.3466133e-01	
   2.0680000e+01	  -2.4030037e-01	  -2.3089443e-01	
   2.0735000e+01	  -2.4414118e-01	  -2.2613788e-01	
   2.0790000e+01	  -2.4658798e-01	  -2.2037708e-01	
   2.0845000e+01	  -2.4770841e-01	  -2.1361406e-01	
   2.0900000e+01	  -2.4759353e-01	  -2.0587088e-01	
   2.0955000e+01	  -2.4635871e-01	  -1.9719221e-01	
   2.1010000e+01	  -2.4414287e-01	  -1.8764694e-01	
   2.1065000e+01	  -2.4110414e-01	  -1.7732782e-01	
   2.1120000e+01	  -2.3741002e-01	  -1.6634759e-01	
   2.1175000e+01	  -2.3322216e-01	  -1.5483112e-01	
   2.1230000e+01	  -2.2867893e-01	  -1.4290478e-01	
   2.1285000e+01	  -2.2388004e-01	  -1.3068569e-01	
   2.1340000e+01	  -2.1887734e-01	  -1.1827357e-01	
   2.1395000e+01	  -2.1367336e-01	  -1.0574677e-01	
   2.1450000e+01	  -2.0822729e-01	  -9.3162184e-02	
   2.1505000e+01	  -2.0246718e-01	  -8.0558544e-02	
   2.1560000e+01	  -1.9630664e-01	  -6.7962326e-02	
   2.1615000e+01	  -1.8966320e-01	  -5.5395421e-02	
   2.1670000e+01	  -1.8247423e-01	  -4.2882989e-02	
   2.1725000e+01	  -1.7470642e-01	  -3.0458980e-02	
   2.1780000e+01	  -1.6635710e-01	  -1.8167015e-02	
   2.1835000e+01	  -1.5744849e-01	  -6.0561297e-03	
   2.1890000e+01	  -1.4801851e-01	   5.8267649e-03	
   2.1945000e+01	  -1.3811108e-01	   1.7445167e-02	
   2.2000000e+01	  -1.2776760e-01	   2.8779843e-02	
   2.2055000e+01	  -1.1702133e-01	   3.9832142e-02	
   2.2110000e+01	  -1.0589701e-01	   5.0622146e-02	
   2.2165000e+01	  -9.4416466e-02	   6.1181830e-02	
   2.2220000e+01	  -8.2608253e-02	   7.1544861e-02	
   2.2275000e+01	  -7.0518479e-02	   8.1735082e-02	
   2.2330000e+01	  -5.8220174e-02	   9.1756021e-02	
   2.2385000e+01	  -4.5818990e-02	   1.0158403e-01	
   2.2440000e+01	  -3.3452855e-02	   1.1116676e-01	
   2.2495000e+01	  -2.1284355e-02	   1.2042709e-01	
   2.2550000e+01	  -9.4868558e-03	   1.2927146e-01	
   2.2605000e+01	   1.7725888e-03	   1.3760147e-01	
   2.2660000e+01	   1.2349577e-02	   1.4532680e-01	
   2.2715000e+01	   2.2134358e-02	   1.5237671e-01	
   2.2770000e+01	   3.1057569e-02	   1.5870801e-01	
   2.2825000e+01	   3.9089654e-02	   1.6430811e-01	
   2.2880000e+01	   4.6234815e-02	   1.6919337e-01	
   2.2935000e+01	   5.2520554e-02	   1.7340315e-01	
   2.2990000e+01	   5.7984287e-02	   1.7699000e-01	
   2.3045000e+01	   6.2659395e-02	   1.8000790e-01	
   2.3100000e+01	   6.6563926e-02	   1.8250119e-01	
   2.3155000e+01	   6.9694825e-02	   1.8449704e-01	
   2.3210000e+01	   7.2029243e-02	   1.8600243e-01	
   2.3265000e+01	   7.3532799e-02	   1.8700595e-01	
   2.3320000e+01	   7.4172843e-02	   1.8748415e-01	
   2.3375000e+01	   7.3933084e-02	   1.8741037e-01	
   2.3430000e+01	   7.2825586e-02	   1.8676361e-01	
   2.3485000e+01	   7.0897360e-02	   1.8553522e-01	
   2.3540000e+01	   6.8230236e-02	   1.8373262e-01	
   2.3595000e+01	   6.4933725e-02	   1.8137916e-01	
   2.3650000e+01	   6.1131621e-02	   1.7851003e-01	
   2.3705000e+01	   5.6944323e-02	   1.7516480e-01	
   2.3760000e+01	   5.2469988e-02	   1.7137870e-01	
   2.3815000e+01	   4.7768120e-02	   1.6717439e-01	
   2.3870000e+01	   4.2848687e-02	   1.6255611e-01	
   2.3925000e+01	   3.7668165e-02	   1.5750685e-01	
   2.3980000e+01	   3.2132963e-02	   1.5198969e-01	
   2.4035000e+01	   2.6110592e-02	   1.4595415e-01	
   2.4090000e+01	   1.9447585e-02	   1.3934679e-01	
   2.4145000e+01	   1.1990143e-02	   1.3212288e-01	
   2.4200000e+01	   3.6022980e-03	   1.2425595e-01	
   2.4255000e+01	  -5.8212741e-03	   1.1574385e-01	
   2.4310000e+01	  -1.6347658e-02	   1.0661131e-01	
   2.4365000e+01	  -2.8002477e-02	   9.6908439e-02	
   2.4420000e+01	  -4.0770577e-02	   8.6705444e-02	
   2.4475000e+01	  -5.4600348e-02	   7.6084680e-02	
   2.4530000e+01	  -6.9411736e-02	   6.5131675e-02	
   2.4585000e+01	  -8.5107559e-02	   5.3926294e-02	
   2.4640000e+01	  -1.0158545e-01	   4.2535787e-02	
   2.4695000e+01	  -1.1874566e-01	   3.1011813e-02	
   2.4750000e+01	  -1.3649107e-01	   1.9392712e-02	
   2.4805000e+01	  -1.5471981e-01	   7.7105251e-03	
   2.4860000e+01	  -1.7331507e-01	  -3.9996639e-03	
   2.4915000e+01	  -1.9213720e-01	  -1.5691544e-02	
   2.4970000e+01	  -2.1102161e-01	  -2.7303512e-02	
   2.5025000e+01	  -2.2978248e-01	  -3.8759595e-02	
   2.5080000e+01	  -2.4822148e-01	  -4.9973891e-02	
   2.5135000e+01	  -2.6613931e-01	  -6.0856479e-02	
   2.5190000e+01	  -2.8334809e-01	  -7.1320035e-02	
   2.5245000e+01	  -2.9968393e-01	  -8.1287487e-02	
   2.5300000e+01	  -3.1501969e-01	  -9.0700497e-02	
   2.5355000e+01	  -3.2927702e-01	  -9.9527237e-02	
   2.5410000e+01	  -3.4243378e-01	  -1.0776736e-01	
   2.5465000e+01	  -3.5452204e-01	  -1.1545231e-01	
   2.5520000e+01	  -3.6561540e-01	  -1.2264000e-01	
   2.5575000e+01	  -3.7580957e-01	  -1.2940443e-01	
   2.5630000e+01	  -3.8520295e-01	  -1.3582309e-01	
   2.5685000e+01	  -3.9388247e-01	  -1.4196555e-01	
   2.5740000e+01	  -4.0191718e-01	  -1.4788536e-01	
   2.5795000e+01	  -4.0935955e-01	  -1.5361585e-01	
   2.5850000e+01	  -4.1625321e-01	  -1.5916997e-01	
   2.5905000e+01	  -4.2264418e-01	  -1.6454392e-01	
   2.5960000e+01	  -4.2859180e-01	  -1.6972377e-01	
   2.6015000e+01	  -4.3417571e-01	  -1.7469282e-01	
   2.6070000e+01	  -4.3949601e-01	  -1.7943722e-01	
   2.6125000e+01	  -4.4466558e-01	  -1.8394794e-01	
   2.6180000e+01	  -4.4979563e-01	  -1.8821890e-01	
   2.6235000e+01	  -4.5497872e-01	  -1.9224212e-01	
   2.6290000e+01	  -4.6027476e-01	  -1.9600221e-01	
   2.6345000e+01	  -4.6570383e-01	  -1.9947265e-01	
   2.6400000e+01	  -4.7124646e-01	  -2.0261500e-01	
   2.6455000e+01	  -4.7685013e-01	  -2.0538088e-01	
   2.6510000e+01	  -4.8244028e-01	  -2.0771591e-01	
   2.6565000e+01	  -4.8793445e-01	  -2.0956596e-01	
   2.6620000e+01	  -4.9325700e-01	  -2.1088517e-01	
   2.6675000e+01	  -4.9835150e-01	  -2.1164450e-01	
   2.6730000e+01	  -5.0318763e-01	  -2.1183791e-01	
   2.6785000e+01	  -5.0775946e-01	  -2.1148377e-01	
   2.6840000e+01	  -5.1207500e-01	  -2.1062118e-01	
   2.6895000e+01	  -5.1614111e-01	  -2.0930294e-01	
   2.6950000e+01	  -5.1995020e-01	  -2.0758824e-01	
   2.7005000e+01	  -5.2347320e-01	  -2.0553686e-01	
   2.7060000e+01	  -5.2665999e-01	  -2.0320615e-01	
   2.7115000e+01	  -5.2944618e-01	  -2.0065099e-01	
   2.7170000e+01	  -5.3176418e-01	  -1.9792548e-01	
   2.7225000e+01	  -5.3355576e-01	  -1.9508534e-01	
   2.7280000e+01	  -5.3478389e-01	  -1.9219015e-01	
   2.7335000e+01	  -5.3544204e-01	  -1.8930538e-01	
   2.7390000e+01	  -5.3555895e-01	  -1.8650309e-01	
   2.7445000e+01	  -5.3519598e-01	  -1.8385987e-01	
   2.7500000e+01	  -5.3443592e-01	  -1.8145107e-01	
   2.7555000e+01	  -5.3336569e-01	  -1.7934263e-01	
   2.7610000e+01	  -5.3205831e-01	  -1.7758282e-01	
   2.7665000e+01	  -5.3055866e-01	  -1.7619589e-01	
   2.7720000e+01	  -5.2887637e-01	  -1.7517909e-01	
   2.7775000e+01	  -5.2698805e-01	  -1.7450471e-01	
   2.7830000e+01	  -5.2484842e-01	  -1.7412666e-01	
   2.7885000e+01	  -5.2240737e-01	  -1.7398952e-01	
   2.7940000e+01	  -5.1962813e-01	  -1.7403804e-01	
   2.7995000e+01	  -5.1650321e-01	  -1.7422589e-01	
   2.8050000e+01	  -5.1306564e-01	  -1.7452294e-01	
   2.8105000e+01	  -5.0939406e-01	  -1.7491919e-01	
   2.8160000e+01	  -5.0560976e-01	  -1.7542397e-01	
   2.8215000e+01	  -5.0186515e-01	  -1.7606024e-01	
   2.8270000e+01	  -4.9832597e-01	  -1.7685573e-01	
   2.8325000e+01	  -4.9515239e-01	  -1.7783398e-01	
   2.8380000e+01	  -4.9248346e-01	  -1.7900784e-01	
   2.8435000e+01	  -4.9042757e-01	  -1.8037648e-01	
   2.8490000e+01	  -4.8905836e-01	  -1.8192590e-01	
   2.8545000e+01	  -4.8841476e-01	  -1.8363156e-01	
   2.8600000e+01	  -4.8850389e-01	  -1.8546255e-01	
   2.8655000e+01	  -4.8930791e-01	  -1.8738735e-01	
   2.8710000e+01	  -4.9079538e-01	  -1.8938155e-01	
   2.8765000e+01	  -4.9293490e-01	  -1.9143573e-01	
   2.8820000e+01	  -4.9570591e-01	  -1.9356055e-01	
   2.8875000e+01	  -4.9910118e-01	  -1.9578646e-01	
   2.8930000e+01	  -5.0311948e-01	  -1.9815740e-01	
   2.8985000e+01	  -5.0775137e-01	  -2.0071967e-01	
   2.9040000e+01	  -5.1296414e-01	  -2.0350880e-01	
   2.9095000e+01	  -5.1869154e-01	  -2.0653829e-01	
   2.9150000e+01	  -5.2483137e-01	  -2.0979269e-01	
   2.9205000e+01	  -5.3125029e-01	  -2.1322602e-01	
   2.9260000e+01	  -5.3779340e-01	  -2.1676485e-01	
   2.9315000e+01	  -5.4429639e-01	  -2.2031483e-01	
   2.9370000e+01	  -5.5059902e-01	  -2.2376970e-01	
   2.9425000e+01	  -5.5655821e-01	  -2.2702063e-01	
   2.9480000e+01	  -5.6205770e-01	  -2.2996381e-01	
   2.9535000e+01	  -5.6701188e-01	  -2.3250471e-01	
   2.9590000e+01	  -5.7136303e-01	  -2.3455923e-01	
   2.9645000e+01	  -5.7507377e-01	  -2.3605269e-01	
   2.9700000e+01	  -5.7811809e-01	  -2.3691774e-01	
   2.9755000e+01	  -5.8047440e-01	  -2.3709289e-01	
   2.9810000e+01	  -5.8212277e-01	  -2.3652328e-01	
   2.9865000e+01	  -5.8304698e-01	  -2.3516396e-01	
   2.9920000e+01	  -5.8324005e-01	  -2.3298477e-01	
   2.9975000e+01	  -5.8271123e-01	  -2.2997502e-01	
   3.0030000e+01	  -5.8149163e-01	  -2.2614712e-01	
   3.0085000e+01	  -5.7963577e-01	  -2.2153838e-01	
   3.0140000e+01	  -5.7721627e-01	  -2.1620989e-01	
   3.0195000e+01	  -5.7431182e-01	  -2.1024197e-01	
   3.0250000e+01	  -5.7099255e-01	  -2.0372684e-01	
   3.0305000e+01	  -5.6730815e-01	  -1.9676067e-01	
   3.0360000e+01	  -5.6328120e-01	  -1.8943640e-01	
   3.0415000e+01	  -5.5890557e-01	  -1.8183857e-01	
   3.0470000e+01	  -5.5414996e-01	  -1.7404096e-01	
   3.0525000e+01	  -5.4896652e-01	  -1.6610735e-01	
   3.0580000e+01	  -5.4330360e-01	  -1.5809497e-01	
   3.0635000e+01	  -5.3712024e-01	  -1.5005967e-01	
   3.0690000e+01	  -5.3039953e-01	  -1.4206156e-01	
   3.0745000e+01	  -5.2315735e-01	  -1.3416902e-01	
   3.0800000e+01	  -5.1544301e-01	  -1.2645837e-01	
   3.0855000e+01	  -5.0733018e-01	  -1.1900737e-01	
   3.0910000e+01	  -4.9890133e-01	  -1.1188441e-01	
   3.0965000e+01	  -4.9023248e-01	  -1.0513785e-01	
   3.1020000e+01	  -4.8138346e-01	  -9.8789731e-02	
   3.1075000e+01	  -4.7239415e-01	  -9.2834562e-02	
   3.1130000e+01	  -4.6328575e-01	  -8.7242706e-02	
   3.1185000e+01	  -4.5406696e-01	  -8.1967441e-02	
   3.1240000e+01	  -4.4474390e-01	  -7.6954189e-02	
   3.1295000e+01	  -4.3533171e-01	  -7.2149909e-02	
   3.1350000e+01	  -4.2586491e-01	  -6.7511036e-02	
   3.1405000e+01	  -4.1640340e-01	  -6.3008946e-02	
   3.1460000e+01	  -4.0703085e-01	  -5.8631612e-02	
   3.1515000e+01	  -3.9784469e-01	  -5.4380718e-02	
   3.1570000e+01	  -3.8894112e-01	  -5.0265817e-02	
   3.1625000e+01	  -3.8040148e-01	  -4.6298836e-02	
   3.1680000e+01	  -3.7228407e-01	  -4.2491156e-02	
   3.1735000e+01	  -3.6462319e-01	  -3.8853478e-02	
   3.1790000e+01	  -3.5743414e-01	  -3.5397743e-02	
   3.1845000e+01	  -3.5072256e-01	  -3.2140383e-02	
   3.1900000e+01	  -3.4449585e-01	  -2.9106097e-02	
   3.1955000e+01	  -3.3877413e-01	  -2.6331066e-02	
   3.2010000e+01	  -3.3359838e-01	  -2.3864677e-02	
   3.2065000e+01	  -3.2903383e-01	  -2.1769174e-02	
   3.2120000e+01	  -3.2516777e-01	  -2.0116796e-02	
   3.2175000e+01	  -3.2210182e-01	  -1.8983761e-02	
   3.2230000e+01	  -3.1993952e-01	  -1.8441174e-02	
   3.2285000e+01	  -3.1877210e-01	  -1.8544475e-02	
   3.2340000e+01	  -3.1866559e-01	  -1.9323954e-02	
   3.2395000e+01	  -3.1965219e-01	  -2.0778072e-02	
   3.2450000e+01	  -3.2172747e-01	  -2.2870289e-02	
   3.2505000e+01	  -3.2485372e-01	  -2.5530108e-02	
   3.2560000e+01	  -3.2896916e-01	  -2.8658868e-02	
   3.2615000e+01	  -3.3400128e-01	  -3.2139469e-02	
   3.2670000e+01	  -3.3988105e-01	  -3.5847896e-02	
   3.2725000e+01	  -3.4655437e-01	  -3.9664482e-02	
   3.2780000e+01	  -3.5398726e-01	  -4.3483202e-02	
   3.2835000e+01	  -3.6216270e-01	  -4.7217199e-02	
   3.2890000e+01	  -3.7106994e-01	  -5.0799367e-02	
   3.2945000e+01	  -3.8068989e-01	  -5.4178819e-02	
   3.3000000e+01	  -3.9098212e-01	  -5.7315615e-02	
   3.3055000e+01	  -4.0187634e-01	  -6.0175987e-02	
   3.3110000e+01	  -4.1326935e-01	  -6.2729216e-02	
   3.3165000e+01	  -4.2502737e-01	  -6.4946775e-02	
   3.3220000e+01	  -4.3699403e-01	  -6.6804031e-02	
   3.3275000e+01	  -4.4900229e-01	  -6.8284000e-02	
   3.3330000e+01	  -4.6088744e-01	  -6.9382008e-02	
   3.3385000e+01	  -4.7249762e-01	  -7.0109732e-02	
   3.3440000e+01	  -4.8369920e-01	  -7.0496836e-02	
   3.3495000e+01	  -4.9437531e-01	  -7.0588487e-02	
   3.3550000e+01	  -5.0441930e-01	  -7.0438888e-02	
   3.3605000e+01	  -5.1372737e-01	  -7.0103391e-02	
   3.3660000e+01	  -5.2219436e-01	  -6.9632169e-02	
   3.3715000e+01	  -5.2971440e-01	  -6.9066356e-02	
   3.3770000e+01	  -5.3618556e-01	  -6.8436049e-02	
   3.3825000e+01	  -5.4151664e-01	  -6.7760000e-02	
   3.3880000e+01	  -5.4563470e-01	  -6.7047589e-02	
   3.3935000e+01	  -5.4849199e-01	  -6.6302888e-02	
   3.3990000e+01	  -5.5007011e-01	  -6.5529163e-02	
   3.4045000e+01	  -5.5037892e-01	  -6.4731533e-02	
   3.4100000e+01	  -5.4944887e-01	  -6.3916217e-02	
   3.4155000e+01	  -5.4731922e-01	  -6.3086566e-02	
   3.4210000e+01	  -5.4402544e-01	  -6.2237434e-02	
   3.4265000e+01	  -5.3958954e-01	  -6.1349912e-02	
   3.4320000e+01	  -5.3401577e-01	  -6.0388518e-02	
   3.4375000e+01	  -5.2729305e-01	  -5.9302399e-02	
   3.4430000e+01	  -5.1940234e-01	  -5.8030331e-02	
   3.4485000e+01	  -5.1032542e-01	  -5.6507652e-02	
   3.4540000e+01	  -5.0005358e-01	  -5.4673430e-02	
   3.4595000e+01	  -4.8859597e-01	  -5.2476900e-02	
   3.4650000e+01	  -4.7598577e-01	  -4.9881716e-02	
   3.4705000e+01	  -4.6228061e-01	  -4.6866327e-02	
   3.4760000e+01	  -4.4755550e-01	  -4.3420534e-02	
   3.4815000e+01	  -4.3189108e-01	  -3.9540250e-02	
   3.4870000e+01	  -4.1536216e-01	  -3.5222724e-02	
   3.4925000e+01	  -3.9803194e-01	  -3.0463589e-02	
   3.4980000e+01	  -3.7995390e-01	  -2.5256735e-02	
   3.5035000e+01	  -3.6117972e-01	  -1.9597366e-02	
   3.5090000e+01	  -3.4176952e-01	  -1.3487193e-02	
   3.5145000e+01	  -3.2180101e-01	  -6.9396945e-03	
   3.5200000e+01	  -3.0137602e-01	   1.5999076e-05	
   3.5255000e+01	  -2.8062391e-01	   7.3329445e-03	
   3.5310000e+01	  -2.5970066e-01	   1.4946333e-02	
   3.5365000e+01	  -2.3878130e-01	   2.2776539e-02	
   3.5420000e+01	  -2.1804597e-01	   3.0735686e-02	
   3.5475000e+01	  -1.9766307e-01	   3.8736213e-02	
   3.5530000e+01	  -1.7777438e-01	   4.6698608e-02	
   3.5585000e+01	  -1.5848507e-01	   5.4556371e-02	
   3.5640000e+01	  -1.3985912e-01	   6.2258007e-02	
   3.5695000e+01	  -1.2192053e-01	   6.9766390e-02	
   3.5750000e+01	  -1.0466071e-01	   7.7055481e-02	
   3.5805000e+01	  -8.8050971e-02	   8.4104618e-02	
   3.5860000e+01	  -7.2058094e-02	   9.0891249e-02	
   3.5915000e+01	  -5.6660271e-02	   9.7383351e-02	
   3.5970000e+01	  -4.1860654e-02	   1.0353313e-01	
   3.6025000e+01	  -2.7695208e-02	   1.0927413e-01	
   3.6080000e+01	  -1.4232698e-02	   1.1452333e-01	
   3.6135000e+01	  -1.5669028e-03	   1.1918780e-01	
   3.6190000e+01	   1.0196501e-02	   1.2317428e-01	
   3.6245000e+01	   2.0954770e-02	   1.2639915e-01	
   3.6300000e+01	   3.0621265e-02	   1.2879689e-01	
   3.6355000e+01	   3.9134296e-02	   1.3032536e-01	
   3.6410000e+01	   4.6460008e-02	   1.3096706e-01	
   3.6465000e+01	   5.2589427e-02	   1.3072709e-01	
   3.6520000e+01	   5.7531284e-02	   1.2962915e-01	
   3.6575000e+01	   6.1302996e-02	   1.2771052e-01	
   3.6630000e+01	   6.3922359e-02	   1.2501646e-01	
   3.6685000e+01	   6.5402657e-02	   1.2159487e-01	
   3.6740000e+01	   6.5753809e-02	   1.1749222e-01	
   3.6795000e+01	   6.4990845e-02	   1.1275193e-01	
   3.6850000e+01	   6.3147428e-02	   1.0741464e-01	
   3.6905000e+01	   6.0289148e-02	   1.0152006e-01	
   3.6960000e+01	   5.6521885e-02	   9.5110084e-02	
   3.7015000e+01	   5.1993479e-02	   8.8232414e-02	
   3.7070000e+01	   4.6888782e-02	   8.0943135e-02	
   3.7125000e+01	   4.1418745e-02	   7.3306816e-02	
   3.7180000e+01	   3.5804689e-02	   6.5394118e-02	
   3.7235000e+01	   3.0259506e-02	   5.7277697e-02	
   3.7290000e+01	   2.4968397e-02	   4.9027441e-02	
   3.7345000e+01	   2.0072521e-02	   4.0706272e-02	
   3.7400000e+01	   1.5658963e-02	   3.2367661e-02	
   3.7455000e+01	   1.1759629e-02	   2.4055483e-02	
   3.7510000e+01	   8.3595077e-03	   1.5806400e-02	
   3.7565000e+01	   5.4112459e-03	   7.6542941e-03	
   3.7620000e+01	   2.8507090e-03	  -3.6473743e-04	
   3.7675000e+01	   6.0962576e-04	  -8.2088359e-03	
   3.7730000e+01	  -1.3758757e-03	  -1.5829640e-02	
   3.7785000e+01	  -3.1607853e-03	  -2.3174407e-02	
   3.7840000e+01	  -4.7901830e-03	  -3.0189778e-02	
   3.7895000e+01	  -6.3004077e-03	  -3.6825631e-02	
   3.7950000e+01	  -7.7211343e-03	  -4.3038421e-02	
   3.8005000e+01	  -9.0773935e-03	  -4.8794039e-02	
   3.8060000e+01	  -1.0390212e-02	  -5.4069606e-02	
   3.8115000e+01	  -1.1674211e-02	  -5.8853004e-02	
   3.8170000e+01	  -1.2931855e-02	  -6.3139898e-02	
   3.8225000e+01	  -1.4146274e-02	  -6.6929183e-02	
   3.8280000e+01	  -1.5275450e-02	  -7.0218032e-02	
   3.8335000e+01	  -1.6249720e-02	  -7.2997700e-02	
   3.8390000e+01	  -1.6973973e-02	  -7.5251387e-02	
   3.8445000e+01	  -1.7335053e-02	  -7.6955137e-02	
   3.8500000e+01	  -1.7213412e-02	  -7.8081692e-02	
   3.8555000e+01	  -1.6496849e-02	  -7.8606174e-02	
   3.8610000e+01	  -1.5093786e-02	  -7.8512185e-02	
   3.8665000e+01	  -1.2943016e-02	  -7.7796523e-02	
   3.8720000e+01	  -1.0016142e-02	  -7.6470129e-02	
   3.8775000e+01	  -6.3108355e-03	  -7.4553811e-02	
   3.8830000e+01	  -1.8377569e-03	  -7.2070233e-02	
   3.8885000e+01	   3.3923577e-03	  -6.9035938e-02	
   3.8940000e+01	   9.3760419e-03	  -6.5456540e-02	
   3.8995000e+01	   1.6117764e-02	  -6.1326020e-02	
   3.9050000e+01	   2.3625637e-02	  -5.6629817e-02	
   3.9105000e+01	   3.1904067e-02	  -5.1350982e-02	
   3.9160000e+01	   4.0944996e-02	  -4.5478109e-02	
   3.9215000e+01	   5.0719724e-02	  -3.9013020e-02	
   3.9270000e+01	   6.1173374e-02	  -3.1976453e-02	
   3.9325000e+01	   7.2223729e-02	  -2.4410765e-02	
   3.9380000e+01	   8.3765899e-02	  -1.6379067e-02	
   3.9435000e+01	   9.5683327e-02	  -7.9606190e-03	
   3.9490000e+01	   1.0786295e-01	   7.5629209e-04	
   3.9545000e+01	   1.2020940e-01	   9.6816523e-03	
   3.9600000e+01	   1.3265304e-01	   1.8728977e-02	
   3.9655000e+01	   1.4514948e-01	   2.7817514e-02	
   3.9710000e+01	   1.5767152e-01	   3.6871458e-02	
   3.9765000e+01	   1.7019603e-01	   4.5816802e-02	
   3.9820000e+01	   1.8268941e-01	   5.4577012e-02	
   3.9875000e+01	   1.9509541e-01	   6.3069192e-02	
   3.9930000e+01	   2.0732916e-01	   7.1202227e-02	
   3.9985000e+01	   2.1927856e-01	   7.8877880e-02	
   4.0040000e+01	   2.3081235e-01	   8.5995393e-02	
   4.0095000e+01	   2.4179279e-01	   9.2459276e-02	
   4.0150000e+01	   2.5208984e-01	   9.8188456e-02	
   4.0205000e+01	   2.6159285e-01	   1.0312398e-01	
   4.0260000e+01	   2.7021652e-01	   1.0723306e-01	
   4.0315000e+01	   2.7790042e-01	   1.1050907e-01	
   4.0370000e+01	   2.8460447e-01	   1.1296841e-01	
   4.0425000e+01	   2.9030249e-01	   1.1464531e-01	
   4.0480000e+01	   2.9497525e-01	   1.1558509e-01	
   4.0535000e+01	   2.9860502e-01	   1.1583710e-01	
   4.0590000e+01	   3.0117331e-01	   1.1544889e-01	
   4.0645000e+01	   3.0266330e-01	   1.1446329e-01	
   4.0700000e+01	   3.0306682e-01	   1.1291935e-01	
   4.0755000e+01	   3.0239325e-01	   1.1085635e-01	
   4.0810000e+01	   3.0067750e-01	   1.0831891e-01	
   4.0865000e+01	   2.9798512e-01	   1.0536129e-01	
   4.0920000e+01	   2.9441424e-01	   1.0204958e-01	
   4.0975000e+01	   2.9009417e-01	   9.8461563e-02	
   4.1030000e+01	   2.8518071e-01	   9.4684299e-02	
   4.1085000e+01	   2.7984843e-01	   9.0809856e-02	
   4.1140000e+01	   2.7428127e-01	   8.6929905e-02	
   4.1195000e+01	   2.6866352e-01	   8.3130322e-02	
   4.1250000e+01	   2.6317402e-01	   7.9488024e-02	
   4.1305000e+01	   2.5798607e-01	   7.6071921e-02	
   4.1360000e+01	   2.5327174e-01	   7.2947430e-02	
   4.1415000e+01	   2.4920623e-01	   7.0181762e-02	
   4.1470000e+01	   2.4596895e-01	   6.7847275e-02	
   4.1525000e+01	   2.4373998e-01	   6.6021321e-02	
   4.1580000e+01	   2.4269189e-01	   6.4782095e-02	
   4.1635000e+01	   2.4297816e-01	   6.4201632e-02	
   4.1690000e+01	   2.4472164e-01	   6.4338479e-02	
   4.1745000e+01	   2.4800597e-01	   6.5232238e-02	
   4.1800000e+01	   2.5287093e-01	   6.6900552e-02	
   4.1855000e+01	   2.5931164e-01	   6.9338471e-02	
   4.1910000e+01	   2.6728271e-01	   7.2520502e-02	
   4.1965000e+01	   2.7670759e-01	   7.6405028e-02	
   4.2020000e+01	   2.8749052e-01	   8.0939455e-02	
   4.2075000e+01	   2.9952660e-01	   8.6064585e-02	
   4.2130000e+01	   3.1270741e-01	   9.1717971e-02	
   4.2185000e+01	   3.2692145e-01	   9.7836070e-02	
   4.2240000e+01	   3.4204972e-01	   1.0435428e-01	
   4.2295000e+01	   3.5795815e-01	   1.1120433e-01	
   4.2350000e+01	   3.7448942e-01	   1.1830974e-01	
   4.2405000e+01	   3.9145764e-01	   1.2558139e-01	
   4.2460000e+01	   4.0864805e-01	   1.3291523e-01	
   4.2515000e+01	   4.2582351e-01	   1.4019394e-01	
   4.2570000e+01	   4.4273901e-01	   1.4729354e-01	
   4.2625000e+01	   4.5916267e-01	   1.5409466e-01	
   4.2680000e+01	   4.7489809e-01	   1.6049582e-01	
   4.2735000e+01	   4.8980158e-01	   1.6642501e-01	
   4.2790000e+01	   5.0379071e-01	   1.7184641e-01	
   4.2845000e+01	   5.1684432e-01	   1.7676143e-01	
   4.2900000e+01	   5.2899566e-01	   1.8120489e-01	
   4.2955000e+01	   5.4031962e-01	   1.8523698e-01	
   4.3010000e+01	   5.5091471e-01	   1.8893235e-01	
   4.3065000e+01	   5.6088198e-01	   1.9236842e-01	
   4.3120000e+01	   5.7030469e-01	   1.9561430e-01	
   4.3175000e+01	   5.7923293e-01	   1.9872173e-01	
   4.3230000e+01	   5.8767683e-01	   2.0171963e-01	
   4.3285000e+01	   5.9561081e-01	   2.0461429e-01	
   4.3340000e+01	   6.0298861e-01	   2.0739566e-01	
   4.3395000e+01	   6.0976496e-01	   2.1004734e-01	
   4.3450000e+01	   6.1591717e-01	   2.1255686e-01	
   4.3505000e+01	   6.2146061e-01	   2.1492339e-01	
   4.3560000e+01	   6.2645446e-01	   2.1716204e-01	
   4.3615000e+01	   6.3099684e-01	   2.1930398e-01	
   4.3670000e+01	   6.3521115e-01	   2.2139285e-01	
   4.3725000e+01	   6.3922699e-01	   2.2347841e-01	
   4.3780000e+01	   6.4315973e-01	   2.2560827e-01	
   4.3835000e+01	   6.4709169e-01	   2.2781821e-01	
   4.3890000e+01	   6.5105754e-01	   2.3012257e-01	
   4.3945000e+01	   6.5503720e-01	   2.3250726e-01	
   4.4000000e+01	   6.5895895e-01	   2.3492831e-01	
   4.4055000e+01	   6.6271311e-01	   2.3731689e-01	
   4.4110000e+01	   6.6617299e-01	   2.3958911e-01	
   4.4165000e+01	   6.6921793e-01	   2.4165758e-01	
   4.4220000e+01	   6.7175337e-01	   2.4344210e-01	
   4.4275000e+01	   6.7372418e-01	   2.4487732e-01	
   4.4330000e+01	   6.7511906e-01	   2.4591680e-01	
   4.4385000e+01	   6.7596640e-01	   2.4653363e-01	
   4.4440000e+01	   6.7632393e-01	   2.4671787e-01	
   4.4495000e+01	   6.7626424e-01	   2.4647125e-01	
   4.4550000e+01	   6.7585781e-01	   2.4579948e-01	
   4.4605000e+01	   6.7515514e-01	   2.4470366e-01	
   4.4660000e+01	   6.7417092e-01	   2.4317248e-01	
   4.4715000e+01	   6.7287366e-01	   2.4117683e-01	
   4.4770000e+01	   6.7118344e-01	   2.3866781e-01	
   4.4825000e+01	   6.6897975e-01	   2.3557941e-01	
   4.4880000e+01	   6.6611940e-01	   2.3183677e-01	
   4.4935000e+01	   6.6246162e-01	   2.2736888e-01	
   4.4990000e+01	   6.5789298e-01	   2.2212235e-01	
   4.5045000e+01	   6.5234521e-01	   2.1607232e-01	
   4.5100000e+01	   6.4580293e-01	   2.0922864e-01	
   4.5155000e+01	   6.3830207e-01	   2.0163702e-01	
   4.5210000e+01	   6.2992176e-01	   1.9337516e-01	
   4.5265000e+01	   6.2077165e-01	   1.8454465e-01	
   4.5320000e+01	   6.1097607e-01	   1.7525988e-01	
   4.5375000e+01	   6.0065629e-01	   1.6563575e-01	
   4.5430000e+01	   5.8991346e-01	   1.5577608e-01	
   4.5485000e+01	   5.7881621e-01	   1.4576468e-01	
   4.5540000e+01	   5.6739678e-01	   1.3566119e-01	
   4.5595000e+01	   5.5565669e-01	   1.2550243e-01	
   4.5650000e+01	   5.4357892e-01	   1.1530840e-01	
   4.5705000e+01	   5.3114074e-01	   1.0509055e-01	
   4.5760000e+01	   5.1832247e-01	   9.4859948e-02	
   4.5815000e+01	   5.0511194e-01	   8.4634143e-02	
   4.5870000e+01	   4.9150494e-01	   7.4441243e-02	
   4.5925000e+01	   4.7750202e-01	   6.4319970e-02	
   4.5980000e+01	   4.6310111e-01	   5.4315659e-02	
   4.6035000e+01	   4.4828746e-01	   4.4473368e-02	
   4.6090000e+01	   4.3302297e-01	   3.4829503e-02	
   4.6145000e+01	   4.1723815e-01	   2.5403407e-02	
   4.6200000e+01	   4.0082968e-01	   1.6190799e-02	
   4.6255000e+01	   3.8366569e-01	   7.1610835e-03	
   4.6310000e+01	   3.6559850e-01	  -1.7402889e-03	
   4.6365000e+01	   3.4648267e-01	  -1.0584703e-02	
   4.6420000e+01	   3.2619505e-01	  -1.9450015e-02	
   4.6475000e+01	   3.0465350e-01	  -2.8409418e-02	
   4.6530000e+01	   2.8183040e-01	  -3.7522277e-02	
   4.6585000e+01	   2.5775832e-01	  -4.6828672e-02	
   4.6640000e+01	   2.3252733e-01	  -5.6347588e-02	
   4.6695000e+01	   2.0627518e-01	  -6.6077907e-02	
   4.6750000e+01	   1.7917207e-01	  -7.6001959e-02	
   4.6805000e+01	   1.5140165e-01	  -8.6091639e-02	
   4.6860000e+01	   1.2314181e-01	  -9.6315753e-02	
   4.6915000e+01	   9.4550504e-02	  -1.0664584e-01	
   4.6970000e+01	   6.5760799e-02	  -1.1705811e-01	
   4.7025000e+01	   3.6885493e-02	  -1.2753103e-01	
   4.7080000e+01	   8.0271881e-03	  -1.3804005e-01	
   4.7135000e+01	  -2.0710952e-02	  -1.4855183e-01	
   4.7190000e+01	  -4.9216684e-02	  -1.5902006e-01	
   4.7245000e+01	  -7.7363752e-02	  -1.6938436e-01	
   4.7300000e+01	  -1.0501112e-01	  -1.7957203e-01	
   4.7355000e+01	  -1.3200667e-01	  -1.8950224e-01	
   4.7410000e+01	  -1.5819504e-01	  -1.9909145e-01	
   4.7465000e+01	  -1.8342797e-01	  -2.0825895e-01	
   4.7520000e+01	  -2.0757417e-01	  -2.1693062e-01	
   4.7575000e+01	  -2.3052570e-01	  -2.2503960e-01	
   4.7630000e+01	  -2.5219881e-01	  -2.3252346e-01	
   4.7685000e+01	  -2.7252938e-01	  -2.3931954e-01	
   4.7740000e+01	  -2.9146602e-01	  -2.4536013e-01	
   4.7795000e+01	  -3.0896342e-01	  -2.5056898e-01	
   4.7850000e+01	  -3.2497757e-01	  -2.5486016e-01	
   4.7905000e+01	  -3.3946332e-01	  -2.5814025e-01	
   4.7960000e+01	  -3.5237580e-01	  -2.6031460e-01	
   4.8015000e+01	  -3.6367573e-01	  -2.6129688e-01	
   4.8070000e+01	  -3.7333625e-01	  -2.6101957e-01	
   4.8125000e+01	  -3.8134839e-01	  -2.5944311e-01	
   4.8180000e+01	  -3.8772271e-01	  -2.5656130e-01	
   4.8235000e+01	  -3.9248632e-01	  -2.5240188e-01	
   4.8290000e+01	  -3.9567579e-01	  -2.4702198e-01	
   4.8345000e+01	  -3.9732972e-01	  -2.4050086e-01	
   4.8400000e+01	  -3.9748485e-01	  -2.3293275e-01	
   4.8455000e+01	  -3.9617739e-01	  -2.2442146e-01	
   4.8510000e+01	  -3.9344800e-01	  -2.1507682e-01	
   4.8565000e+01	  -3.8934873e-01	  -2.0501266e-01	
   4.8620000e+01	  -3.8395128e-01	  -1.9434672e-01	
   4.8675000e+01	  -3.7735544e-01	  -1.8320197e-01	
   4.8730000e+01	  -3.6969433e-01	  -1.7170785e-01	
   4.8785000e+01	  -3.6113358e-01	  -1.6000032e-01	
   4.8840000e+01	  -3.5186263e-01	  -1.4821950e-01	
   4.8895000e+01	  -3.4207871e-01	  -1.3650376e-01	
   4.8950000e+01	  -3.3196632e-01	  -1.2498042e-01	
   4.9005000e+01	  -3.2167764e-01	  -1.1375624e-01	
   4.9060000e+01	  -3.1131944e-01	  -1.0291066e-01	
   4.9115000e+01	  -3.0094938e-01	  -9.2493436e-02	
   4.9170000e+01	  -2.9058159e-01	  -8.2526541e-02	
   4.9225000e+01	  -2.8019908e-01	  -7.3009597e-02	
   4.9280000e+01	  -2.6976927e-01	  -6.3927709e-02	
   4.9335000e+01	  -2.5925932e-01	  -5.5259777e-02	
   4.9390000e+01	  -2.4864813e-01	  -4.6985562e-02	
   4.9445000e+01	  -2.3793395e-01	  -3.9090358e-02	
   4.9500000e+01	  -2.2713618e-01	  -3.1566338e-02	
   4.9555000e+01	  -2.1629136e-01	  -2.4409970e-02	
   4.9610000e+01	  -2.0544481e-01	  -1.7615971e-02	
   4.9665000e+01	  -1.9464049e-01	  -1.1169845e-02	
   4.9720000e+01	  -1.8391169e-01	  -5.0418263e-03	
   4.9775000e+01	  -1.7327530e-01	   8.1567293e-04	
   4.9830000e+01	  -1.6273109e-01	   6.4665929e-03	
   4.9885000e+01	  -1.5226623e-01	   1.1986244e-02	
   4.9940000e+01	  -1.4186477e-01	   1.7453265e-02	
   4.9995000e+01	  -1.3152050e-01	   2.2939368e-02	
   5.0050000e+01	  -1.2125041e-01	   2.8498825e-02	
   5.0105000e+01	  -1.1110445e-01	   3.4159824e-02	
   5.0160000e+01	  -1.0116914e-01	   3.9919094e-02	
   5.0215000e+01	  -9.1563461e-02	   4.5740812e-02	
   5.0270000e+01	  -8.2427027e-02	   5.1560743e-02	
   5.0325000e+01	  -7.3902793e-02	   5.7295337e-02	
   5.0380000e+01	  -6.6118372e-02	   6.2853473e-02	
   5.0435000e+01	  -5.9170063e-02	   6.8147639e-02	
   5.0490000e+01	  -5.3112023e-02	   7.3102444e-02	
   5.0545000e+01	  -4.7951693e-02	   7.7659831e-02	
   5.0600000e+01	  -4.3652160e-02	   8.1780734e-02	
   5.0655000e+01	  -4.0141530e-02	   8.5443013e-02	
   5.0710000e+01	  -3.7327341e-02	   8.8636390e-02	
   5.0765000e+01	  -3.5111775e-02	   9.1356090e-02	
   5.0820000e+01	  -3.3403848e-02	   9.3596739e-02	
   5.0875000e+01	  -3.2127736e-02	   9.5347196e-02	
   5.0930000e+01	  -3.1227717e-02	   9.6587110e-02	
   5.0985000e+01	  -3.0669187e-02	   9.7286658e-02	
   5.1040000e+01	  -3.0435193e-02	   9.7410396e-02	
   5.1095000e+01	  -3.0519986e-02	   9.6924321e-02	
   5.1150000e+01	  -3.0922272e-02	   9.5804173e-02	
   5.1205000e+01	  -3.1639924e-02	   9.4042689e-02	
   5.1260000e+01	  -3.2666791e-02	   9.1653558e-02	
   5.1315000e+01	  -3.3992180e-02	   8.8670551e-02	
   5.1370000e+01	  -3.5603545e-02	   8.5141881e-02	
   5.1425000e+01	  -3.7491798e-02	   8.1121356e-02	
   5.1480000e+01	  -3.9657724e-02	   7.6658559e-02	
   5.1535000e+01	  -4.2118074e-02	   7.1790165e-02	
   5.1590000e+01	  -4.4909853e-02	   6.6533979e-02	
   5.1645000e+01	  -4.8090342e-02	   6.0886990e-02	
   5.1700000e+01	  -5.1730275e-02	   5.4828428e-02	
   5.1755000e+01	  -5.5900483e-02	   4.8327463e-02	
   5.1810000e+01	  -6.0655763e-02	   4.1353602e-02	
   5.1865000e+01	  -6.6020090e-02	   3.3887315e-02	
   5.1920000e+01	  -7.1975589e-02	   2.5928969e-02	
   5.1975000e+01	  -7.8457290e-02	   1.7504523e-02	
   5.2030000e+01	  -8.5355981e-02	   8.6668739e-03	
   5.2085000e+01	  -9.2529562e-02	  -5.0697110e-04	
   5.2140000e+01	  -9.9819971e-02	  -9.9215632e-03	
   5.2195000e+01	  -1.0707101e-01	  -1.9470368e-02	
   5.2250000e+01	  -1.1414369e-01	  -2.9044174e-02	
   5.2305000e+01	  -1.2092759e-01	  -3.8539389e-02	
   5.2360000e+01	  -1.2734723e-01	  -4.7864348e-02	
   5.2415000e+01	  -1.3336266e-01	  -5.6942329e-02	
   5.2470000e+01	  -1.3896531e-01	  -6.5711714e-02	
   5.2525000e+01	  -1.4417152e-01	  -7.4124614e-02	
   5.2580000e+01	  -1.4901591e-01	  -8.2144781e-02	
   5.2635000e+01	  -1.5354504e-01	  -8.9745176e-02	
   5.2690000e+01	  -1.5781197e-01	  -9.6905845e-02	
   5.2745000e+01	  -1.6187246e-01	  -1.0361275e-01	
   5.2800000e+01	  -1.6578270e-01	  -1.0985752e-01	
   5.2855000e+01	  -1.6959726e-01	  -1.1563774e-01	
   5.2910000e+01	  -1.7336629e-01	  -1.2095745e-01	
   5.2965000e+01	  -1.7713149e-01	  -1.2582743e-01	
   5.3020000e+01	  -1.8092080e-01	  -1.3026400e-01	
   5.3075000e+01	  -1.8474147e-01	  -1.3428490e-01	
   5.3130000e+01	  -1.8857258e-01	  -1.3790296e-01	
   5.3185000e+01	  -1.9235976e-01	  -1.4111928e-01	
   5.3240000e+01	  -1.9601383e-01	  -1.4391832e-01	
   5.3295000e+01	  -1.9941441e-01	  -1.4626652e-01	
   5.3350000e+01	  -2.0241903e-01	  -1.4811494e-01	
   5.3405000e+01	  -2.0487774e-01	  -1.4940539e-01	
   5.3460000e+01	  -2.0665078e-01	  -1.5007855e-01	
   5.3515000e+01	  -2.0762552e-01	  -1.5008289e-01	
   5.3570000e+01	  -2.0772984e-01	  -1.4938312e-01	
   5.3625000e+01	  -2.0693892e-01	  -1.4796659e-01	
   5.3680000e+01	  -2.0527315e-01	  -1.4584502e-01	
   5.3735000e+01	  -2.0278672e-01	  -1.4305043e-01	
   5.3790000e+01	  -1.9955085e-01	  -1.3962648e-01	
   5.3845000e+01	  -1.9563831e-01	  -1.3561910e-01	
   5.3900000e+01	  -1.9111350e-01	  -1.3106959e-01	
   5.3955000e+01	  -1.8602843e-01	  -1.2601161e-01	
   5.4010000e+01	  -1.8042378e-01	  -1.2047185e-01	
   5.4065000e+01	  -1.7433495e-01	  -1.1447449e-01	
   5.4120000e+01	  -1.6780166e-01	  -1.0804813e-01	
   5.4175000e+01	  -1.6087758e-01	  -1.0123351e-01	
   5.4230000e+01	  -1.5363687e-01	  -9.4089712e-02	
   5.4285000e+01	  -1.4617636e-01	  -8.6697319e-02	
   5.4340000e+01	  -1.3861156e-01	  -7.9156409e-02	
   5.4395000e+01	  -1.3106515e-01	  -7.1578563e-02	
   5.4450000e+01	  -1.2365003e-01	  -6.4074860e-02	
   5.4505000e+01	  -1.1645311e-01	  -5.6743683e-02	
   5.4560000e+01	  -1.0952443e-01	  -4.9661048e-02	
   5.4615000e+01	  -1.0287321e-01	  -4.2874585e-02	
   5.4670000e+01	  -9.6470644e-02	  -3.6402206e-02	
   5.4725000e+01	  -9.0259390e-02	  -3.0236439e-02	
   5.4780000e+01	  -8.4168781e-02	  -2.4353756e-02	
   5.4835000e+01	  -7.8132760e-02	  -1.8726041e-02	
   5.4890000e+01	  -7.2107659e-02	  -1.3331002e-02	
   5.4945000e+01	  -6.6088045e-02	  -8.1596919e-03	
   5.5000000e+01	  -6.0118042e-02	  -3.2202759e-03	
   5.5055000e+01	  -5.4293680e-02	   1.4626533e-03	
   5.5110000e+01	  -4.8753141e-02	   5.8532907e-03	
   5.5165000e+01	  -4.3656929e-02	   9.9128239e-03	
   5.5220000e+01	  -3.9164083e-02	   1.3608082e-02	
   5.5275000e+01	  -3.5410150e-02	   1.6918748e-02	
   5.5330000e+01	  -3.2490372e-02	   1.9842154e-02	
   5.5385000e+01	  -3.0450482e-02	   2.2394783e-02	
   5.5440000e+01	  -2.9286817e-02	   2.4609941e-02	
   5.5495000e+01	  -2.8955590e-02	   2.6531893e-02	
   5.5550000e+01	  -2.9388685e-02	   2.8206986e-02	
   5.5605000e+01	  -3.0512096e-02	   2.9672621e-02	
   5.5660000e+01	  -3.2262863e-02	   3.0946463e-02	
   5.5715000e+01	  -3.4600560e-02	   3.2019352e-02	
   5.5770000e+01	  -3.7510974e-02	   3.2853985e-02	
   5.5825000e+01	  -4.1002119e-02	   3.3389194e-02	
   5.5880000e+01	  -4.5094336e-02	   3.3548678e-02	
   5.5935000e+01	  -4.9806738e-02	   3.3252877e-02	
   5.5990000e+01	  -5.5143157e-02	   3.2431908e-02	
   5.6045000e+01	  -6.1081551e-02	   3.1036561e-02	
   5.6100000e+01	  -6.7569951e-02	   2.9045062e-02	
   5.6155000e+01	  -7.4529321e-02	   2.6465266e-02	
   5.6210000e+01	  -8.1861748e-02	   2.3332861e-02	
   5.6265000e+01	  -8.9462271e-02	   1.9705877e-02	
   5.6320000e+01	  -9.7232627e-02	   1.5655967e-02	
   5.6375000e+01	  -1.0509454e-01	   1.1258174e-02	
   5.6430000e+01	  -1.1300012e-01	   6.5811939e-03	
   5.6485000e+01	  -1.2093782e-01	   1.6795202e-03	
   5.6540000e+01	  -1.2893285e-01	  -3.4114559e-03	
   5.6595000e+01	  -1.3704109e-01	  -8.6759477e-03	
   5.6650000e+01	  -1.4533669e-01	  -1.4113119e-02	
   5.6705000e+01	  -1.5389603e-01	  -1.9728743e-02	
   5.6760000e+01	  -1.6278249e-01	  -2.5526420e-02	
   5.6815000e+01	  -1.7203555e-01	  -3.1501105e-02	
   5.6870000e+01	  -1.8166609e-01	  -3.7636094e-02	
   5.6925000e+01	  -1.9165731e-01	  -4.3903724e-02	
   5.6980000e+01	  -2.0197072e-01	  -5.0269751e-02	
   5.7035000e+01	  -2.1255518e-01	  -5.6700428e-02	
   5.7090000e+01	  -2.2335672e-01	  -6.3170144e-02	
   5.7145000e+01	  -2.3432637e-01	  -6.9667377e-02	
   5.7200000e+01	  -2.4542407e-01	  -7.6197463e-02	
   5.7255000e+01	  -2.5661712e-01	  -8.2781204e-02	
   5.7310000e+01	  -2.6787240e-01	  -8.9448745e-02	
   5.7365000e+01	  -2.7914403e-01	  -9.6229807e-02	
   5.7420000e+01	  -2.9036126e-01	  -1.0314315e-01	
   5.7475000e+01	  -3.0142096e-01	  -1.1018800e-01	
   5.7530000e+01	  -3.1218593e-01	  -1.1733857e-01	
   5.7585000e+01	  -3.2248788e-01	  -1.2454157e-01	
   5.7640000e+01	  -3.3213419e-01	  -1.3171728e-01	
   5.7695000e+01	  -3.4091865e-01	  -1.3876440e-01	
   5.7750000e+01	  -3.4863494e-01	  -1.4556779e-01	
   5.7805000e+01	  -3.5509010e-01	  -1.5200685e-01	
   5.7860000e+01	  -3.6011467e-01	  -1.5796218e-01	
   5.7915000e+01	  -3.6356696e-01	  -1.6331906e-01	
   5.7970000e+01	  -3.6533038e-01	  -1.6796674e-01	
   5.8025000e+01	  -3.6530566e-01	  -1.7179483e-01	
   5.8080000e+01	  -3.6340293e-01	  -1.7468964e-01	
   5.8135000e+01	  -3.5953750e-01	  -1.7653316e-01	
   5.8190000e+01	  -3.5363128e-01	  -1.7720522e-01	
   5.8245000e+01	  -3.4561982e-01	  -1.7658899e-01	
   5.8300000e+01	  -3.3546456e-01	  -1.7457903e-01	
   5.8355000e+01	  -3.2316725e-01	  -1.7109087e-01	
   5.8410000e+01	  -3.0878259e-01	  -1.6606998e-01	
   5.8465000e+01	  -2.9242473e-01	  -1.5949828e-01	
   5.8520000e+01	  -2.7426495e-01	  -1.5139693e-01	
   5.8575000e+01	  -2.5452020e-01	  -1.4182495e-01	
   5.8630000e+01	  -2.3343499e-01	  -1.3087399e-01	
   5.8685000e+01	  -2.1126045e-01	  -1.1866066e-01	
   5.8740000e+01	  -1.8823447e-01	  -1.0531805e-01	
   5.8795000e+01	  -1.6456686e-01	  -9.0988276e-02	
   5.8850000e+01	  -1.4043167e-01	  -7.5816697e-02	
   5.8905000e+01	  -1.1596691e-01	  -5.9947847e-02	
   5.8960000e+01	  -9.1279851e-02	  -4.3523779e-02	
   5.9015000e+01	  -6.6456634e-02	  -2.6685796e-02	
   5.9070000e+01	  -4.1573813e-02	  -9.5790008e-03	
   5.9125000e+01	  -1.6708115e-02	   7.6433957e-03	
   5.9180000e+01	   8.0596806e-03	   2.4819492e-02	
   5.9235000e+01	   3.2648746e-02	   4.1783535e-02	
   5.9290000e+01	   5.6988263e-02	   5.8375608e-02	
   5.9345000e+01	   8.1028582e-02	   7.4453672e-02	
   5.9400000e+01	   1.0474833e-01	   8.9904179e-02	
   5.9455000e+01	   1.2815498e-01	   1.0464808e-01	
   5.9510000e+01	   1.5127968e-01	   1.1864169e-01	
   5.9565000e+01	   1.7416855e-01	   1.3187390e-01	
   5.9620000e+01	   1.9687182e-01	   1.4436103e-01	
   5.9675000e+01	   2.1943145e-01	   1.5613970e-01	
   5.9730000e+01	   2.4186883e-01	   1.6725849e-01	
   5.9785000e+01	   2.6417535e-01	   1.7777028e-01	
   5.9840000e+01	   2.8630924e-01	   1.8772692e-01	
   5.9895000e+01	   3.0820064e-01	   1.9717699e-01	
   5.9950000e+01	   3.2976457e-01	   2.0616695e-01	
   6.0005000e+01	   3.5091893e-01	   2.1474492e-01	
   6.0060000e+01	   3.7160236e-01	   2.2296552e-01	
   6.0115000e+01	   3.9178693e-01	   2.3089318e-01	
   6.0170000e+01	   4.1148222e-01	   2.3860177e-01	
   6.0225000e+01	   4.3073084e-01	   2.4617056e-01	
   6.0280000e+01	   4.4959820e-01	   2.5367740e-01	
   6.0335000e+01	   4.6815964e-01	   2.6119046e-01	
   6.0390000e+01	   4.8648641e-01	   2.6875916e-01	
   6.0445000e+01	   5.0463107e-01	   2.7640568e-01	
   6.0500000e+01	   5.2261408e-01	   2.8411836e-01	
   6.0555000e+01	   5.4041450e-01	   2.9184873e-01	
   6.0610000e+01	   5.5796765e-01	   2.9951311e-01	
   6.0665000e+01	   5.7517204e-01	   3.0699970e-01	
   6.0720000e+01	   5.9190473e-01	   3.1418142e-01	
   6.0775000e+01	   6.0804129e-01	   3.2093169e-01	
   6.0830000e+01	   6.2347395e-01	   3.2713892e-01	
   6.0885000e+01	   6.3812410e-01	   3.3271661e-01	
   6.0940000e+01	   6.5194911e-01	   3.3760851e-01	
   6.0995000e+01	   6.6494473e-01	   3.4178999e-01	
   6.1050000e+01	   6.7714247e-01	   3.4526641e-01	
   6.1105000e+01	   6.8860106e-01	   3.4806859e-01	
   6.1160000e+01	   6.9939303e-01	   3.5024609e-01	
   6.1215000e+01	   7.0959017e-01	   3.5185913e-01	
   6.1270000e+01	   7.1925124e-01	   3.5297002e-01	
   6.1325000e+01	   7.2841481e-01	   3.5363581e-01	
   6.1380000e+01	   7.3709946e-01	   3.5390411e-01	
   6.1435000e+01	   7.4531232e-01	   3.5381346e-01	
   6.1490000e+01	   7.5306272e-01	   3.5339674e-01	
   6.1545000e+01	   7.6037508e-01	   3.5268548e-01	
   6.1600000e+01	   7.6729672e-01	   3.5171302e-01	
   6.1655000e+01	   7.7389982e-01	   3.5051523e-01	
   6.1710000e+01	   7.8027752e-01	   3.4912835e-01	
   6.1765000e+01	   7.8653513e-01	   3.4758480e-01	
   6.1820000e+01	   7.9277794e-01	   3.4590887e-01	
   6.1875000e+01	   7.9909872e-01	   3.4411363e-01	
   6.1930000e+01	   8.0556729e-01	   3.4219903e-01	
   6.1985000e+01	   8.1222435e-01	   3.4015207e-01	
   6.2040000e+01	   8.1908078e-01	   3.3795000e-01	
   6.2095000e+01	   8.2612284e-01	   3.3556696e-01	
   6.2150000e+01	   8.3332138e-01	   3.3298263e-01	
   6.2205000e+01	   8.4064178e-01	   3.3019017e-01	
   6.2260000e+01	   8.4805153e-01	   3.2720155e-01	
   6.2315000e+01	   8.5552389e-01	   3.2404953e-01	
   6.2370000e+01	   8.6303756e-01	   3.2078605e-01	
   6.2425000e+01	   8.7057289e-01	   3.1747689e-01	
   6.2480000e+01	   8.7810575e-01	   3.1419319e-01	
   6.2535000e+01	   8.8560078e-01	   3.1100206e-01	
   6.2590000e+01	   8.9300672e-01	   3.0795925e-01	
   6.2645000e+01	   9.0025689e-01	   3.0510619e-01	
   6.2700000e+01	   9.0727682e-01	   3.0247210e-01	
   6.2755000e+01	   9.1399858e-01	   3.0008005e-01	
   6.2810000e+01	   9.2037806e-01	   2.9795421e-01	
   6.2865000e+01	   9.2640907e-01	   2.9612525e-01	
   6.2920000e+01	   9.3213047e-01	   2.9463255e-01	
   6.2975000e+01	   9.3762550e-01	   2.9352341e-01	
   6.3030000e+01	   9.4301414e-01	   2.9284961e-01	
   6.3085000e+01	   9.4843910e-01	   2.9266109e-01	
   6.3140000e+01	   9.5404708e-01	   2.9299764e-01	
   6.3195000e+01	   9.5996819e-01	   2.9388020e-01	
   6.3250000e+01	   9.6629747e-01	   2.9530344e-01	
   6.3305000e+01	   9.7308123e-01	   2.9723080e-01	
   6.3360000e+01	   9.8031019e-01	   2.9959307e-01	
   6.3415000e+01	   9.8792038e-01	   3.0229163e-01	
   6.3470000e+01	   9.9580217e-01	   3.0520651e-01	
   6.3525000e+01	   1.0038149e+00	   3.0820669e-01	
   6.3580000e+01	   1.0118031e+00	   3.1115954e-01	
   6.3635000e+01	   1.0196098e+00	   3.1393806e-01	
   6.3690000e+01	   1.0270883e+00	   3.1642595e-01	
   6.3745000e+01	   1.0341081e+00	   3.1852055e-01	
   6.3800000e+01	   1.0405563e+00	   3.2013318e-01	
   6.3855000e+01	   1.0463347e+00	   3.2118740e-01	
   6.3910000e+01	   1.0513537e+00	   3.2161570e-01	
   6.3965000e+01	   1.0555256e+00	   3.2135497e-01	
   6.4020000e+01	   1.0587577e+00	   3.2034214e-01	
   6.4075000e+01	   1.0609479e+00	   3.1851205e-01	
   6.4130000e+01	   1.0619853e+00	   3.1579939e-01	
   6.4185000e+01	   1.0617578e+00	   3.1214415e-01	
   6.4240000e+01	   1.0601648e+00	   3.0749910e-01	
   6.4295000e+01	   1.0571312e+00	   3.0183764e-01	
   6.4350000e+01	   1.0526198e+00	   2.9516057e-01	
   6.4405000e+01	   1.0466382e+00	   2.8750010e-01	
   6.4460000e+01	   1.0392385e+00	   2.7891942e-01	
   6.4515000e+01	   1.0305087e+00	   2.6950777e-01	
   6.4570000e+01	   1.0205586e+00	   2.5937144e-01	
   6.4625000e+01	   1.0095017e+00	   2.4862239e-01	
   6.4680000e+01	   9.9743650e-01	   2.3736611e-01	
   6.4735000e+01	   9.8443176e-01	   2.2569168e-01	
   6.4790000e+01	   9.7052016e-01	   2.1366670e-01	
   6.4845000e+01	   9.5570308e-01	   2.0133846e-01	
   6.4900000e+01	   9.3996442e-01	   1.8874029e-01	
   6.4955000e+01	   9.2328869e-01	   1.7590083e-01	
   6.5010000e+01	   9.0567812e-01	   1.6285360e-01	
   6.5065000e+01	   8.8716443e-01	   1.4964399e-01	
   6.5120000e+01	   8.6781400e-01	   1.3633248e-01	
   6.5175000e+01	   8.4772720e-01	   1.2299431e-01	
   6.5230000e+01	   8.2703384e-01	   1.0971680e-01	
   6.5285000e+01	   8.0588513e-01	   9.6594998e-02	
   6.5340000e+01	   7.8444270e-01	   8.3725866e-02	
   6.5395000e+01	   7.6286627e-01	   7.1201465e-02	
   6.5450000e+01	   7.4130311e-01	   5.9102627e-02	
   6.5505000e+01	   7.1988316e-01	   4.7495500e-02	
   6.5560000e+01	   6.9872191e-01	   3.6432687e-02	
   6.5615000e+01	   6.7792882e-01	   2.5958402e-02	
   6.5670000e+01	   6.5761606e-01	   1.6114929e-02	
   6.5725000e+01	   6.3790304e-01	   6.9474029e-03	
   6.5780000e+01	   6.1891555e-01	  -1.4949477e-03	
   6.5835000e+01	   6.0078063e-01	  -9.1614915e-03	
   6.5890000e+01	   5.8361822e-01	  -1.6006014e-02	
   6.5945000e+01	   5.6753093e-01	  -2.1993890e-02	
   6.6000000e+01	   5.5259437e-01	  -2.7108382e-02	
   6.6055000e+01	   5.3885136e-01	  -3.1354275e-02	
   6.6110000e+01	   5.2631319e-01	  -3.4757703e-02	
   6.6165000e+01	   5.1496823e-01	  -3.7361863e-02	
   6.6220000e+01	   5.0479482e-01	  -3.9219727e-02	
   6.6275000e+01	   4.9577355e-01	  -4.0386159e-02	
   6.6330000e+01	   4.8789629e-01	  -4.0911254e-02	
   6.6385000e+01	   4.8117058e-01	  -4.0835801e-02	
   6.6440000e+01	   4.7561829e-01	  -4.0189823e-02	
   6.6495000e+01	   4.7126859e-01	  -3.8994751e-02	
   6.6550000e+01	   4.6814784e-01	  -3.7268169e-02	
   6.6605000e+01	   4.6627009e-01	  -3.5029277e-02	
   6.6660000e+01	   4.6563003e-01	  -3.2303783e-02	
   6.6715000e+01	   4.6619967e-01	  -2.9127045e-02	
   6.6770000e+01	   4.6793054e-01	  -2.5543712e-02	
   6.6825000e+01	   4.7076175e-01	  -2.1602966e-02	
   6.6880000e+01	   4.7463085e-01	  -1.7350930e-02	
   6.6935000e+01	   4.7948261e-01	  -1.2823417e-02	
   6.6990000e+01	   4.8527279e-01	  -8.0414943e-03	
   6.7045000e+01	   4.9196727e-01	  -3.0105062e-03	
   6.7100000e+01	   4.9953807e-01	   2.2777875e-03	
   6.7155000e+01	   5.0795674e-01	   7.8403948e-03	
   6.7210000e+01	   5.1718510e-01	   1.3696425e-02	
   6.7265000e+01	   5.2716512e-01	   1.9859897e-02	
   6.7320000e+01	   5.3781153e-01	   2.6333422e-02	
   6.7375000e+01	   5.4901027e-01	   3.3104261e-02	
   6.7430000e+01	   5.6062420e-01	   4.0144478e-02	
   6.7485000e+01	   5.7250514e-01	   4.7415878e-02	
   6.7540000e+01	   5.8450813e-01	   5.4877870e-02	
   6.7595000e+01	   5.9650335e-01	   6.2494957e-02	
   6.7650000e+01	   6.0838279e-01	   7.0241269e-02	
   6.7705000e+01	   6.2006094e-01	   7.8101360e-02	
   6.7760000e+01	   6.3147023e-01	   8.6067473e-02	
   6.7815000e+01	   6.4255269e-01	   9.4133785e-02	
   6.7870000e+01	   6.5325057e-01	   1.0228894e-01	
   6.7925000e+01	   6.6349844e-01	   1.1050914e-01	
   6.7980000e+01	   6.7321899e-01	   1.1875376e-01	
   6.8035000e+01	   6.8232392e-01	   1.2696442e-01	
   6.8090000e+01	   6.9072047e-01	   1.3506774e-01	
   6.8145000e+01	   6.9832289e-01	   1.4298203e-01	
   6.8200000e+01	   7.0506608e-01	   1.5062642e-01	
   6.8255000e+01	   7.1091723e-01	   1.5792971e-01	
   6.8310000e+01	   7.1588177e-01	   1.6483666e-01	
   6.8365000e+01	   7.2000314e-01	   1.7131116e-01	
   6.8420000e+01	   7.2335694e-01	   1.7733660e-01	
   6.8475000e+01	   7.2604044e-01	   1.8291332e-01	
   6.8530000e+01	   7.2815892e-01	   1.8805372e-01	
   6.8585000e+01	   7.2981137e-01	   1.9277702e-01	
   6.8640000e+01	   7.3107900e-01	   1.9710557e-01	
   6.8695000e+01	   7.3201960e-01	   2.0106304e-01	
   6.8750000e+01	   7.3266929e-01	   2.0467451e-01	
   6.8805000e+01	   7.3305139e-01	   2.0796843e-01	
   6.8860000e+01	   7.3318881e-01	   2.1097980e-01	
   6.8915000e+01	   7.3311570e-01	   2.1375326e-01	
   6.8970000e+01	   7.3288497e-01	   2.1634467e-01	
   6.9025000e+01	   7.3256960e-01	   2.1882079e-01	
   6.9080000e+01	   7.3225803e-01	   2.2125651e-01	
   6.9135000e+01	   7.3204495e-01	   2.2372961e-01	
   6.9190000e+01	   7.3201990e-01	   2.2631352e-01	
   6.9245000e+01	   7.3225557e-01	   2.2906938e-01	
   6.9300000e+01	   7.3279829e-01	   2.3203907e-01	
   6.9355000e+01	   7.3366297e-01	   2.3524092e-01	
   6.9410000e+01	   7.3483399e-01	   2.3866937e-01	
   6.9465000e+01	   7.3627207e-01	   2.4229898e-01	
   6.9520000e+01	   7.3792553e-01	   2.4609152e-01	
   6.9575000e+01	   7.3974237e-01	   2.5000347e-01	
   6.9630000e+01	   7.4167848e-01	   2.5399085e-01	
   6.9685000e+01	   7.4369938e-01	   2.5801110e-01	
   6.9740000e+01	   7.4577638e-01	   2.6202301e-01	
   6.9795000e+01	   7.4787937e-01	   2.6598661e-01	
   6.9850000e+01	   7.4996894e-01	   2.6986256e-01	
   6.9905000e+01	   7.5199013e-01	   2.7361097e-01	
   6.9960000e+01	   7.5387005e-01	   2.7719024e-01	
   7.0015000e+01	   7.5552116e-01	   2.8055741e-01	
   7.0070000e+01	   7.5685035e-01	   2.8367104e-01	
   7.0125000e+01	   7.5777244e-01	   2.8649605e-01	
   7.0180000e+01	   7.5822481e-01	   2.8900965e-01	
   7.0235000e+01	   7.5817899e-01	   2.9120633e-01	
   7.0290000e+01	   7.5764564e-01	   2.9310020e-01	
   7.0345000e+01	   7.5667162e-01	   2.9472402e-01	
   7.0400000e+01	   7.5533062e-01	   2.9612501e-01	
   7.0455000e+01	   7.5371006e-01	   2.9735816e-01	
   7.0510000e+01	   7.5189713e-01	   2.9847821e-01	
   7.0565000e+01	   7.4996571e-01	   2.9953166e-01	
   7.0620000e+01	   7.4796659e-01	   3.0055123e-01	
   7.0675000e+01	   7.4592388e-01	   3.0155422e-01	
   7.0730000e+01	   7.4384018e-01	   3.0254536e-01	
   7.0785000e+01	   7.4170863e-01	   3.0352274e-01	
   7.0840000e+01	   7.3952723e-01	   3.0448496e-01	
   7.0895000e+01	   7.3731030e-01	   3.0543742e-01	
   7.0950000e+01	   7.3509452e-01	   3.0639606e-01	
   7.1005000e+01	   7.3293829e-01	   3.0738792e-01	
   7.1060000e+01	   7.3091483e-01	   3.0844812e-01	
   7.1115000e+01	   7.2910021e-01	   3.0961374e-01	
   7.1170000e+01	   7.2755816e-01	   3.1091588e-01	
   7.1225000e+01	   7.2632509e-01	   3.1237143e-01	
   7.1280000e+01	   7.2539886e-01	   3.1397688e-01	
   7.1335000e+01	   7.2473412e-01	   3.1570514e-01	
   7.1390000e+01	   7.2424447e-01	   3.1750613e-01	
   7.1445000e+01	   7.2381103e-01	   3.1931075e-01	
   7.1500000e+01	   7.2329524e-01	   3.2103771e-01	
   7.1555000e+01	   7.2255331e-01	   3.2260162e-01	
   7.1610000e+01	   7.2144927e-01	   3.2392072e-01	
   7.1665000e+01	   7.1986338e-01	   3.2492261e-01	
   7.1720000e+01	   7.1769502e-01	   3.2554707e-01	
   7.1775000e+01	   7.1486035e-01	   3.2574608e-01	
   7.1830000e+01	   7.1128558e-01	   3.2548110e-01	
   7.1885000e+01	   7.0689719e-01	   3.2471848e-01	
   7.1940000e+01	   7.0161184e-01	   3.2342406e-01	
   7.1995000e+01	   6.9532992e-01	   3.2155927e-01	
   7.2050000e+01	   6.8793565e-01	   3.1908023e-01	
   7.2105000e+01	   6.7930414e-01	   3.1594091e-01	
   7.2160000e+01	   6.6931470e-01	   3.1210012e-01	
   7.2215000e+01	   6.5786903e-01	   3.0753102e-01	
   7.2270000e+01	   6.4491019e-01	   3.0223028e-01	
   7.2325000e+01	   6.3043724e-01	   2.9622404e-01	
   7.2380000e+01	   6.1451176e-01	   2.8956981e-01	
   7.2435000e+01	   5.9725609e-01	   2.8235551e-01	
   7.2490000e+01	   5.7884448e-01	   2.7469644e-01	
   7.2545000e+01	   5.5948825e-01	   2.6672986e-01	
   7.2600000e+01	   5.3941708e-01	   2.5860693e-01	
   7.2655000e+01	   5.1885908e-01	   2.5048269e-01	
   7.2710000e+01	   4.9802266e-01	   2.4250525e-01	
   7.2765000e+01	   4.7708246e-01	   2.3480563e-01	
   7.2820000e+01	   4.5617200e-01	   2.2749021e-01	
   7.2875000e+01	   4.3538523e-01	   2.2063775e-01	
   7.2930000e+01	   4.1478549e-01	   2.1430164e-01	
   7.2985000e+01	   3.9441735e-01	   2.0851581e-01	
   7.3040000e+01	   3.7431701e-01	   2.0330143e-01	
   7.3095000e+01	   3.5451921e-01	   1.9867199e-01	
   7.3150000e+01	   3.3506089e-01	   1.9463592e-01	
   7.3205000e+01	   3.1598175e-01	   1.9119705e-01	
   7.3260000e+01	   2.9732166e-01	   1.8835324e-01	
   7.3315000e+01	   2.7911471e-01	   1.8609359e-01	
   7.3370000e+01	   2.6138185e-01	   1.8439540e-01	
   7.3425000e+01	   2.4412446e-01	   1.8322190e-01	
   7.3480000e+01	   2.2732216e-01	   1.8252198e-01	
   7.3535000e+01	   2.1093722e-01	   1.8223294e-01	
   7.3590000e+01	   1.9492540e-01	   1.8228626e-01	
   7.3645000e+01	   1.7924948e-01	   1.8261448e-01	
   7.3700000e+01	   1.6389002e-01	   1.8315654e-01	
   7.3755000e+01	   1.4885008e-01	   1.8386034e-01	
   7.3810000e+01	   1.3415371e-01	   1.8468276e-01	
   7.3865000e+01	   1.1983958e-01	   1.8558856e-01	
   7.3920000e+01	   1.0595075e-01	   1.8654803e-01	
   7.3975000e+01	   9.2521741e-02	   1.8753323e-01	
   7.4030000e+01	   7.9565497e-02	   1.8851278e-01	
   7.4085000e+01	   6.7063812e-02	   1.8944681e-01	
   7.4140000e+01	   5.4964638e-02	   1.9028430e-01	
   7.4195000e+01	   4.3188128e-02	   1.9096498e-01	
   7.4250000e+01	   3.1640968e-02	   1.9142658e-01	
   7.4305000e+01	   2.0235185e-02	   1.9161507e-01	
   7.4360000e+01	   8.9052390e-03	   1.9149433e-01	
   7.4415000e+01	  -2.3819200e-03	   1.9105194e-01	
   7.4470000e+01	  -1.3625774e-02	   1.9030059e-01	
   7.4525000e+01	  -2.4799037e-02	   1.8927516e-01	
   7.4580000e+01	  -3.5859760e-02	   1.8802582e-01	
   7.4635000e+01	  -4.6765925e-02	   1.8660810e-01	
   7.4690000e+01	  -5.7490110e-02	   1.8507170e-01	
   7.4745000e+01	  -6.8031798e-02	   1.8345048e-01	
   7.4800000e+01	  -7.8424312e-02	   1.8175526e-01	
   7.4855000e+01	  -8.8733699e-02	   1.7997096e-01	
   7.4910000e+01	  -9.9048933e-02	   1.7805949e-01	
   7.4965000e+01	  -1.0946564e-01	   1.7596870e-01	
   7.5020000e+01	  -1.2006789e-01	   1.7364549e-01	
   7.5075000e+01	  -1.3091329e-01	   1.7104902e-01	
   7.5130000e+01	  -1.4202450e-01	   1.6816091e-01	
   7.5185000e+01	  -1.5338734e-01	   1.6499057e-01	
   7.5240000e+01	  -1.6495462e-01	   1.6157524e-01	
   7.5295000e+01	  -1.7665561e-01	   1.5797486e-01	
   7.5350000e+01	  -1.8841001e-01	   1.5426290e-01	
   7.5405000e+01	  -2.0014417e-01	   1.5051508e-01	
   7.5460000e+01	  -2.1180609e-01	   1.4679783e-01	
   7.5515000e+01	  -2.2337654e-01	   1.4315870e-01	
   7.5570000e+01	  -2.3487324e-01	   1.3962107e-01	
   7.5625000e+01	  -2.4634639e-01	   1.3618472e-01	
   7.5680000e+01	  -2.5786634e-01	   1.3283174e-01	
   7.5735000e+01	  -2.6950672e-01	   1.2953532e-01	
   7.5790000e+01	  -2.8132707e-01	   1.2626861e-01	
   7.5845000e+01	  -2.9335837e-01	   1.2301220e-01	
   7.5900000e+01	  -3.0559388e-01	   1.1975888e-01	
   7.5955000e+01	  -3.1798786e-01	   1.1651471e-01	
   7.6010000e+01	  -3.3046287e-01	   1.1329577e-01	
   7.6065000e+01	  -3.4292376e-01	   1.1012182e-01	
   7.6120000e+01	  -3.5527377e-01	   1.0700848e-01	
   7.6175000e+01	  -3.6742788e-01	   1.0396020e-01	
   7.6230000e+01	  -3.7932018e-01	   1.0096615e-01	
   7.6285000e+01	  -3.9090393e-01	   9.8001183e-02	
   7.6340000e+01	  -4.0214523e-01	   9.5032124e-02	
   7.6395000e+01	  -4.1301324e-01	   9.2027573e-02	
   7.6450000e+01	  -4.2347155e-01	   8.8967551e-02	
   7.6505000e+01	  -4.3347369e-01	   8.5850375e-02	
   7.6560000e+01	  -4.4296351e-01	   8.2695828e-02	
   7.6615000e+01	  -4.5187982e-01	   7.9544787e-02	
   7.6670000e+01	  -4.6016453e-01	   7.6455595e-02	
   7.6725000e+01	  -4.6777260e-01	   7.3497647e-02	
   7.6780000e+01	  -4.7468113e-01	   7.0743367e-02	
   7.6835000e+01	  -4.8089501e-01	   6.8260166e-02	
   7.6890000e+01	  -4.8644666e-01	   6.6104359e-02	
   7.6945000e+01	  -4.9138811e-01	   6.4319056e-02	
   7.7000000e+01	  -4.9577700e-01	   6.2936706e-02	
   7.7055000e+01	  -4.9966208e-01	   6.1984492e-02	
   7.7110000e+01	  -5.0307395e-01	   6.1489462e-02	
   7.7165000e+01	  -5.0602274e-01	   6.1481121e-02	
   7.7220000e+01	  -5.0850031e-01	   6.1990994e-02	
   7.7275000e+01	  -5.1048432e-01	   6.3049624e-02	
   7.7330000e+01	  -5.1194423e-01	   6.4681309e-02	
   7.7385000e+01	  -5.1284965e-01	   6.6897068e-02	
   7.7440000e+01	  -5.1317959e-01	   6.9687355e-02	
   7.7495000e+01	  -5.1293031e-01	   7.3016454e-02	
   7.7550000e+01	  -5.1211963e-01	   7.6820214e-02	
   7.7605000e+01	  -5.1078551e-01	   8.1008603e-02	
   7.7660000e+01	  -5.0897773e-01	   8.5473687e-02	
   7.7715000e+01	  -5.0674410e-01	   9.0100951e-02	
   7.7770000e+01	  -5.0411684e-01	   9.4780141e-02	
   7.7825000e+01	  -5.0110378e-01	   9.9413110e-02	
   7.7880000e+01	  -4.9768724e-01	   1.0391824e-01	
   7.7935000e+01	  -4.9383032e-01	   1.0823159e-01	
   7.7990000e+01	  -4.8948849e-01	   1.1230500e-01	
   7.8045000e+01	  -4.8462382e-01	   1.1610164e-01	
   7.8100000e+01	  -4.7921840e-01	   1.1959064e-01	
   7.8155000e+01	  -4.7328405e-01	   1.2274234e-01	
   7.8210000e+01	  -4.6686604e-01	   1.2552611e-01	
   7.8265000e+01	  -4.6003926e-01	   1.2791247e-01	
   7.8320000e+01	  -4.5289732e-01	   1.2987901e-01	
   7.8375000e+01	  -4.4553749e-01	   1.3141799e-01	
   7.8430000e+01	  -4.3804617e-01	   1.3254238e-01	
   7.8485000e+01	  -4.3048969e-01	   1.3328833e-01	
   7.8540000e+01	  -4.2291248e-01	   1.3371344e-01	
   7.8595000e+01	  -4.1534172e-01	   1.3389158e-01	
   7.8650000e+01	  -4.0779573e-01	   1.3390455e-01	
   7.8705000e+01	  -4.0029430e-01	   1.3383137e-01	
   7.8760000e+01	  -3.9286975e-01	   1.3373668e-01	
   7.8815000e+01	  -3.8557719e-01	   1.3366110e-01	
   7.8870000e+01	  -3.7850148e-01	   1.3361538e-01	
   7.8925000e+01	  -3.7175784e-01	   1.3357977e-01	
   7.8980000e+01	  -3.6548356e-01	   1.3350922e-01	
   7.9035000e+01	  -3.5982108e-01	   1.3334413e-01	
   7.9090000e+01	  -3.5489754e-01	   1.3302370e-01	
   7.9145000e+01	  -3.5080708e-01	   1.3249768e-01	
   7.9200000e+01	  -3.4759975e-01	   1.3173415e-01	
   7.9255000e+01	  -3.4527761e-01	   1.3072307e-01	
   7.9310000e+01	  -3.4379771e-01	   1.2947571e-01	
   7.9365000e+01	  -3.4308151e-01	   1.2801976e-01	
   7.9420000e+01	  -3.4302878e-01	   1.2639095e-01	
   7.9475000e+01	  -3.4353337e-01	   1.2462272e-01	
   7.9530000e+01	  -3.4449798e-01	   1.2273661e-01	
   7.9585000e+01	  -3.4584502e-01	   1.2073547e-01	
   7.9640000e+01	  -3.4752072e-01	   1.1860162e-01	
   7.9695000e+01	  -3.4949139e-01	   1.1630073e-01	
   7.9750000e+01	  -3.5173253e-01	   1.1379086e-01	
   7.9805000e+01	  -3.5421484e-01	   1.1103377e-01	
   7.9860000e+01	  -3.5689175e-01	   1.0800504e-01	
   7.9915000e+01	  -3.5969301e-01	   1.0470055e-01	
   7.9970000e+01	  -3.6252559e-01	   1.0113858e-01	
   8.0025000e+01	  -3.6528069e-01	   9.7358017e-02	
   8.0080000e+01	  -3.6784463e-01	   9.3413652e-02	
   8.0135000e+01	  -3.7011119e-01	   8.9370003e-02	
   8.0190000e+01	  -3.7199291e-01	   8.5294684e-02	
   8.0245000e+01	  -3.7342847e-01	   8.1252307e-02	
   8.0300000e+01	  -3.7438382e-01	   7.7300245e-02	
   8.0355000e+01	  -3.7484671e-01	   7.3487435e-02	
   8.0410000e+01	  -3.7481816e-01	   6.9855803e-02	
   8.0465000e+01	  -3.7430535e-01	   6.6442321e-02	
   8.0520000e+01	  -3.7331840e-01	   6.3279892e-02	
   8.0575000e+01	  -3.7186978e-01	   6.0396819e-02	
   8.0630000e+01	  -3.6997477e-01	   5.7815296e-02	
   8.0685000e+01	  -3.6765259e-01	   5.5548896e-02	
   8.0740000e+01	  -3.6492887e-01	   5.3598990e-02	
   8.0795000e+01	  -3.6183885e-01	   5.1951108e-02	
   8.0850000e+01	  -3.5843003e-01	   5.0572963e-02	
   8.0905000e+01	  -3.5476202e-01	   4.9415452e-02	
   8.0960000e+01	  -3.5090175e-01	   4.8417235e-02	
   8.1015000e+01	  -3.4691410e-01	   4.7512750e-02	
   8.1070000e+01	  -3.4285065e-01	   4.6642073e-02	
   8.1125000e+01	  -3.3874101e-01	   4.5759535e-02	
   8.1180000e+01	  -3.3458963e-01	   4.4838452e-02	
   8.1235000e+01	  -3.3037817e-01	   4.3871631e-02	
   8.1290000e+01	  -3.2607172e-01	   4.2868855e-02	
   8.1345000e+01	  -3.2162736e-01	   4.1852077e-02	
   8.1400000e+01	  -3.1700463e-01	   4.0848321e-02	
   8.1455000e+01	  -3.1217642e-01	   3.9881148e-02	
   8.1510000e+01	  -3.0713696e-01	   3.8962870e-02	
   8.1565000e+01	  -3.0190318e-01	   3.8089898e-02	
   8.1620000e+01	  -2.9650878e-01	   3.7242763e-02	
   8.1675000e+01	  -2.9099298e-01	   3.6391144e-02	
   8.1730000e+01	  -2.8538852e-01	   3.5502377e-02	
   8.1785000e+01	  -2.7971362e-01	   3.4550451e-02	
   8.1840000e+01	  -2.7396968e-01	   3.3522605e-02	
   8.1895000e+01	  -2.6814396e-01	   3.2422235e-02	
   8.1950000e+01	  -2.6221572e-01	   3.1268294e-02	
   8.2005000e+01	  -2.5616518e-01	   3.0091477e-02	
   8.2060000e+01	  -2.4998483e-01	   2.8927066e-02	
   8.2115000e+01	  -2.4369148e-01	   2.7805261e-02	
   8.2170000e+01	  -2.3733553e-01	   2.6741712e-02	
   8.2225000e+01	  -2.3100278e-01	   2.5731283e-02	
   8.2280000e+01	  -2.2480638e-01	   2.4746668e-02	
   8.2335000e+01	  -2.1887045e-01	   2.3742276e-02	
   8.2390000e+01	  -2.1330999e-01	   2.2662635e-02	
   8.2445000e+01	  -2.0821253e-01	   2.1452555e-02	
   8.2500000e+01	  -2.0362556e-01	   2.0065340e-02	
   8.2555000e+01	  -1.9955190e-01	   1.8466972e-02	
   8.2610000e+01	  -1.9595249e-01	   1.6636648e-02	
   8.2665000e+01	  -1.9275497e-01	   1.4564844e-02	
   8.2720000e+01	  -1.8986602e-01	   1.2249497e-02	
   8.2775000e+01	  -1.8718588e-01	   9.6906730e-03	
   8.2830000e+01	  -1.8462374e-01	   6.8846365e-03	
   8.2885000e+01	  -1.8211230e-01	   3.8185896e-03	
   8.2940000e+01	  -1.7961828e-01	   4.6751996e-04	
   8.2995000e+01	  -1.7714493e-01	  -3.2052092e-03	
   8.3050000e+01	  -1.7472468e-01	  -7.2423936e-03	
   8.3105000e+01	  -1.7240474e-01	  -1.1683603e-02	
   8.3160000e+01	  -1.7023173e-01	  -1.6555051e-02	
   8.3215000e+01	  -1.6824036e-01	  -2.1861988e-02	
   8.3270000e+01	  -1.6644797e-01	  -2.7584957e-02	
   8.3325000e+01	  -1.6485448e-01	  -3.3679565e-02	
   8.3380000e+01	  -1.6344705e-01	  -4.0079373e-02	
   8.3435000e+01	  -1.6220958e-01	  -4.6702108e-02	
   8.3490000e+01	  -1.6113573e-01	  -5.3458720e-02	
   8.3545000e+01	  -1.6024215e-01	  -6.0263017e-02	
   8.3600000e+01	  -1.5957775e-01	  -6.7039468e-02	
   8.3655000e+01	  -1.5922559e-01	  -7.3727991e-02	
   8.3710000e+01	  -1.5929577e-01	  -8.0284820e-02	
   8.3765000e+01	  -1.5990992e-01	  -8.6678882e-02	
   8.3820000e+01	  -1.6118142e-01	  -9.2885109e-02	
   8.3875000e+01	  -1.6319728e-01	  -9.8877823e-02	
   8.3930000e+01	  -1.6600577e-01	  -1.0462631e-01	
   8.3985000e+01	  -1.6961109e-01	  -1.1009288e-01	
   8.4040000e+01	  -1.7397497e-01	  -1.1523353e-01	
   8.4095000e+01	  -1.7902500e-01	  -1.2000179e-01	
   8.4150000e+01	  -1.8466722e-01	  -1.2435534e-01	
   8.4205000e+01	  -1.9079892e-01	  -1.2826265e-01	
   8.4260000e+01	  -1.9731801e-01	  -1.3170715e-01	
   8.4315000e+01	  -2.0412673e-01	  -1.3468772e-01	
   8.4370000e+01	  -2.1112967e-01	  -1.3721569e-01	
   8.4425000e+01	  -2.1822795e-01	  -1.3930952e-01	
   8.4480000e+01	  -2.2531288e-01	  -1.4098906e-01	
   8.4535000e+01	  -2.3226214e-01	  -1.4227109e-01	
   8.4590000e+01	  -2.3894007e-01	  -1.4316748e-01	
   8.4645000e+01	  -2.4520221e-01	  -1.4368556e-01	
   8.4700000e+01	  -2.5090334e-01	  -1.4383009e-01	
   8.4755000e+01	  -2.5590798e-01	  -1.4360643e-01	
   8.4810000e+01	  -2.6010169e-01	  -1.4302427e-01	
   8.4865000e+01	  -2.6340013e-01	  -1.4210058e-01	
   8.4920000e+01	  -2.6575272e-01	  -1.4086084e-01	
   8.4975000e+01	  -2.6713928e-01	  -1.3933750e-01	
   8.5030000e+01	  -2.6756066e-01	  -1.3756576e-01	
   8.5085000e+01	  -2.6702661e-01	  -1.3557761e-01	
   8.5140000e+01	  -2.6554480e-01	  -1.3339570e-01	
   8.5195000e+01	  -2.6311440e-01	  -1.3102915e-01	
   8.5250000e+01	  -2.5972630e-01	  -1.2847248e-01	
   8.5305000e+01	  -2.5536976e-01	  -1.2570792e-01	
   8.5360000e+01	  -2.5004302e-01	  -1.2271045e-01	
   8.5415000e+01	  -2.4376453e-01	  -1.1945454e-01	
   8.5470000e+01	  -2.3658252e-01	  -1.1592139e-01	
   8.5525000e+01	  -2.2858124e-01	  -1.1210554e-01	
   8.5580000e+01	  -2.1988136e-01	  -1.0801893e-01	
   8.5635000e+01	  -2.1063219e-01	  -1.0369106e-01	
   8.5690000e+01	  -2.0099676e-01	  -9.9165002e-02	
   8.5745000e+01	  -1.9113463e-01	  -9.4491265e-02	
   8.5800000e+01	  -1.8118770e-01	  -8.9721102e-02	
   8.5855000e+01	  -1.7127253e-01	  -8.4901350e-02	
   8.5910000e+01	  -1.6148078e-01	  -8.0072459e-02	
   8.5965000e+01	  -1.5188688e-01	  -7.5270507e-02	
   8.6020000e+01	  -1.4255998e-01	  -7.0532004e-02	
   8.6075000e+01	  -1.3357595e-01	  -6.5899379e-02	
   8.6130000e+01	  -1.2502698e-01	  -6.1425864e-02	
   8.6185000e+01	  -1.1702689e-01	  -5.7179020e-02	
   8.6240000e+01	  -1.0971066e-01	  -5.3241766e-02	
   8.6295000e+01	  -1.0322687e-01	  -4.9709649e-02	
   8.6350000e+01	  -9.7722909e-02	  -4.6683779e-02	
   8.6405000e+01	  -9.3325163e-02	  -4.4260212e-02	
   8.6460000e+01	  -9.0118527e-02	  -4.2518040e-02	
   8.6515000e+01	  -8.8130371e-02	  -4.1509343e-02	
   8.6570000e+01	  -8.7323077e-02	  -4.1253729e-02	
   8.6625000e+01	  -8.7597049e-02	  -4.1738635e-02	
   8.6680000e+01	  -8.8802957e-02	  -4.2924897e-02	
   8.6735000e+01	  -9.0759717e-02	  -4.4755808e-02	
   8.6790000e+01	  -9.3274521e-02	  -4.7167361e-02	
   8.6845000e+01	  -9.6162151e-02	  -5.0097514e-02	
   8.6900000e+01	  -9.9261021e-02	  -5.3492719e-02	
   8.6955000e+01	  -1.0244310e-01	  -5.7310417e-02	
   8.7010000e+01	  -1.0561556e-01	  -6.1517192e-02	
   8.7065000e+01	  -1.0871433e-01	  -6.6083622e-02	
   8.7120000e+01	  -1.1169274e-01	  -7.0977656e-02	
   8.7175000e+01	  -1.1451008e-01	  -7.6158408e-02	
   8.7230000e+01	  -1.1712350e-01	  -8.1572006e-02	
   8.7285000e+01	  -1.1948526e-01	  -8.7150801e-02	
   8.7340000e+01	  -1.2154494e-01	  -9.2816369e-02	
   8.7395000e+01	  -1.2325578e-01	  -9.8485491e-02	
   8.7450000e+01	  -1.2458320e-01	  -1.0407761e-01	
   8.7505000e+01	  -1.2551333e-01	  -1.0952244e-01	
   8.7560000e+01	  -1.2605931e-01	  -1.1476629e-01	
   8.7615000e+01	  -1.2626293e-01	  -1.1977555e-01	
   8.7670000e+01	  -1.2619006e-01	  -1.2453615e-01	
   8.7725000e+01	  -1.2592049e-01	  -1.2904938e-01	
   8.7780000e+01	  -1.2553575e-01	  -1.3332605e-01	
   8.7835000e+01	  -1.2510847e-01	  -1.3738083e-01	
   8.7890000e+01	  -1.2469563e-01	  -1.4122778e-01	
   8.7945000e+01	  -1.2433658e-01	  -1.4487770e-01	
   8.8000000e+01	  -1.2405547e-01	  -1.4833736e-01	
   8.8055000e+01	  -1.2386648e-01	  -1.5161042e-01	
   8.8110000e+01	  -1.2377960e-01	  -1.5469914e-01	
   8.8165000e+01	  -1.2380463e-01	  -1.5760633e-01	
   8.8220000e+01	  -1.2395102e-01	  -1.6033663e-01	
   8.8275000e+01	  -1.2422214e-01	  -1.6289578e-01	
   8.8330000e+01	  -1.2460513e-01	  -1.6528706e-01	
   8.8385000e+01	  -1.2506065e-01	  -1.6750627e-01	
   8.8440000e+01	  -1.2551780e-01	  -1.6953751e-01	
   8.8495000e+01	  -1.2587649e-01	  -1.7135179e-01	
   8.8550000e+01	  -1.2601631e-01	  -1.7290910e-01	
   8.8605000e+01	  -1.2580847e-01	  -1.7416374e-01	
   8.8660000e+01	  -1.2512878e-01	  -1.7507184e-01	
   8.8715000e+01	  -1.2386965e-01	  -1.7559903e-01	
   8.8770000e+01	  -1.2195002e-01	  -1.7572686e-01	
   8.8825000e+01	  -1.1932187e-01	  -1.7545684e-01	
   8.8880000e+01	  -1.1597200e-01	  -1.7481139e-01	
   8.8935000e+01	  -1.1191796e-01	  -1.7383070e-01	
   8.8990000e+01	  -1.0719870e-01	  -1.7256576e-01	
   8.9045000e+01	  -1.0186270e-01	  -1.7106990e-01	
   8.9100000e+01	  -9.5958019e-02	  -1.6939154e-01	
   8.9155000e+01	  -8.9526848e-02	  -1.6756992e-01	
   8.9210000e+01	  -8.2605883e-02	  -1.6563376e-01	
   8.9265000e+01	  -7.5232696e-02	  -1.6360277e-01	
   8.9320000e+01	  -6.7456684e-02	  -1.6149173e-01	
   8.9375000e+01	  -5.9351042e-02	  -1.5931605e-01	
   8.9430000e+01	  -5.1021158e-02	  -1.5709695e-01	
   8.9485000e+01	  -4.2606550e-02	  -1.5486456e-01	
   8.9540000e+01	  -3.4275628e-02	  -1.5265821e-01	
   8.9595000e+01	  -2.6213030e-02	  -1.5052364e-01	
   8.9650000e+01	  -1.8600501e-02	  -1.4850719e-01	
   8.9705000e+01	  -1.1595850e-02	  -1.4664829e-01	
   8.9760000e+01	  -5.3168131e-03	  -1.4497339e-01	
   8.9815000e+01	   1.6576688e-04	  -1.4349337e-01	
   8.9870000e+01	   4.8255655e-03	  -1.4220462e-01	
   8.9925000e+01	   8.6718437e-03	  -1.4109306e-01	
   8.9980000e+01	   1.1736339e-02	  -1.4014102e-01	
   9.0035000e+01	   1.4057682e-02	  -1.3933566e-01	
   9.0090000e+01	   1.5665628e-02	  -1.3867741e-01	
   9.0145000e+01	   1.6568229e-02	  -1.3818662e-01	
   9.0200000e+01	   1.6744723e-02	  -1.3790742e-01	
   9.0255000e+01	   1.6146267e-02	  -1.3790748e-01	
   9.0310000e+01	   1.4705620e-02	  -1.3827244e-01	
   9.0365000e+01	   1.2353935e-02	  -1.3909556e-01	
   9.0420000e+01	   9.0390177e-03	  -1.4046518e-01	
   9.0475000e+01	   4.7388219e-03	  -1.4245379e-01	
   9.0530000e+01	  -5.3271073e-04	  -1.4511098e-01	
   9.0585000e+01	  -6.7268423e-03	  -1.4846021e-01	
   9.0640000e+01	  -1.3766607e-02	  -1.5249924e-01	
   9.0695000e+01	  -2.1557581e-02	  -1.5720377e-01	
   9.0750000e+01	  -3.0001535e-02	  -1.6253364e-01	
   9.0805000e+01	  -3.9010905e-02	  -1.6844025e-01	
   9.0860000e+01	  -4.8521635e-02	  -1.7487410e-01	
   9.0915000e+01	  -5.8501805e-02	  -1.8179119e-01	
   9.0970000e+01	  -6.8953345e-02	  -1.8915634e-01	
   9.1025000e+01	  -7.9905821e-02	  -1.9694215e-01	
   9.1080000e+01	  -9.1405045e-02	  -2.0512482e-01	
   9.1135000e+01	  -1.0350200e-01	  -2.1368008e-01	
   9.1190000e+01	  -1.1624593e-01	  -2.2258113e-01	
   9.1245000e+01	  -1.2968176e-01	  -2.3179837e-01	
   9.1300000e+01	  -1.4385001e-01	  -2.4130036e-01	
   9.1355000e+01	  -1.5878904e-01	  -2.5105583e-01	
   9.1410000e+01	  -1.7453859e-01	  -2.6103649e-01	
   9.1465000e+01	  -1.9114324e-01	  -2.7121949e-01	
   9.1520000e+01	  -2.0865363e-01	  -2.8158856e-01	
   9.1575000e+01	  -2.2712486e-01	  -2.9213330e-01	
   9.1630000e+01	  -2.4661096e-01	  -3.0284624e-01	
   9.1685000e+01	  -2.6715476e-01	  -3.1371714e-01	
   9.1740000e+01	  -2.8877454e-01	  -3.2472618e-01	
   9.1795000e+01	  -3.1145141e-01	  -3.3583866e-01	
   9.1850000e+01	  -3.3512126e-01	  -3.4700335e-01	
   9.1905000e+01	  -3.5967255e-01	  -3.5815389e-01	
   9.1960000e+01	  -3.8495007e-01	  -3.6921274e-01	
   9.2015000e+01	  -4.1076390e-01	  -3.8009683e-01	
   9.2070000e+01	  -4.3690259e-01	  -3.9072409e-01	
   9.2125000e+01	  -4.6314744e-01	  -4.0101918e-01	
   9.2180000e+01	  -4.8928523e-01	  -4.1091771e-01	
   9.2235000e+01	  -5.1511680e-01	  -4.2036850e-01	
   9.2290000e+01	  -5.4046041e-01	  -4.2933405e-01	
   9.2345000e+01	  -5.6514971e-01	  -4.3778828e-01	
   9.2400000e+01	  -5.8902862e-01	  -4.4571167e-01	
   9.2455000e+01	  -6.1194657e-01	  -4.5308559e-01	
   9.2510000e+01	  -6.3375679e-01	  -4.5988849e-01	
   9.2565000e+01	  -6.5431797e-01	  -4.6609510e-01	
   9.2620000e+01	  -6.7349897e-01	  -4.7167845e-01	
   9.2675000e+01	  -6.9118682e-01	  -4.7661445e-01	
   9.2730000e+01	  -7.0729776e-01	  -4.8088828e-01	
   9.2785000e+01	  -7.2178917e-01	  -4.8450067e-01	
   9.2840000e+01	  -7.3466732e-01	  -4.8747119e-01	
   9.2895000e+01	  -7.4598710e-01	  -4.8983668e-01	
   9.2950000e+01	  -7.5584231e-01	  -4.9164490e-01	
   9.3005000e+01	  -7.6434967e-01	  -4.9294477e-01	
   9.3060000e+01	  -7.7163207e-01	  -4.9377545e-01	
   9.3115000e+01	  -7.7780668e-01	  -4.9415785e-01	
   9.3170000e+01	  -7.8298010e-01	  -4.9409113e-01	
   9.3225000e+01	  -7.8724948e-01	  -4.9355468e-01	
   9.3280000e+01	  -7.9070727e-01	  -4.9251393e-01	
   9.3335000e+01	  -7.9344798e-01	  -4.9092872e-01	
   9.3390000e+01	  -7.9557563e-01	  -4.8876349e-01	
   9.3445000e+01	  -7.9720983e-01	  -4.8599761e-01	
   9.3500000e+01	  -7.9848860e-01	  -4.8263373e-01	
   9.3555000e+01	  -7.9956645e-01	  -4.7870230e-01	
   9.3610000e+01	  -8.0060628e-01	  -4.7426089e-01	
   9.3665000e+01	  -8.0176569e-01	  -4.6938742e-01	
   9.3720000e+01	  -8.0318168e-01	  -4.6416871e-01	
   9.3775000e+01	  -8.0495942e-01	  -4.5868818e-01	
   9.3830000e+01	  -8.0716871e-01	  -4.5301673e-01	
   9.3885000e+01	  -8.0984771e-01	  -4.4720909e-01	
   9.3940000e+01	  -8.1301185e-01	  -4.4130572e-01	
   9.3995000e+01	  -8.1666522e-01	  -4.3533926e-01	
   9.4050000e+01	  -8.2081214e-01	  -4.2934364e-01	
   9.4105000e+01	  -8.2546601e-01	  -4.2336328e-01	
   9.4160000e+01	  -8.3065338e-01	  -4.1746002e-01	
   9.4215000e+01	  -8.3641081e-01	  -4.1171512e-01	
   9.4270000e+01	  -8.4277412e-01	  -4.0622492e-01	
   9.4325000e+01	  -8.4976147e-01	  -4.0109026e-01	
   9.4380000e+01	  -8.5735520e-01	  -3.9640233e-01	
   9.4435000e+01	  -8.6548796e-01	  -3.9222887e-01	
   9.4490000e+01	  -8.7403724e-01	  -3.8860466e-01	
   9.4545000e+01	  -8.8282935e-01	  -3.8552837e-01	
   9.4600000e+01	  -8.9165206e-01	  -3.8296601e-01	
   9.4655000e+01	  -9.0027361e-01	  -3.8085948e-01	
   9.4710000e+01	  -9.0846498e-01	  -3.7913828e-01	
   9.4765000e+01	  -9.1602180e-01	  -3.7773216e-01	
   9.4820000e+01	  -9.2278224e-01	  -3.7658217e-01	
   9.4875000e+01	  -9.2863764e-01	  -3.7564787e-01	
   9.4930000e+01	  -9.3353441e-01	  -3.7490894e-01	
   9.4985000e+01	  -9.3746758e-01	  -3.7436181e-01	
   9.5040000e+01	  -9.4046869e-01	  -3.7401248e-01	
   9.5095000e+01	  -9.4259131e-01	  -3.7386797e-01	
   9.5150000e+01	  -9.4389859e-01	  -3.7392865e-01	
   9.5205000e+01	  -9.4445593e-01	  -3.7418379e-01	
   9.5260000e+01	  -9.4433061e-01	  -3.7461075e-01	
   9.5315000e+01	  -9.4359694e-01	  -3.7517753e-01	
   9.5370000e+01	  -9.4234449e-01	  -3.7584801e-01	
   9.5425000e+01	  -9.4068656e-01	  -3.7658940e-01	
   9.5480000e+01	  -9.3876610e-01	  -3.7738005e-01	
   9.5535000e+01	  -9.3675671e-01	  -3.7821542e-01	
   9.5590000e+01	  -9.3485662e-01	  -3.7911060e-01	
   9.5645000e+01	  -9.3327511e-01	  -3.8009890e-01	
   9.5700000e+01	  -9.3221427e-01	  -3.8122668e-01	
   9.5755000e+01	  -9.3185092e-01	  -3.8254601e-01	
   9.5810000e+01	  -9.3232359e-01	  -3.8410683e-01	
   9.5865000e+01	  -9.3372622e-01	  -3.8595056e-01	
   9.5920000e+01	  -9.3610866e-01	  -3.8810579e-01	
   9.5975000e+01	  -9.3948274e-01	  -3.9058668e-01	
   9.6030000e+01	  -9.4383248e-01	  -3.9339398e-01	
   9.6085000e+01	  -9.4912640e-01	  -3.9651871e-01	
   9.6140000e+01	  -9.5532933e-01	  -3.9994767e-01	
   9.6195000e+01	  -9.6241138e-01	  -4.0366933e-01	
   9.6250000e+01	  -9.7035127e-01	  -4.0767761e-01	
   9.6305000e+01	  -9.7913237e-01	  -4.1197176e-01	
   9.6360000e+01	  -9.8873189e-01	  -4.1655153e-01	
   9.6415000e+01	  -9.9910650e-01	  -4.2140883e-01	
   9.6470000e+01	  -1.0101783e+00	  -4.2651855e-01	
   9.6525000e+01	  -1.0218256e+00	  -4.3183173e-01	
   9.6580000e+01	  -1.0338804e+00	  -4.3727311e-01	
   9.6635000e+01	  -1.0461343e+00	  -4.4274285e-01	
   9.6690000e+01	  -1.0583498e+00	  -4.4812182e-01	
   9.6745000e+01	  -1.0702770e+00	  -4.5327924e-01	
   9.6800000e+01	  -1.0816709e+00	  -4.5808204e-01	
   9.6855000e+01	  -1.0923065e+00	  -4.6240335e-01	
   9.6910000e+01	  -1.1019866e+00	  -4.6612802e-01	
   9.6965000e+01	  -1.1105423e+00	  -4.6915407e-01	
   9.7020000e+01	  -1.1178284e+00	  -4.7139144e-01	
   9.7075000e+01	  -1.1237193e+00	  -4.7275981e-01	
   9.7130000e+01	  -1.1281089e+00	  -4.7318750e-01	
   9.7185000e+01	  -1.1309146e+00	  -4.7261257e-01	
   9.7240000e+01	  -1.1320833e+00	  -4.7098659e-01	
   9.7295000e+01	  -1.1315990e+00	  -4.6827995e-01	
   9.7350000e+01	  -1.1294886e+00	  -4.6448742e-01	
   9.7405000e+01	  -1.1258249e+00	  -4.5963233e-01	
   9.7460000e+01	  -1.1207246e+00	  -4.5376799e-01	
   9.7515000e+01	  -1.1143406e+00	  -4.4697516e-01	
   9.7570000e+01	  -1.1068473e+00	  -4.3935517e-01	
   9.7625000e+01	  -1.0984224e+00	  -4.3101996e-01	
   9.7680000e+01	  -1.0892280e+00	  -4.2208194e-01	
   9.7735000e+01	  -1.0793962e+00	  -4.1264612e-01	
   9.7790000e+01	  -1.0690237e+00	  -4.0280567e-01	
   9.7845000e+01	  -1.0581740e+00	  -3.9264072e-01	
   9.7900000e+01	  -1.0468872e+00	  -3.8222045e-01	
   9.7955000e+01	  -1.0351947e+00	  -3.7160776e-01	
   9.8010000e+01	  -1.0231333e+00	  -3.6086536e-01	
   9.8065000e+01	  -1.0107560e+00	  -3.5006119e-01	
   9.8120000e+01	  -9.9813532e-01	  -3.3927097e-01	
   9.8175000e+01	  -9.8535887e-01	  -3.2857628e-01	
   9.8230000e+01	  -9.7251767e-01	  -3.1805844e-01	
   9.8285000e+01	  -9.5969137e-01	  -3.0779016e-01	
   9.8340000e+01	  -9.4693522e-01	  -2.9782806e-01	
   9.8395000e+01	  -9.3427382e-01	  -2.8820814e-01	
   9.8450000e+01	  -9.2170313e-01	  -2.7894435e-01	
   9.8505000e+01	  -9.0919918e-01	  -2.7003002e-01	
   9.8560000e+01	  -8.9673120e-01	  -2.6144198e-01	
   9.8615000e+01	  -8.8427682e-01	  -2.5314759e-01	
   9.8670000e+01	  -8.7183621e-01	  -2.4511359e-01	
   9.8725000e+01	  -8.5944240e-01	  -2.3731497e-01	
   9.8780000e+01	  -8.4716542e-01	  -2.2974157e-01	
   9.8835000e+01	  -8.3510837e-01	  -2.2240104e-01	
   9.8890000e+01	  -8.2339436e-01	  -2.1531706e-01	
   9.8945000e+01	  -8.1214742e-01	  -2.0852331e-01	
   9.9000000e+01	  -8.0147405e-01	  -2.0205558e-01	
   9.9055000e+01	  -7.9145189e-01	  -1.9594551e-01	
   9.9110000e+01	  -7.8212713e-01	  -1.9021794e-01	
   9.9165000e+01	  -7.7351862e-01	  -1.8489143e-01	
   9.9220000e+01	  -7.6562633e-01	  -1.7998051e-01	
   9.9275000e+01	  -7.5844232e-01	  -1.7549867e-01	
   9.9330000e+01	  -7.5196285e-01	  -1.7146165e-01	
   9.9385000e+01	  -7.4619881e-01	  -1.6789107e-01	
   9.9440000e+01	  -7.4118195e-01	  -1.6481743e-01	
   9.9495000e+01	  -7.3696521e-01	  -1.6228092e-01	
   9.9550000e+01	  -7.3361593e-01	  -1.6032827e-01	
   9.9605000e+01	  -7.3120135e-01	  -1.5900524e-01	
   9.9660000e+01	  -7.2976939e-01	  -1.5834601e-01	
   9.9715000e+01	  -7.2933081e-01	  -1.5836313e-01	
   9.9770000e+01	  -7.2984891e-01	  -1.5904101e-01	
   9.9825000e+01	  -7.3123921e-01	  -1.6033449e-01	
   9.9880000e+01	  -7.3337856e-01	  -1.6217218e-01	
   9.9935000e+01	  -7.3612193e-01	  -1.6446348e-01	
   9.9990000e+01	  -7.3932347e-01	  -1.6710826e-01	
   1.0004500e+02	  -7.4285701e-01	  -1.7000724e-01	
   1.0010000e+02	  -7.4663140e-01	  -1.7307101e-01	
   1.0015500e+02	  -7.5059733e-01	  -1.7622605e-01	
   1.0021000e+02	  -7.5474473e-01	  -1.7941654e-01	
   1.0026500e+02	  -7.5909183e-01	  -1.8260134e-01	
   1.0032000e+02	  -7.6366935e-01	  -1.8574753e-01	
   1.0037500e+02	  -7.6850475e-01	  -1.8882284e-01	
   1.0043000e+02	  -7.7361076e-01	  -1.9178963e-01	
   1.0048500e+02	  -7.7898035e-01	  -1.9460176e-01	
   1.0054000e+02	  -7.8458783e-01	  -1.9720478e-01	
   1.0059500e+02	  -7.9039467e-01	  -1.9953910e-01	
   1.0065000e+02	  -7.9635759e-01	  -2.0154564e-01	
   1.0070500e+02	  -8.0243598e-01	  -2.0317282e-01	
   1.0076000e+02	  -8.0859516e-01	  -2.0438272e-01	
   1.0081500e+02	  -8.1480401e-01	  -2.0515455e-01	
   1.0087000e+02	  -8.2102768e-01	  -2.0548444e-01	
   1.0092500e+02	  -8.2721854e-01	  -2.0538219e-01	
   1.0098000e+02	  -8.3330987e-01	  -2.0486626e-01	
   1.0103500e+02	  -8.3921544e-01	  -2.0395905e-01	
   1.0109000e+02	  -8.4483487e-01	  -2.0268398e-01	
   1.0114500e+02	  -8.5006211e-01	  -2.0106463e-01	
   1.0120000e+02	  -8.5479438e-01	  -1.9912547e-01	
   1.0125500e+02	  -8.5894034e-01	  -1.9689360e-01	
   1.0131000e+02	  -8.6242705e-01	  -1.9440100e-01	
   1.0136500e+02	  -8.6520470e-01	  -1.9168621e-01	
   1.0142000e+02	  -8.6724710e-01	  -1.8879378e-01	
   1.0147500e+02	  -8.6854659e-01	  -1.8577056e-01	
   1.0153000e+02	  -8.6910435e-01	  -1.8265894e-01	
   1.0158500e+02	  -8.6891939e-01	  -1.7948907e-01	
   1.0164000e+02	  -8.6798006e-01	  -1.7627188e-01	
   1.0169500e+02	  -8.6625960e-01	  -1.7299470e-01	
   1.0175000e+02	  -8.6371641e-01	  -1.6962059e-01	
   1.0180500e+02	  -8.6029961e-01	  -1.6609209e-01	
   1.0186000e+02	  -8.5595987e-01	  -1.6233892e-01	
   1.0191500e+02	  -8.5066386e-01	  -1.5828859e-01	
   1.0197000e+02	  -8.4440983e-01	  -1.5387850e-01	
   1.0202500e+02	  -8.3724088e-01	  -1.4906789e-01	
   1.0208000e+02	  -8.2925166e-01	  -1.4384640e-01	
   1.0213500e+02	  -8.2058537e-01	  -1.3823676e-01	
   1.0219000e+02	  -8.1142050e-01	  -1.3229083e-01	
   1.0224500e+02	  -8.0195099e-01	  -1.2608158e-01	
   1.0230000e+02	  -7.9236512e-01	  -1.1969321e-01	
   1.0235500e+02	  -7.8282861e-01	  -1.1321185e-01	
   1.0241000e+02	  -7.7347506e-01	  -1.0671791e-01	
   1.0246500e+02	  -7.6440452e-01	  -1.0028166e-01	
   1.0252000e+02	  -7.5568914e-01	  -9.3962381e-02	
   1.0257500e+02	  -7.4738442e-01	  -8.7811118e-02	
   1.0263000e+02	  -7.3954308e-01	  -8.1876205e-02	
   1.0268500e+02	  -7.3222820e-01	  -7.6209780e-02	
   1.0274000e+02	  -7.2552163e-01	  -7.0872391e-02	
   1.0279500e+02	  -7.1952476e-01	  -6.5933501e-02	
   1.0285000e+02	  -7.1435021e-01	  -6.1467356e-02	
   1.0290500e+02	  -7.1010661e-01	  -5.7545660e-02	
   1.0296000e+02	  -7.0688253e-01	  -5.4229677e-02	
   1.0301500e+02	  -7.0473488e-01	  -5.1563907e-02	
   1.0307000e+02	  -7.0368490e-01	  -4.9572301e-02	
   1.0312500e+02	  -7.0372149e-01	  -4.8257303e-02	
   1.0318000e+02	  -7.0480992e-01	  -4.7601684e-02	
   1.0323500e+02	  -7.0690270e-01	  -4.7572860e-02	
   1.0329000e+02	  -7.0995042e-01	  -4.8129494e-02	
   1.0334500e+02	  -7.1391147e-01	  -4.9229737e-02	
   1.0340000e+02	  -7.1875870e-01	  -5.0839100e-02	
   1.0345500e+02	  -7.2448069e-01	  -5.2934822e-02	
   1.0351000e+02	  -7.3107580e-01	  -5.5504813e-02	
   1.0356500e+02	  -7.3854019e-01	  -5.8541903e-02	
   1.0362000e+02	  -7.4685313e-01	  -6.2035999e-02	
   1.0367500e+02	  -7.5596430e-01	  -6.5966771e-02	
   1.0373000e+02	  -7.6578714e-01	  -7.0298804e-02	
   1.0378500e+02	  -7.7619958e-01	  -7.4980244e-02	
   1.0384000e+02	  -7.8705121e-01	  -7.9944828e-02	
   1.0389500e+02	  -7.9817522e-01	  -8.5116330e-02	
   1.0395000e+02	  -8.0940346e-01	  -9.0414418e-02	
   1.0400500e+02	  -8.2058232e-01	  -9.5761240e-02	
   1.0406000e+02	  -8.3158527e-01	  -1.0108778e-01	
   1.0411500e+02	  -8.4231842e-01	  -1.0633831e-01	
   1.0417000e+02	  -8.5271723e-01	  -1.1147145e-01	
   1.0422500e+02	  -8.6273666e-01	  -1.1645795e-01	
   1.0428000e+02	  -8.7233958e-01	  -1.2127635e-01	
   1.0433500e+02	  -8.8148824e-01	  -1.2590835e-01	
   1.0439000e+02	  -8.9014038e-01	  -1.3033502e-01	
   1.0444500e+02	  -8.9825031e-01	  -1.3453555e-01	
   1.0450000e+02	  -9.0577392e-01	  -1.3848894e-01	
   1.0455500e+02	  -9.1267648e-01	  -1.4217750e-01	
   1.0461000e+02	  -9.1894020e-01	  -1.4559021e-01	
   1.0466500e+02	  -9.2456921e-01	  -1.4872487e-01	
   1.0472000e+02	  -9.2958964e-01	  -1.5158854e-01	
   1.0477500e+02	  -9.3404398e-01	  -1.5419514e-01	
   1.0483000e+02	  -9.3797948e-01	  -1.5655992e-01	
   1.0488500e+02	  -9.4143312e-01	  -1.5869199e-01	
   1.0494000e+02	  -9.4441776e-01	  -1.6058785e-01	
   1.0499500e+02	  -9.4691376e-01	  -1.6222787e-01	
   1.0505000e+02	  -9.4886816e-01	  -1.6357587e-01	
   1.0510500e+02	  -9.5020096e-01	  -1.6458144e-01	
   1.0516000e+02	  -9.5081755e-01	  -1.6518526e-01	
   1.0521500e+02	  -9.5062486e-01	  -1.6532705e-01	
   1.0527000e+02	  -9.4954672e-01	  -1.6495429e-01	
   1.0532500e+02	  -9.4753358e-01	  -1.6402873e-01	
   1.0538000e+02	  -9.4456329e-01	  -1.6252887e-01	
   1.0543500e+02	  -9.4063307e-01	  -1.6044753e-01	
   1.0549000e+02	  -9.3574536e-01	  -1.5778525e-01	
   1.0554500e+02	  -9.2989343e-01	  -1.5454182e-01	
   1.0560000e+02	  -9.2305230e-01	  -1.5070917e-01	
   1.0565500e+02	  -9.1517748e-01	  -1.4626798e-01	
   1.0571000e+02	  -9.0621048e-01	  -1.4118839e-01	
   1.0576500e+02	  -8.9608861e-01	  -1.3543377e-01	
   1.0582000e+02	  -8.8475655e-01	  -1.2896725e-01	
   1.0587500e+02	  -8.7217864e-01	  -1.2175995e-01	
   1.0593000e+02	  -8.5835003e-01	  -1.1379971e-01	
   1.0598500e+02	  -8.4330376e-01	  -1.0509827e-01	
   1.0604000e+02	  -8.2711111e-01	  -9.5694923e-02	
   1.0609500e+02	  -8.0987492e-01	  -8.5656232e-02	
   1.0615000e+02	  -7.9171877e-01	  -7.5072133e-02	
   1.0620500e+02	  -7.7277561e-01	  -6.4049894e-02	
   1.0626000e+02	  -7.5317936e-01	  -5.2707643e-02	
   1.0631500e+02	  -7.3306140e-01	  -4.1169320e-02	
   1.0637000e+02	  -7.1255203e-01	  -2.9562351e-02	
   1.0642500e+02	  -6.9178561e-01	  -1.8018044e-02	
   1.0648000e+02	  -6.7090714e-01	  -6.6734949e-03	
   1.0653500e+02	  -6.5007831e-01	   4.3265548e-03	
   1.0659000e+02	  -6.2948092e-01	   1.4829500e-02	
   1.0664500e+02	  -6.0931482e-01	   2.4677811e-02	
   1.0670000e+02	  -5.8978884e-01	   3.3715618e-02	
   1.0675500e+02	  -5.7110604e-01	   4.1797821e-02	
   1.0681000e+02	  -5.5344753e-01	   4.8799796e-02	
   1.0686500e+02	  -5.3695899e-01	   5.4625882e-02	
   1.0692000e+02	  -5.2174224e-01	   5.9215072e-02	
   1.0697500e+02	  -5.0785316e-01	   6.2542458e-02	
   1.0703000e+02	  -4.9530622e-01	   6.4616202e-02	
   1.0708500e+02	  -4.8408352e-01	   6.5471399e-02	
   1.0714000e+02	  -4.7414602e-01	   6.5162416e-02	
   1.0719500e+02	  -4.6544494e-01	   6.3754758e-02	
   1.0725000e+02	  -4.5793120e-01	   6.1317536e-02	
   1.0730500e+02	  -4.5156033e-01	   5.7917933e-02	
   1.0736000e+02	  -4.4629071e-01	   5.3618677e-02	
   1.0741500e+02	  -4.4207588e-01	   4.8478867e-02	
   1.0747000e+02	  -4.3885372e-01	   4.2557784e-02	
   1.0752500e+02	  -4.3653681e-01	   3.5920484e-02	
   1.0758000e+02	  -4.3500734e-01	   2.8643137e-02	
   1.0763500e+02	  -4.3411845e-01	   2.0815937e-02	
   1.0769000e+02	  -4.3370141e-01	   1.2542477e-02	
   1.0774500e+02	  -4.3357631e-01	   3.9362811e-03	
   1.0780000e+02	  -4.3356416e-01	  -4.8843365e-03	
   1.0785500e+02	  -4.3349921e-01	  -1.3802604e-02	
   1.0791000e+02	  -4.3323993e-01	  -2.2710055e-02	
   1.0796500e+02	  -4.3267539e-01	  -3.1511693e-02	
   1.0802000e+02	  -4.3172446e-01	  -4.0127535e-02	
   1.0807500e+02	  -4.3032893e-01	  -4.8490483e-02	
   1.0813000e+02	  -4.2844420e-01	  -5.6542337e-02	
   1.0818500e+02	  -4.2603141e-01	  -6.4230021e-02	
   1.0824000e+02	  -4.2305302e-01	  -7.1503395e-02	
   1.0829500e+02	  -4.1947292e-01	  -7.8315167e-02	
   1.0835000e+02	  -4.1526050e-01	  -8.4622488e-02	
   1.0840500e+02	  -4.1039662e-01	  -9.0389242e-02	
   1.0846000e+02	  -4.0487943e-01	  -9.5588326e-02	
   1.0851500e+02	  -3.9872895e-01	  -1.0020395e-01	
   1.0857000e+02	  -3.9198914e-01	  -1.0423364e-01	
   1.0862500e+02	  -3.8472521e-01	  -1.0768856e-01	
   1.0868000e+02	  -3.7701426e-01	  -1.1059085e-01	
   1.0873500e+02	  -3.6893081e-01	  -1.1296843e-01	
   1.0879000e+02	  -3.6053167e-01	  -1.1484921e-01	
   1.0884500e+02	  -3.5184486e-01	  -1.1625675e-01	
   1.0890000e+02	  -3.4286513e-01	  -1.1720812e-01	
   1.0895500e+02	  -3.3355700e-01	  -1.1771444e-01	
   1.0901000e+02	  -3.2386497e-01	  -1.1778421e-01	
   1.0906500e+02	  -3.1372811e-01	  -1.1742876e-01	
   1.0912000e+02	  -3.0309392e-01	  -1.1666723e-01	
   1.0917500e+02	  -2.9192778e-01	  -1.1552937e-01	
   1.0923000e+02	  -2.8021617e-01	  -1.1405557e-01	
   1.0928500e+02	  -2.6796369e-01	  -1.1229424e-01	
   1.0934000e+02	  -2.5518509e-01	  -1.1029713e-01	
   1.0939500e+02	  -2.4189583e-01	  -1.0811402e-01	
   1.0945000e+02	  -2.2810557e-01	  -1.0578870e-01	
   1.0950500e+02	  -2.1381679e-01	  -1.0335743e-01	
   1.0956000e+02	  -1.9902809e-01	  -1.0084939e-01	
   1.0961500e+02	  -1.8374019e-01	  -9.8289151e-02	
   1.0967000e+02	  -1.6796399e-01	  -9.5700655e-02	
   1.0972500e+02	  -1.5172950e-01	  -9.3112495e-02	
   1.0978000e+02	  -1.3509408e-01	  -9.0563269e-02	
   1.0983500e+02	  -1.1814720e-01	  -8.8105664e-02	
   1.0989000e+02	  -1.0101011e-01	  -8.5807615e-02	
   1.0994500e+02	  -8.3828631e-02	  -8.3749274e-02	
   1.1000000e+02	  -6.6759850e-02	  -8.2015822e-02	
   1.1005500e+02	  -4.9955840e-02	  -8.0688006e-02	
   1.1011000e+02	  -3.3549845e-02	  -7.9833418e-02	
   1.1016500e+02	  -1.7648507e-02	  -7.9501097e-02	
   1.1022000e+02	  -2.3303912e-03	  -7.9720291e-02	
   1.1027500e+02	   1.2350954e-02	  -8.0502669e-02	
   1.1033000e+02	   2.6360197e-02	  -8.1847121e-02	
   1.1038500e+02	   3.9669783e-02	  -8.3746367e-02	
   1.1044000e+02	   5.2248115e-02	  -8.6193821e-02	
   1.1049500e+02	   6.4051352e-02	  -8.9188447e-02	
   1.1055000e+02	   7.5023363e-02	  -9.2735854e-02	
   1.1060500e+02	   8.5104880e-02	  -9.6845348e-02	
   1.1066000e+02	   9.4248646e-02	  -1.0152402e-01	
   1.1071500e+02	   1.0243472e-01	  -1.0676978e-01	
   1.1077000e+02	   1.0968006e-01	  -1.1256555e-01	
   1.1082500e+02	   1.1603879e-01	  -1.1887678e-01	
   1.1088000e+02	   1.2159307e-01	  -1.2565314e-01	
   1.1093500e+02	   1.2643764e-01	  -1.3283398e-01	
   1.1099000e+02	   1.3066192e-01	  -1.4035605e-01	
   1.1104500e+02	   1.3433318e-01	  -1.4816218e-01	
   1.1110000e+02	   1.3748380e-01	  -1.5620884e-01	
   1.1115500e+02	   1.4010568e-01	  -1.6447050e-01	
   1.1121000e+02	   1.4215398e-01	  -1.7293987e-01	
   1.1126500e+02	   1.4355948e-01	  -1.8162346e-01	
   1.1132000e+02	   1.4424724e-01	  -1.9053311e-01	
   1.1137500e+02	   1.4415632e-01	  -1.9967517e-01	
   1.1143000e+02	   1.4325478e-01	  -2.0904053e-01	
   1.1148500e+02	   1.4154665e-01	  -2.1859796e-01	
   1.1154000e+02	   1.3907055e-01	  -2.2829188e-01	
   1.1159500e+02	   1.3589206e-01	  -2.3804401e-01	
   1.1165000e+02	   1.3209234e-01	  -2.4775848e-01	
   1.1170500e+02	   1.2775536e-01	  -2.5732958e-01	
   1.1176000e+02	   1.2295692e-01	  -2.6665063e-01	
   1.1181500e+02	   1.1775780e-01	  -2.7562204e-01	
   1.1187000e+02	   1.1220263e-01	  -2.8415652e-01	
   1.1192500e+02	   1.0632484e-01	  -2.9218107e-01	
   1.1198000e+02	   1.0015590e-01	  -2.9963634e-01	
   1.1203500e+02	   9.3735645e-02	  -3.0647477e-01	
   1.1209000e+02	   8.7121287e-02	  -3.1265826e-01	
   1.1214500e+02	   8.0393312e-02	  -3.1815592e-01	
   1.1220000e+02	   7.3657181e-02	  -3.2294226e-01	
   1.1225500e+02	   6.7039846e-02	  -3.2699625e-01	
   1.1231000e+02	   6.0681579e-02	  -3.3030163e-01	
   1.1236500e+02	   5.4724634e-02	  -3.3284866e-01	
   1.1242000e+02	   4.9301366e-02	  -3.3463691e-01	
   1.1247500e+02	   4.4526055e-02	  -3.3567673e-01	
   1.1253000e+02	   4.0493964e-02	  -3.3598704e-01	
   1.1258500e+02	   3.7286455e-02	  -3.3558955e-01	
   1.1264000e+02	   3.4977077e-02	  -3.3450236e-01	
   1.1269500e+02	   3.3634392e-02	  -3.3273562e-01	
   1.1275000e+02	   3.3320402e-02	  -3.3029029e-01	
   1.1280500e+02	   3.4085084e-02	  -3.2716038e-01	
   1.1286000e+02	   3.5958091e-02	  -3.2333852e-01	
   1.1291500e+02	   3.8939721e-02	  -3.1882333e-01	
   1.1297000e+02	   4.2994286e-02	  -3.1362619e-01	
   1.1302500e+02	   4.8048802e-02	  -3.0777563e-01	
   1.1308000e+02	   5.3998885e-02	  -3.0131817e-01	
   1.1313500e+02	   6.0722353e-02	  -2.9431530e-01	
   1.1319000e+02	   6.8098700e-02	  -2.8683701e-01	
   1.1324500e+02	   7.6029591e-02	  -2.7895362e-01	
   1.1330000e+02	   8.4454281e-02	  -2.7072783e-01	
   1.1335500e+02	   9.3355818e-02	  -2.6220916e-01	
   1.1341000e+02	   1.0275738e-01	  -2.5343176e-01	
   1.1346500e+02	   1.1271095e-01	  -2.4441567e-01	
   1.1352000e+02	   1.2328124e-01	  -2.3517138e-01	
   1.1357500e+02	   1.3452707e-01	  -2.2570717e-01	
   1.1363000e+02	   1.4648288e-01	  -2.1603770e-01	
   1.1368500e+02	   1.5914435e-01	  -2.0619144e-01	
   1.1374000e+02	   1.7246250e-01	  -1.9621430e-01	
   1.1379500e+02	   1.8634741e-01	  -1.8616841e-01	
   1.1385000e+02	   2.0067948e-01	  -1.7612610e-01	
   1.1390500e+02	   2.1532376e-01	  -1.6616132e-01	
   1.1396000e+02	   2.3014386e-01	  -1.5634106e-01	
   1.1401500e+02	   2.4501294e-01	  -1.4671890e-01	
   1.1407000e+02	   2.5982014e-01	  -1.3733130e-01	
   1.1412500e+02	   2.7447147e-01	  -1.2819670e-01	
   1.1418000e+02	   2.8888580e-01	  -1.1931745e-01	
   1.1423500e+02	   3.0298780e-01	  -1.1068458e-01	
   1.1429000e+02	   3.1670114e-01	  -1.0228442e-01	
   1.1434500e+02	   3.2994527e-01	  -9.4104718e-02	
   1.1440000e+02	   3.4263784e-01	  -8.6137783e-02	
   1.1445500e+02	   3.5470344e-01	  -7.8379401e-02	
   1.1451000e+02	   3.6608775e-01	  -7.0823299e-02	
   1.1456500e+02	   3.7677401e-01	  -6.3452647e-02	
   1.1462000e+02	   3.8679656e-01	  -5.6232007e-02	
   1.1467500e+02	   3.9624679e-01	  -4.9102976e-02	
   1.1473000e+02	   4.0526993e-01	  -4.1984791e-02	
   1.1478500e+02	   4.1405461e-01	  -3.4779213e-02	
   1.1484000e+02	   4.2281737e-01	  -2.7378655e-02	
   1.1489500e+02	   4.3178428e-01	  -1.9676696e-02	
   1.1495000e+02	   4.4117092e-01	  -1.1579702e-02	
   1.1500500e+02	   4.5116349e-01	  -3.0174792e-03	
   1.1506000e+02	   4.6190423e-01	   6.0492820e-03	
   1.1511500e+02	   4.7348384e-01	   1.5626457e-02	
   1.1517000e+02	   4.8594184e-01	   2.5689444e-02	
   1.1522500e+02	   4.9927308e-01	   3.6190280e-02	
   1.1528000e+02	   5.1343687e-01	   4.7065768e-02	
   1.1533500e+02	   5.2836498e-01	   5.8243429e-02	
   1.1539000e+02	   5.4396729e-01	   6.9644126e-02	
   1.1544500e+02	   5.6013480e-01	   8.1182429e-02	
   1.1550000e+02	   5.7674024e-01	   9.2766212e-02	
   1.1555500e+02	   5.9363606e-01	   1.0429577e-01	
   1.1561000e+02	   6.1065074e-01	   1.1566225e-01	
   1.1566500e+02	   6.2758611e-01	   1.2674623e-01	
   1.1572000e+02	   6.4421803e-01	   1.3741761e-01	
   1.1577500e+02	   6.6030285e-01	   1.4753794e-01	
   1.1583000e+02	   6.7558993e-01	   1.5696526e-01	
   1.1588500e+02	   6.8983816e-01	   1.6556086e-01	
   1.1594000e+02	   7.0283192e-01	   1.7319617e-01	
   1.1599500e+02	   7.1439143e-01	   1.7975831e-01	
   1.1605000e+02	   7.2437540e-01	   1.8515306e-01	
   1.1610500e+02	   7.3267679e-01	   1.8930593e-01	
   1.1616000e+02	   7.3921517e-01	   1.9216271e-01	
   1.1621500e+02	   7.4392872e-01	   1.9368945e-01	
   1.1627000e+02	   7.4676755e-01	   1.9387141e-01	
   1.1632500e+02	   7.4768909e-01	   1.9271181e-01	
   1.1638000e+02	   7.4665712e-01	   1.9023194e-01	
   1.1643500e+02	   7.4364475e-01	   1.8647319e-01	
   1.1649000e+02	   7.3864029e-01	   1.8149937e-01	
   1.1654500e+02	   7.3165320e-01	   1.7539754e-01	
   1.1660000e+02	   7.2271756e-01	   1.6827634e-01	
   1.1665500e+02	   7.1189173e-01	   1.6026150e-01	
   1.1671000e+02	   6.9925418e-01	   1.5148927e-01	
   1.1676500e+02	   6.8489653e-01	   1.4209890e-01	
   1.1682000e+02	   6.6891543e-01	   1.3222542e-01	
   1.1687500e+02	   6.5140458e-01	   1.2199364e-01	
   1.1693000e+02	   6.3244919e-01	   1.1151372e-01	
   1.1698500e+02	   6.1212472e-01	   1.0087901e-01	
   1.1704000e+02	   5.9050151e-01	   9.0166671e-02	
   1.1709500e+02	   5.6765442e-01	   7.9441197e-02	
   1.1715000e+02	   5.4367386e-01	   6.8759736e-02	
   1.1720500e+02	   5.1867422e-01	   5.8177043e-02	
   1.1726000e+02	   4.9279789e-01	   4.7748540e-02	
   1.1731500e+02	   4.6621495e-01	   3.7530857e-02	
   1.1737000e+02	   4.3911892e-01	   2.7579861e-02	
   1.1742500e+02	   4.1171850e-01	   1.7946681e-02	
   1.1748000e+02	   3.8422727e-01	   8.6730760e-03	
   1.1753500e+02	   3.5685501e-01	  -2.1187528e-04	
   1.1759000e+02	   3.2980371e-01	  -8.6920542e-03	
   1.1764500e+02	   3.0326870e-01	  -1.6761082e-02	
   1.1770000e+02	   2.7744279e-01	  -2.4416645e-02	
   1.1775500e+02	   2.5251979e-01	  -3.1654449e-02	
   1.1781000e+02	   2.2869410e-01	  -3.8464122e-02	
   1.1786500e+02	   2.0615465e-01	  -4.4828691e-02	
   1.1792000e+02	   1.8507407e-01	  -5.0727377e-02	
   1.1797500e+02	   1.6559536e-01	  -5.6139849e-02	
   1.1803000e+02	   1.4781888e-01	  -6.1050309e-02	
   1.1808500e+02	   1.3179203e-01	  -6.5450524e-02	
   1.1814000e+02	   1.1750517e-01	  -6.9340667e-02	
   1.1819500e+02	   1.0489676e-01	  -7.2726895e-02	
   1.1825000e+02	   9.3866739e-02	  -7.5616414e-02	
   1.1830500e+02	   8.4293416e-02	  -7.8012370e-02	
   1.1836000e+02	   7.6048382e-02	  -7.9910449e-02	
   1.1841500e+02	   6.9006532e-02	  -8.1297864e-02	
   1.1847000e+02	   6.3050567e-02	  -8.2155012e-02	
   1.1852500e+02	   5.8070628e-02	  -8.2459760e-02	
   1.1858000e+02	   5.3961236e-02	  -8.2193010e-02	
   1.1863500e+02	   5.0618572e-02	  -8.1343404e-02	
   1.1869000e+02	   4.7940444e-02	  -7.9909503e-02	
   1.1874500e+02	   4.5830167e-02	  -7.7898551e-02	
   1.1880000e+02	   4.4204323e-02	  -7.5321483e-02	
   1.1885500e+02	   4.3002210e-02	  -7.2185182e-02	
   1.1891000e+02	   4.2192958e-02	  -6.8485077e-02	
   1.1896500e+02	   4.1776713e-02	  -6.4201469e-02	
   1.1902000e+02	   4.1779001e-02	  -5.9300764e-02	
   1.1907500e+02	   4.2239925e-02	  -5.3740479e-02	
   1.1913000e+02	   4.3200468e-02	  -4.7476510e-02	
   1.1918500e+02	   4.4687827e-02	  -4.0471829e-02	
   1.1924000e+02	   4.6702692e-02	  -3.2705558e-02	
   1.1929500e+02	   4.9213158e-02	  -2.4180002e-02	
   1.1935000e+02	   5.2158804e-02	  -1.4923061e-02	
   1.1940500e+02	   5.5464116e-02	  -4.9853711e-03	
   1.1946000e+02	   5.9056548e-02	   5.5662376e-03	
   1.1951500e+02	   6.2883676e-02	   1.6656586e-02	
   1.1957000e+02	   6.6924891e-02	   2.8208971e-02	
   1.1962500e+02	   7.1194547e-02	   4.0148795e-02	
   1.1968000e+02	   7.5736178e-02	   5.2403008e-02	
   1.1973500e+02	   8.0610690e-02	   6.4896690e-02	
   1.1979000e+02	   8.5883065e-02	   7.7549330e-02	
   1.1984500e+02	   9.1611549e-02	   9.0272909e-02	
   1.1990000e+02	   9.7842188e-02	   1.0297295e-01	
   1.1995500e+02	   1.0460990e-01	   1.1555289e-01	
   1.2001000e+02	   1.1194462e-01	   1.2792105e-01	
   1.2006500e+02	   1.1987896e-01	   1.3999790e-01	
   1.2012000e+02	   1.2845367e-01	   1.5172132e-01	
   1.2017500e+02	   1.3771924e-01	   1.6304857e-01	
   1.2023000e+02	   1.4773314e-01	   1.7395580e-01	
   1.2028500e+02	   1.5855258e-01	   1.8443510e-01	
   1.2034000e+02	   1.7022395e-01	   1.9448932e-01	
   1.2039500e+02	   1.8277109e-01	   2.0412500e-01	
   1.2045000e+02	   1.9618535e-01	   2.1334570e-01	
   1.2050500e+02	   2.1042163e-01	   2.2214774e-01	
   1.2056000e+02	   2.2540191e-01	   2.3051918e-01	
   1.2061500e+02	   2.4102503e-01	   2.3844153e-01	
   1.2067000e+02	   2.5717833e-01	   2.4589317e-01	
   1.2072500e+02	   2.7374722e-01	   2.5285351e-01	
   1.2078000e+02	   2.9062109e-01	   2.5930672e-01	
   1.2083500e+02	   3.0769585e-01	   2.6524443e-01	
   1.2089000e+02	   3.2487453e-01	   2.7066706e-01	
   1.2094500e+02	   3.4206738e-01	   2.7558382e-01	
   1.2100000e+02	   3.5919191e-01	   2.8001158e-01	
   1.2105500e+02	   3.7617365e-01	   2.8397378e-01	
   1.2111000e+02	   3.9294901e-01	   2.8750094e-01	
   1.2116500e+02	   4.0947100e-01	   2.9063335e-01	
   1.2122000e+02	   4.2571616e-01	   2.9342481e-01	
   1.2127500e+02	   4.4168878e-01	   2.9594463e-01	
   1.2133000e+02	   4.5741979e-01	   2.9827614e-01	
   1.2138500e+02	   4.7296058e-01	   3.0051287e-01	
   1.2144000e+02	   4.8837373e-01	   3.0275322e-01	
   1.2149500e+02	   5.0372225e-01	   3.0509416e-01	
   1.2155000e+02	   5.1905992e-01	   3.0762408e-01	
   1.2160500e+02	   5.3442474e-01	   3.1041626e-01	
   1.2166000e+02	   5.4983638e-01	   3.1352457e-01	
   1.2171500e+02	   5.6529785e-01	   3.1698232e-01	
   1.2177000e+02	   5.8080144e-01	   3.2080495e-01	
   1.2182500e+02	   5.9633753e-01	   3.2499598e-01	
   1.2188000e+02	   6.1190276e-01	   3.2955373e-01	
   1.2193500e+02	   6.2750437e-01	   3.3447626e-01	
   1.2199000e+02	   6.4315955e-01	   3.3976323e-01	
   1.2204500e+02	   6.5889051e-01	   3.4541541e-01	
   1.2210000e+02	   6.7471607e-01	   3.5143189e-01	
   1.2215500e+02	   6.9064078e-01	   3.5780499e-01	
   1.2221000e+02	   7.0664393e-01	   3.6451386e-01	
   1.2226500e+02	   7.2267190e-01	   3.7151876e-01	
   1.2232000e+02	   7.3863729e-01	   3.7875872e-01	
   1.2237500e+02	   7.5442596e-01	   3.8615397e-01	
   1.2243000e+02	   7.6991052e-01	   3.9361300e-01	
   1.2248500e+02	   7.8496579e-01	   4.0104193e-01	
   1.2254000e+02	   7.9948200e-01	   4.0835330e-01	
   1.2259500e+02	   8.1337249e-01	   4.1547152e-01	
   1.2265000e+02	   8.2657419e-01	   4.2233383e-01	
   1.2270500e+02	   8.3904141e-01	   4.2888724e-01	
   1.2276000e+02	   8.5073578e-01	   4.3508299e-01	
   1.2281500e+02	   8.6161599e-01	   4.4087054e-01	
   1.2287000e+02	   8.7163006e-01	   4.4619238e-01	
   1.2292500e+02	   8.8071177e-01	   4.5098156e-01	
   1.2298000e+02	   8.8878217e-01	   4.5516277e-01	
   1.2303500e+02	   8.9575643e-01	   4.5865727e-01	
   1.2309000e+02	   9.0155510e-01	   4.6139048e-01	
   1.2314500e+02	   9.0611725e-01	   4.6330060e-01	
   1.2320000e+02	   9.0941207e-01	   4.6434667e-01	
   1.2325500e+02	   9.1144546e-01	   4.6451430e-01	
   1.2331000e+02	   9.1226044e-01	   4.6381741e-01	
   1.2336500e+02	   9.1193261e-01	   4.6229614e-01	
   1.2342000e+02	   9.1056221e-01	   4.6001148e-01	
   1.2347500e+02	   9.0826335e-01	   4.5703727e-01	
   1.2353000e+02	   9.0515162e-01	   4.5345044e-01	
   1.2358500e+02	   9.0133261e-01	   4.4932108e-01	
   1.2364000e+02	   8.9689432e-01	   4.4470534e-01	
   1.2369500e+02	   8.9190444e-01	   4.3964246e-01	
   1.2375000e+02	   8.8641229e-01	   4.3415684e-01	
   1.2380500e+02	   8.8045433e-01	   4.2826410e-01	
   1.2386000e+02	   8.7406117e-01	   4.2197923e-01	
   1.2391500e+02	   8.6726375e-01	   4.1532387e-01	
   1.2397000e+02	   8.6009626e-01	   4.0833075e-01	
   1.2402500e+02	   8.5259467e-01	   4.0104497e-01	
   1.2408000e+02	   8.4479173e-01	   3.9352235e-01	
   1.2413500e+02	   8.3671047e-01	   3.8582544e-01	
   1.2419000e+02	   8.2835852e-01	   3.7801751e-01	
   1.2424500e+02	   8.1972506e-01	   3.7015587e-01	
   1.2430000e+02	   8.1078254e-01	   3.6228690e-01	
   1.2435500e+02	   8.0149453e-01	   3.5444458e-01	
   1.2441000e+02	   7.9182870e-01	   3.4665323e-01	
   1.2446500e+02	   7.8177096e-01	   3.3893309e-01	
   1.2452000e+02	   7.7133603e-01	   3.3130660e-01	
   1.2457500e+02	   7.6057163e-01	   3.2380331e-01	
   1.2463000e+02	   7.4955585e-01	   3.1646203e-01	
   1.2468500e+02	   7.3838864e-01	   3.0932973e-01	
   1.2474000e+02	   7.2717962e-01	   3.0245788e-01	
   1.2479500e+02	   7.1603503e-01	   2.9589736e-01	
   1.2485000e+02	   7.0504628e-01	   2.8969314e-01	
   1.2490500e+02	   6.9428152e-01	   2.8387982e-01	
   1.2496000e+02	   6.8378219e-01	   2.7847911e-01	
   1.2501500e+02	   6.7356666e-01	   2.7350135e-01	
   1.2507000e+02	   6.6364084e-01	   2.6895087e-01	
   1.2512500e+02	   6.5401067e-01	   2.6483279e-01	
   1.2518000e+02	   6.4469146e-01	   2.6115858e-01	
   1.2523500e+02	   6.3571139e-01	   2.5794896e-01	
   1.2529000e+02	   6.2710908e-01	   2.5523361e-01	
   1.2534500e+02	   6.1892628e-01	   2.5304760e-01	
   1.2540000e+02	   6.1119765e-01	   2.5142589e-01	
   1.2545500e+02	   6.0394092e-01	   2.5039745e-01	
   1.2551000e+02	   5.9715009e-01	   2.4997982e-01	
   1.2556500e+02	   5.9079406e-01	   2.5017503e-01	
   1.2562000e+02	   5.8482190e-01	   2.5096813e-01	
   1.2567500e+02	   5.7917431e-01	   2.5232928e-01	
   1.2573000e+02	   5.7379764e-01	   2.5421845e-01	
   1.2578500e+02	   5.6865539e-01	   2.5659048e-01	
   1.2584000e+02	   5.6373251e-01	   2.5939850e-01	
   1.2589500e+02	   5.5903217e-01	   2.6259487e-01	
   1.2595000e+02	   5.5456605e-01	   2.6612961e-01	
   1.2600500e+02	   5.5034050e-01	   2.6994608e-01	
   1.2606000e+02	   5.4634062e-01	   2.7397490e-01	
   1.2611500e+02	   5.4251573e-01	   2.7812742e-01	
   1.2617000e+02	   5.3876999e-01	   2.8229158e-01	
   1.2622500e+02	   5.3496083e-01	   2.8633180e-01	
   1.2628000e+02	   5.3090691e-01	   2.9009447e-01	
   1.2633500e+02	   5.2640554e-01	   2.9341899e-01	
   1.2639000e+02	   5.2125607e-01	   2.9615211e-01	
   1.2644500e+02	   5.1528362e-01	   2.9816181e-01	
   1.2650000e+02	   5.0835726e-01	   2.9934704e-01	
   1.2655500e+02	   5.0039966e-01	   2.9964212e-01	
   1.2661000e+02	   4.9138753e-01	   2.9901584e-01	
   1.2666500e+02	   4.8134435e-01	   2.9746600e-01	
   1.2672000e+02	   4.7032745e-01	   2.9501084e-01	
   1.2677500e+02	   4.5841214e-01	   2.9167951e-01	
   1.2683000e+02	   4.4567585e-01	   2.8750360e-01	
