
0   3   6
   0.0000000e+00	  -1.2245321e-01	   2.5994698e-02	
   5.5000000e-02	  -1.1647858e-01	   1.7474187e-02	
   1.1000000e-01	  -1.0988441e-01	   8.3726963e-03	
   1.6500000e-01	  -1.0266432e-01	  -9.9228747e-04	
   2.2000000e-01	  -9.4814591e-02	  -1.0311916e-02	
   2.7500000e-01	  -8.6334502e-02	  -1.9300592e-02	
   3.3000000e-01	  -7.7226045e-02	  -2.7707710e-02	
   3.8500000e-01	  -6.7493211e-02	  -3.5325378e-02	
   4.4000000e-01	  -5.7141311e-02	  -4.1991003e-02	
   4.9500000e-01	  -4.6176991e-02	  -4.7585546e-02	
   5.5000000e-01	  -3.4609957e-02	  -5.2030430e-02	
   6.0500000e-01	  -2.2456550e-02	  -5.5285881e-02	
   6.6000000e-01	  -9.7436367e-03	  -5.7350936e-02	
   7.1500000e-01	   3.4893064e-03	  -5.8263429e-02	
   7.7000000e-01	   1.7191042e-02	  -5.8098583e-02	
   8.2500000e-01	   3.1302004e-02	  -5.6966069e-02	
   8.8000000e-01	   4.5759205e-02	  -5.5005360e-02	
   9.3500000e-01	   6.0501877e-02	  -5.2378756e-02	
   9.9000000e-01	   7.5477413e-02	  -4.9262132e-02	
   1.0450000e+00	   9.0646577e-02	  -4.5834522e-02	
   1.1000000e+00	   1.0598658e-01	  -4.2267825e-02	
   1.1550000e+00	   1.2149170e-01	  -3.8717441e-02	
   1.2100000e+00	   1.3717199e-01	  -3.5314504e-02	
   1.2650000e+00	   1.5305003e-01	  -3.2160284e-02	
   1.3200000e+00	   1.6915575e-01	  -2.9322902e-02	
   1.3750000e+00	   1.8552009e-01	  -2.6836061e-02	
   1.4300000e+00	   2.0216787e-01	  -2.4699646e-02	
   1.4850000e+00	   2.1910910e-01	  -2.2882495e-02	
   1.5400000e+00	   2.3632943e-01	  -2.1327327e-02	
   1.5950000e+00	   2.5378370e-01	  -1.9956661e-02	
   1.6500000e+00	   2.7139678e-01	  -1.8677852e-02	
   1.7050000e+00	   2.8907214e-01	  -1.7386374e-02	
   1.7600000e+00	   3.0670379e-01	  -1.5968170e-02	
   1.8150000e+00	   3.2418551e-01	  -1.4302401e-02	
   1.8700000e+00	   3.4141424e-01	  -1.2265499e-02	
   1.9250000e+00	   3.5828833e-01	  -9.7369095e-03	
   1.9800000e+00	   3.7470320e-01	  -6.6065764e-03	
   2.0350000e+00	   3.9054629e-01	  -2.7835025e-03	
   2.0900000e+00	   4.0569239e-01	   1.7961557e-03	
   2.1450000e+00	   4.2000116e-01	   7.1634079e-03	
   2.2000000e+00	   4.3331828e-01	   1.3314339e-02	
   2.2550000e+00	   4.4548191e-01	   2.0211519e-02	
   2.3100000e+00	   4.5633491e-01	   2.7788238e-02	
   2.3650000e+00	   4.6574157e-01	   3.5954706e-02	
   2.4200000e+00	   4.7360467e-01	   4.4605206e-02	
   2.4750000e+00	   4.7987906e-01	   5.3625596e-02	
   2.5300000e+00	   4.8457829e-01	   6.2900766e-02	
   2.5850000e+00	   4.8777378e-01	   7.2320661e-02	
   2.6400000e+00	   4.8958770e-01	   8.1783146e-02	
   2.6950000e+00	   4.9018243e-01	   9.1193673e-02	
   2.7500000e+00	   4.8974899e-01	   1.0046320e-01	
   2.8050000e+00	   4.8849548e-01	   1.0950538e-01	
   2.8600000e+00	   4.8663447e-01	   1.1823375e-01	
   2.9150000e+00	   4.8437004e-01	   1.2656065e-01	
   2.9700000e+00	   4.8188802e-01	   1.3439942e-01	
   3.0250000e+00	   4.7935101e-01	   1.4166910e-01	
   3.0800000e+00	   4.7689502e-01	   1.4829873e-01	
   3.1350000e+00	   4.7462395e-01	   1.5423002e-01	
   3.1900000e+00	   4.7260305e-01	   1.5941840e-01	
   3.2450000e+00	   4.7085529e-01	   1.6383325e-01	
   3.3000000e+00	   4.6936172e-01	   1.6745685e-01	
   3.3550000e+00	   4.6806465e-01	   1.7028189e-01	
   3.4100000e+00	   4.6687287e-01	   1.7230879e-01	
   3.4650000e+00	   4.6566924e-01	   1.7354459e-01	
   3.5200000e+00	   4.6432010e-01	   1.7400447e-01	
   3.5750000e+00	   4.6268563e-01	   1.7371523e-01	
   3.6300000e+00	   4.6063062e-01	   1.7271885e-01	
   3.6850000e+00	   4.5803566e-01	   1.7107409e-01	
   3.7400000e+00	   4.5480610e-01	   1.6885468e-01	
   3.7950000e+00	   4.5087515e-01	   1.6614453e-01	
   3.8500000e+00	   4.4619974e-01	   1.6303203e-01	
   3.9050000e+00	   4.4075241e-01	   1.5960502e-01	
   3.9600000e+00	   4.3451373e-01	   1.5594689e-01	
   4.0150000e+00	   4.2746677e-01	   1.5213322e-01	
   4.0700000e+00	   4.1959338e-01	   1.4822903e-01	
   4.1250000e+00	   4.1087295e-01	   1.4428793e-01	
   4.1800000e+00	   4.0128412e-01	   1.4035418e-01	
   4.2350000e+00	   3.9080808e-01	   1.3646699e-01	
   4.2900000e+00	   3.7943145e-01	   1.3266510e-01	
   4.3450000e+00	   3.6714772e-01	   1.2898912e-01	
   4.4000000e+00	   3.5395829e-01	   1.2548011e-01	
   4.4550000e+00	   3.3987491e-01	   1.2217501e-01	
   4.5100000e+00	   3.2492562e-01	   1.1910134e-01	
   4.5650000e+00	   3.0916390e-01	   1.1627335e-01	
   4.6200000e+00	   2.9267873e-01	   1.1369077e-01	
   4.6750000e+00	   2.7560271e-01	   1.1134045e-01	
   4.7300000e+00	   2.5811856e-01	   1.0920098e-01	
   4.7850000e+00	   2.4046356e-01	   1.0724937e-01	
   4.8400000e+00	   2.2292897e-01	   1.0546696e-01	
   4.8950000e+00	   2.0585095e-01	   1.0384268e-01	
   4.9500000e+00	   1.8959391e-01	   1.0237329e-01	
   5.0050000e+00	   1.7453067e-01	   1.0106193e-01	
   5.0600000e+00	   1.6102187e-01	   9.9915167e-02	
   5.1150000e+00	   1.4939616e-01	   9.8937992e-02	
   5.1700000e+00	   1.3993303e-01	   9.8127820e-02	
   5.2250000e+00	   1.3285158e-01	   9.7470240e-02	
   5.2800000e+00	   1.2830623e-01	   9.6939019e-02	
   5.3350000e+00	   1.2638640e-01	   9.6499841e-02	
   5.3900000e+00	   1.2711679e-01	   9.6114669e-02	
   5.4450000e+00	   1.3045816e-01	   9.5744065e-02	
   5.5000000e+00	   1.3631033e-01	   9.5347734e-02	
   5.5550000e+00	   1.4451720e-01	   9.4885306e-02	
   5.6100000e+00	   1.5487201e-01	   9.4318294e-02	
   5.6650000e+00	   1.6712270e-01	   9.3612452e-02	
   5.7200000e+00	   1.8097884e-01	   9.2739259e-02	
   5.7750000e+00	   1.9612151e-01	   9.1676018e-02	
   5.8300000e+00	   2.1221545e-01	   9.0405214e-02	
   5.8850000e+00	   2.2892211e-01	   8.8914472e-02	
   5.9400000e+00	   2.4591285e-01	   8.7197943e-02	
   5.9950000e+00	   2.6288106e-01	   8.5258516e-02	
   6.0500000e+00	   2.7955120e-01	   8.3109334e-02	
   6.1050000e+00	   2.9568280e-01	   8.0773695e-02	
   6.1600000e+00	   3.1107063e-01	   7.8283413e-02	
   6.2150000e+00	   3.2554458e-01	   7.5675831e-02	
   6.2700000e+00	   3.3897153e-01	   7.2989691e-02	
   6.3250000e+00	   3.5125924e-01	   7.0260790e-02	
   6.3800000e+00	   3.6236058e-01	   6.7519054e-02	
   6.4350000e+00	   3.7227585e-01	   6.4787968e-02	
   6.4900000e+00	   3.8104957e-01	   6.2085964e-02	
   6.5450000e+00	   3.8876013e-01	   5.9428581e-02	
   6.6000000e+00	   3.9550424e-01	   5.6830257e-02	
   6.6550000e+00	   4.0138067e-01	   5.4305030e-02	
   6.7100000e+00	   4.0647708e-01	   5.1866292e-02	
   6.7650000e+00	   4.1086108e-01	   4.9526246e-02	
   6.8200000e+00	   4.1457525e-01	   4.7295475e-02	
   6.8750000e+00	   4.1763564e-01	   4.5182193e-02	
   6.9300000e+00	   4.2003305e-01	   4.3190417e-02	
   6.9850000e+00	   4.2173715e-01	   4.1317078e-02	
   7.0400000e+00	   4.2270345e-01	   3.9549536e-02	
   7.0950000e+00	   4.2288270e-01	   3.7865480e-02	
   7.1500000e+00	   4.2223013e-01	   3.6235777e-02	
   7.2050000e+00	   4.2071165e-01	   3.4628837e-02	
   7.2600000e+00	   4.1830582e-01	   3.3014848e-02	
   7.3150000e+00	   4.1500359e-01	   3.1369012e-02	
   7.3700000e+00	   4.1080769e-01	   2.9673224e-02	
   7.4250000e+00	   4.0573198e-01	   2.7915967e-02	
   7.4800000e+00	   3.9980128e-01	   2.6090988e-02	
   7.5350000e+00	   3.9305307e-01	   2.4195286e-02	
   7.5900000e+00	   3.8554059e-01	   2.2226352e-02	
   7.6450000e+00	   3.7733527e-01	   2.0179065e-02	
   7.7000000e+00	   3.6852669e-01	   1.8043961e-02	
   7.7550000e+00	   3.5921979e-01	   1.5808565e-02	
   7.8100000e+00	   3.4953104e-01	   1.3461733e-02	
   7.8650000e+00	   3.3958554e-01	   1.0999054e-02	
   7.9200000e+00	   3.2951593e-01	   8.4270107e-03	
   7.9750000e+00	   3.1946246e-01	   5.7646863e-03	
   8.0300000e+00	   3.0957269e-01	   3.0427747e-03	
   8.0850000e+00	   3.0000002e-01	   3.0037797e-04	
   8.1400000e+00	   2.9090127e-01	  -2.4192947e-03	
   8.1950000e+00	   2.8243349e-01	  -5.0732423e-03	
   8.2500000e+00	   2.7474933e-01	  -7.6228345e-03	
   8.3050000e+00	   2.6799139e-01	  -1.0037929e-02	
   8.3600000e+00	   2.6228656e-01	  -1.2299711e-02	
   8.4150000e+00	   2.5774209e-01	  -1.4400181e-02	
   8.4700000e+00	   2.5444258e-01	  -1.6338142e-02	
   8.5250000e+00	   2.5244579e-01	  -1.8114360e-02	
   8.5800000e+00	   2.5177704e-01	  -1.9728701e-02	
   8.6350000e+00	   2.5242391e-01	  -2.1179831e-02	
   8.6900000e+00	   2.5433389e-01	  -2.2466437e-02	
   8.7450000e+00	   2.5741619e-01	  -2.3589139e-02	
   8.8000000e+00	   2.6154703e-01	  -2.4552681e-02	
   8.8550000e+00	   2.6657587e-01	  -2.5367724e-02	
   8.9100000e+00	   2.7233138e-01	  -2.6051297e-02	
   8.9650000e+00	   2.7862816e-01	  -2.6625541e-02	
   9.0200000e+00	   2.8527446e-01	  -2.7115024e-02	
   9.0750000e+00	   2.9208005e-01	  -2.7543302e-02	
   9.1300000e+00	   2.9886261e-01	  -2.7929746e-02	
   9.1850000e+00	   3.0545147e-01	  -2.8287846e-02	
   9.2400000e+00	   3.1168814e-01	  -2.8625930e-02	
   9.2950000e+00	   3.1742542e-01	  -2.8950082e-02	
   9.3500000e+00	   3.2252778e-01	  -2.9267724e-02	
   9.4050000e+00	   3.2687371e-01	  -2.9590487e-02	
   9.4600000e+00	   3.3035886e-01	  -2.9936005e-02	
   9.5150000e+00	   3.3289844e-01	  -3.0328582e-02	
   9.5700000e+00	   3.3442881e-01	  -3.0798143e-02	
   9.6250000e+00	   3.3490778e-01	  -3.1377170e-02	
   9.6800000e+00	   3.3431456e-01	  -3.2096655e-02	
   9.7350000e+00	   3.3264956e-01	  -3.2982672e-02	
   9.7900000e+00	   3.2993420e-01	  -3.4054004e-02	
   9.8450000e+00	   3.2621028e-01	  -3.5320503e-02	
   9.9000000e+00	   3.2153776e-01	  -3.6782457e-02	
   9.9550000e+00	   3.1599167e-01	  -3.8431896e-02	
   1.0010000e+01	   3.0965950e-01	  -4.0256139e-02	
   1.0065000e+01	   3.0263999e-01	  -4.2242837e-02	
   1.0120000e+01	   2.9504229e-01	  -4.4384904e-02	
   1.0175000e+01	   2.8698347e-01	  -4.6683428e-02	
   1.0230000e+01	   2.7858462e-01	  -4.9147151e-02	
   1.0285000e+01	   2.6996789e-01	  -5.1788528e-02	
   1.0340000e+01	   2.6125566e-01	  -5.4617908e-02	
   1.0395000e+01	   2.5256972e-01	  -5.7637925e-02	
   1.0450000e+01	   2.4402769e-01	  -6.0839765e-02	
   1.0505000e+01	   2.3573671e-01	  -6.4201638e-02	
   1.0560000e+01	   2.2778577e-01	  -6.7688960e-02	
   1.0615000e+01	   2.2023888e-01	  -7.1255735e-02	
   1.0670000e+01	   2.1313156e-01	  -7.4846770e-02	
   1.0725000e+01	   2.0647233e-01	  -7.8400544e-02	
   1.0780000e+01	   2.0024682e-01	  -8.1852969e-02	
   1.0835000e+01	   1.9442057e-01	  -8.5141963e-02	
   1.0890000e+01	   1.8893993e-01	  -8.8211462e-02	
   1.0945000e+01	   1.8373512e-01	  -9.1013143e-02	
   1.1000000e+01	   1.7872792e-01	  -9.3505704e-02	
   1.1055000e+01	   1.7384113e-01	  -9.5653526e-02	
   1.1110000e+01	   1.6900365e-01	  -9.7426645e-02	
   1.1165000e+01	   1.6414834e-01	  -9.8802431e-02	
   1.1220000e+01	   1.5920520e-01	  -9.9768410e-02	
   1.1275000e+01	   1.5409485e-01	  -1.0032584e-01	
   1.1330000e+01	   1.4872628e-01	  -1.0049344e-01	
   1.1385000e+01	   1.4299882e-01	  -1.0030987e-01	
   1.1440000e+01	   1.3680623e-01	  -9.9834182e-02	
   1.1495000e+01	   1.3004101e-01	  -9.9144084e-02	
   1.1550000e+01	   1.2259935e-01	  -9.8332763e-02	
   1.1605000e+01	   1.1438844e-01	  -9.7503597e-02	
   1.1660000e+01	   1.0533641e-01	  -9.6762288e-02	
   1.1715000e+01	   9.5402439e-02	  -9.6207235e-02	
   1.1770000e+01	   8.4583979e-02	  -9.5920260e-02	
   1.1825000e+01	   7.2919414e-02	  -9.5959848e-02	
   1.1880000e+01	   6.0485769e-02	  -9.6358226e-02	
   1.1935000e+01	   4.7391720e-02	  -9.7122504e-02	
   1.1990000e+01	   3.3767263e-02	  -9.8238754e-02	
   1.2045000e+01	   1.9752289e-02	  -9.9677441e-02	
   1.2100000e+01	   5.4857586e-03	  -1.0139951e-01	
   1.2155000e+01	  -8.9033196e-03	  -1.0336326e-01	
   1.2210000e+01	  -2.3301714e-02	  -1.0553172e-01	
   1.2265000e+01	  -3.7613056e-02	  -1.0787847e-01	
   1.2320000e+01	  -5.1752898e-02	  -1.1038942e-01	
   1.2375000e+01	  -6.5638257e-02	  -1.1305951e-01	
   1.2430000e+01	  -7.9175396e-02	  -1.1588636e-01	
   1.2485000e+01	  -9.2250953e-02	  -1.1886424e-01	
   1.2540000e+01	  -1.0472950e-01	  -1.2197942e-01	
   1.2595000e+01	  -1.1645834e-01	  -1.2520719e-01	
   1.2650000e+01	  -1.2727884e-01	  -1.2851052e-01	
   1.2705000e+01	  -1.3704070e-01	  -1.3184053e-01	
   1.2760000e+01	  -1.4561330e-01	  -1.3513781e-01	
   1.2815000e+01	  -1.5289147e-01	  -1.3833418e-01	
   1.2870000e+01	  -1.5879768e-01	  -1.4135502e-01	
   1.2925000e+01	  -1.6328302e-01	  -1.4412168e-01	
   1.2980000e+01	  -1.6632759e-01	  -1.4655287e-01	
   1.3035000e+01	  -1.6794010e-01	  -1.4856506e-01	
   1.3090000e+01	  -1.6815725e-01	  -1.5007334e-01	
   1.3145000e+01	  -1.6704178e-01	  -1.5099305e-01	
   1.3200000e+01	  -1.6467754e-01	  -1.5124202e-01	
   1.3255000e+01	  -1.6116116e-01	  -1.5074279e-01	
   1.3310000e+01	  -1.5659355e-01	  -1.4942546e-01	
   1.3365000e+01	  -1.5107436e-01	  -1.4723181e-01	
   1.3420000e+01	  -1.4469968e-01	  -1.4412071e-01	
   1.3475000e+01	  -1.3756200e-01	  -1.4007328e-01	
   1.3530000e+01	  -1.2975136e-01	  -1.3509558e-01	
   1.3585000e+01	  -1.2135645e-01	  -1.2921772e-01	
   1.3640000e+01	  -1.1246503e-01	  -1.2249007e-01	
   1.3695000e+01	  -1.0316415e-01	  -1.1497801e-01	
   1.3750000e+01	  -9.3542454e-02	  -1.0675666e-01	
   1.3805000e+01	  -8.3695260e-02	  -9.7907030e-02	
   1.3860000e+01	  -7.3730092e-02	  -8.8513704e-02	
   1.3915000e+01	  -6.3767886e-02	  -7.8663607e-02	
   1.3970000e+01	  -5.3938274e-02	  -6.8445560e-02	
   1.4025000e+01	  -4.4371480e-02	  -5.7951269e-02	
   1.4080000e+01	  -3.5189669e-02	  -4.7277343e-02	
   1.4135000e+01	  -2.6497969e-02	  -3.6526570e-02	
   1.4190000e+01	  -1.8374511e-02	  -2.5807095e-02	
   1.4245000e+01	  -1.0861214e-02	  -1.5229780e-02	
   1.4300000e+01	  -3.9586061e-03	  -4.9050505e-03	
   1.4355000e+01	   2.3741021e-03	   5.0595909e-03	
   1.4410000e+01	   8.2145492e-03	   1.4560852e-02	
   1.4465000e+01	   1.3668418e-02	   2.3499948e-02	
   1.4520000e+01	   1.8856394e-02	   3.1782561e-02	
   1.4575000e+01	   2.3898568e-02	   3.9318687e-02	
   1.4630000e+01	   2.8898047e-02	   4.6021832e-02	
   1.4685000e+01	   3.3924959e-02	   5.1807602e-02	
   1.4740000e+01	   3.9003390e-02	   5.6593310e-02	
   1.4795000e+01	   4.4105329e-02	   6.0300698e-02	
   1.4850000e+01	   4.9153897e-02	   6.2861997e-02	
   1.4905000e+01	   5.4033748e-02	   6.4227500e-02	
   1.4960000e+01	   5.8603866e-02	   6.4372484e-02	
   1.5015000e+01	   6.2709369e-02	   6.3302276e-02	
   1.5070000e+01	   6.6191861e-02	   6.1054746e-02	
   1.5125000e+01	   6.8899531e-02	   5.7699621e-02	
   1.5180000e+01	   7.0698273e-02	   5.3334564e-02	
   1.5235000e+01	   7.1483752e-02	   4.8078969e-02	
   1.5290000e+01	   7.1191944e-02	   4.2066645e-02	
   1.5345000e+01	   6.9804123e-02	   3.5438195e-02	
   1.5400000e+01	   6.7344223e-02	   2.8333779e-02	
   1.5455000e+01	   6.3870450e-02	   2.0887191e-02	
   1.5510000e+01	   5.9465238e-02	   1.3221957e-02	
   1.5565000e+01	   5.4226945e-02	   5.4494804e-03	
   1.5620000e+01	   4.8264127e-02	  -2.3314588e-03	
   1.5675000e+01	   4.1691277e-02	  -1.0034670e-02	
   1.5730000e+01	   3.4625221e-02	  -1.7586400e-02	
   1.5785000e+01	   2.7182440e-02	  -2.4925237e-02	
   1.5840000e+01	   1.9477458e-02	  -3.2002400e-02	
   1.5895000e+01	   1.1622754e-02	  -3.8782422e-02	
   1.5950000e+01	   3.7311072e-03	  -4.5243773e-02	
   1.6005000e+01	  -4.0806951e-03	  -5.1379166e-02	
   1.6060000e+01	  -1.1690588e-02	  -5.7195706e-02	
   1.6115000e+01	  -1.8975351e-02	  -6.2714500e-02	
   1.6170000e+01	  -2.5818914e-02	  -6.7968507e-02	
   1.6225000e+01	  -3.2120763e-02	  -7.2997865e-02	
   1.6280000e+01	  -3.7801379e-02	  -7.7843300e-02	
   1.6335000e+01	  -4.2804495e-02	  -8.2539061e-02	
   1.6390000e+01	  -4.7097440e-02	  -8.7106988e-02	
   1.6445000e+01	  -5.0670460e-02	  -9.1553277e-02	
   1.6500000e+01	  -5.3535610e-02	  -9.5868687e-02	
   1.6555000e+01	  -5.5725859e-02	  -1.0003152e-01	
   1.6610000e+01	  -5.7294655e-02	  -1.0401190e-01	
   1.6665000e+01	  -5.8316001e-02	  -1.0777645e-01	
   1.6720000e+01	  -5.8885142e-02	  -1.1129325e-01	
   1.6775000e+01	  -5.9119199e-02	  -1.1453679e-01	
   1.6830000e+01	  -5.9156408e-02	  -1.1749191e-01	
   1.6885000e+01	  -5.9153748e-02	  -1.2015589e-01	
   1.6940000e+01	  -5.9283476e-02	  -1.2253883e-01	
   1.6995000e+01	  -5.9728173e-02	  -1.2466253e-01	
   1.7050000e+01	  -6.0673830e-02	  -1.2655829e-01	
   1.7105000e+01	  -6.2301963e-02	  -1.2826438e-01	
   1.7160000e+01	  -6.4782619e-02	  -1.2982431e-01	
   1.7215000e+01	  -6.8268486e-02	  -1.3128662e-01	
   1.7270000e+01	  -7.2887951e-02	  -1.3270545e-01	
   1.7325000e+01	  -7.8735787e-02	  -1.3414074e-01	
   1.7380000e+01	  -8.5863367e-02	  -1.3565719e-01	
   1.7435000e+01	  -9.4271847e-02	  -1.3732218e-01	
   1.7490000e+01	  -1.0391038e-01	  -1.3920356e-01	
   1.7545000e+01	  -1.1467897e-01	  -1.4136780e-01	
   1.7600000e+01	  -1.2643421e-01	  -1.4387804e-01	
   1.7655000e+01	  -1.3899708e-01	  -1.4679147e-01	
   1.7710000e+01	  -1.5216232e-01	  -1.5015552e-01	
   1.7765000e+01	  -1.6570807e-01	  -1.5400342e-01	
   1.7820000e+01	  -1.7940520e-01	  -1.5835002e-01	
   1.7875000e+01	  -1.9302725e-01	  -1.6318913e-01	
   1.7930000e+01	  -2.0636158e-01	  -1.6849271e-01	
   1.7985000e+01	  -2.1921905e-01	  -1.7421118e-01	
   1.8040000e+01	  -2.3143980e-01	  -1.8027486e-01	
   1.8095000e+01	  -2.4289584e-01	  -1.8659783e-01	
   1.8150000e+01	  -2.5349341e-01	  -1.9308543e-01	
   1.8205000e+01	  -2.6317534e-01	  -1.9964430e-01	
   1.8260000e+01	  -2.7192100e-01	  -2.0619250e-01	
   1.8315000e+01	  -2.7974250e-01	  -2.1266735e-01	
   1.8370000e+01	  -2.8667848e-01	  -2.1902868e-01	
   1.8425000e+01	  -2.9278723e-01	  -2.2525618e-01	
   1.8480000e+01	  -2.9814061e-01	  -2.3134229e-01	
   1.8535000e+01	  -3.0281970e-01	  -2.3728381e-01	
   1.8590000e+01	  -3.0691222e-01	  -2.4307523e-01	
   1.8645000e+01	  -3.1050964e-01	  -2.4870456e-01	
   1.8700000e+01	  -3.1370370e-01	  -2.5415146e-01	
   1.8755000e+01	  -3.1658441e-01	  -2.5938806e-01	
   1.8810000e+01	  -3.1924150e-01	  -2.6438263e-01	
   1.8865000e+01	  -3.2176792e-01	  -2.6910542e-01	
   1.8920000e+01	  -3.2426205e-01	  -2.7353503e-01	
   1.8975000e+01	  -3.2682744e-01	  -2.7766337e-01	
   1.9030000e+01	  -3.2957165e-01	  -2.8149813e-01	
   1.9085000e+01	  -3.3260484e-01	  -2.8506245e-01	
   1.9140000e+01	  -3.3603702e-01	  -2.8839112e-01	
   1.9195000e+01	  -3.3997323e-01	  -2.9152331e-01	
   1.9250000e+01	  -3.4450884e-01	  -2.9449442e-01	
   1.9305000e+01	  -3.4972558e-01	  -2.9732957e-01	
   1.9360000e+01	  -3.5568699e-01	  -3.0004048e-01	
   1.9415000e+01	  -3.6243296e-01	  -3.0262564e-01	
   1.9470000e+01	  -3.6997551e-01	  -3.0507317e-01	
   1.9525000e+01	  -3.7829697e-01	  -3.0736468e-01	
   1.9580000e+01	  -3.8734986e-01	  -3.0947779e-01	
   1.9635000e+01	  -3.9705778e-01	  -3.1138700e-01	
   1.9690000e+01	  -4.0731713e-01	  -3.1306411e-01	
   1.9745000e+01	  -4.1799997e-01	  -3.1447869e-01	
   1.9800000e+01	  -4.2895873e-01	  -3.1559795e-01	
   1.9855000e+01	  -4.4003286e-01	  -3.1638599e-01	
   1.9910000e+01	  -4.5105726e-01	  -3.1680348e-01	
   1.9965000e+01	  -4.6187103e-01	  -3.1680886e-01	
   2.0020000e+01	  -4.7232466e-01	  -3.1636090e-01	
   2.0075000e+01	  -4.8228514e-01	  -3.1542237e-01	
   2.0130000e+01	  -4.9164081e-01	  -3.1396519e-01	
   2.0185000e+01	  -5.0030666e-01	  -3.1197695e-01	
   2.0240000e+01	  -5.0822756e-01	  -3.0946737e-01	
   2.0295000e+01	  -5.1537681e-01	  -3.0647289e-01	
   2.0350000e+01	  -5.2175000e-01	  -3.0305742e-01	
   2.0405000e+01	  -5.2735614e-01	  -2.9930878e-01	
   2.0460000e+01	  -5.3220809e-01	  -2.9533162e-01	
   2.0515000e+01	  -5.3631416e-01	  -2.9123814e-01	
   2.0570000e+01	  -5.3967264e-01	  -2.8713820e-01	
   2.0625000e+01	  -5.4227052e-01	  -2.8313075e-01	
   2.0680000e+01	  -5.4408519e-01	  -2.7929780e-01	
   2.0735000e+01	  -5.4508729e-01	  -2.7570082e-01	
   2.0790000e+01	  -5.4524487e-01	  -2.7237925e-01	
   2.0845000e+01	  -5.4452868e-01	  -2.6935049e-01	
   2.0900000e+01	  -5.4291713e-01	  -2.6661149e-01	
   2.0955000e+01	  -5.4039904e-01	  -2.6414063e-01	
   2.1010000e+01	  -5.3697483e-01	  -2.6189895e-01	
   2.1065000e+01	  -5.3265702e-01	  -2.5983076e-01	
   2.1120000e+01	  -5.2746874e-01	  -2.5786424e-01	
   2.1175000e+01	  -5.2143928e-01	  -2.5591281e-01	
   2.1230000e+01	  -5.1459859e-01	  -2.5387831e-01	
   2.1285000e+01	  -5.0697371e-01	  -2.5165688e-01	
   2.1340000e+01	  -4.9858788e-01	  -2.4914668e-01	
   2.1395000e+01	  -4.8946177e-01	  -2.4625595e-01	
   2.1450000e+01	  -4.7961646e-01	  -2.4291036e-01	
   2.1505000e+01	  -4.6907781e-01	  -2.3905986e-01	
   2.1560000e+01	  -4.5788054e-01	  -2.3468438e-01	
   2.1615000e+01	  -4.4607001e-01	  -2.2979699e-01	
   2.1670000e+01	  -4.3370138e-01	  -2.2444369e-01	
   2.1725000e+01	  -4.2083743e-01	  -2.1869922e-01	
   2.1780000e+01	  -4.0754604e-01	  -2.1265887e-01	
   2.1835000e+01	  -3.9389733e-01	  -2.0642703e-01	
   2.1890000e+01	  -3.7996131e-01	  -2.0010444e-01	
   2.1945000e+01	  -3.6580598e-01	  -1.9377663e-01	
   2.2000000e+01	  -3.5149619e-01	  -1.8750486e-01	
   2.2055000e+01	  -3.3709408e-01	  -1.8132037e-01	
   2.2110000e+01	  -3.2266212e-01	  -1.7522271e-01	
   2.2165000e+01	  -3.0826780e-01	  -1.6918305e-01	
   2.2220000e+01	  -2.9398797e-01	  -1.6315211e-01	
   2.2275000e+01	  -2.7991005e-01	  -1.5707041e-01	
   2.2330000e+01	  -2.6612810e-01	  -1.5087747e-01	
   2.2385000e+01	  -2.5273507e-01	  -1.4451741e-01	
   2.2440000e+01	  -2.3981477e-01	  -1.3794049e-01	
   2.2495000e+01	  -2.2743644e-01	  -1.3110153e-01	
   2.2550000e+01	  -2.1565229e-01	  -1.2395743e-01	
   2.2605000e+01	  -2.0449620e-01	  -1.1646562e-01	
   2.2660000e+01	  -1.9398135e-01	  -1.0858424e-01	
   2.2715000e+01	  -1.8409606e-01	  -1.0027346e-01	
   2.2770000e+01	  -1.7479923e-01	  -9.1496978e-02	
   2.2825000e+01	  -1.6601883e-01	  -8.2223782e-02	
   2.2880000e+01	  -1.5765572e-01	  -7.2431418e-02	
   2.2935000e+01	  -1.4959196e-01	  -6.2110662e-02	
   2.2990000e+01	  -1.4170070e-01	  -5.1270216e-02	
   2.3045000e+01	  -1.3385534e-01	  -3.9939997e-02	
   2.3100000e+01	  -1.2593775e-01	  -2.8172327e-02	
   2.3155000e+01	  -1.1784559e-01	  -1.6040240e-02	
   2.3210000e+01	  -1.0949843e-01	  -3.6321663e-03	
   2.3265000e+01	  -1.0084281e-01	   8.9559700e-03	
   2.3320000e+01	  -9.1857475e-02	   2.1628375e-02	
   2.3375000e+01	  -8.2558279e-02	   3.4294371e-02	
   2.3430000e+01	  -7.3000894e-02	   4.6870391e-02	
   2.3485000e+01	  -6.3280665e-02	   5.9279871e-02	
   2.3540000e+01	  -5.3530666e-02	   7.1451740e-02	
   2.3595000e+01	  -4.3919023e-02	   8.3317549e-02	
   2.3650000e+01	  -3.4644664e-02	   9.4807360e-02	
   2.3705000e+01	  -2.5930364e-02	   1.0584505e-01	
   2.3760000e+01	  -1.8013913e-02	   1.1634414e-01	
   2.3815000e+01	  -1.1138765e-02	   1.2620562e-01	
   2.3870000e+01	  -5.5429772e-03	   1.3531880e-01	
   2.3925000e+01	  -1.4441850e-03	   1.4356576e-01	
   2.3980000e+01	   9.7839669e-04	   1.5082859e-01	
   2.4035000e+01	   1.6004593e-03	   1.5699792e-01	
   2.4090000e+01	   3.6406755e-04	   1.6198095e-01	
   2.4145000e+01	  -2.7165411e-03	   1.6570823e-01	
   2.4200000e+01	  -7.5552858e-03	   1.6813912e-01	
   2.4255000e+01	  -1.4002344e-02	   1.6926563e-01	
   2.4310000e+01	  -2.1860288e-02	   1.6911404e-01	
   2.4365000e+01	  -3.0905408e-02	   1.6774422e-01	
   2.4420000e+01	  -4.0910173e-02	   1.6524585e-01	
   2.4475000e+01	  -5.1663534e-02	   1.6173146e-01	
   2.4530000e+01	  -6.2986389e-02	   1.5732775e-01	
   2.4585000e+01	  -7.4740131e-02	   1.5216727e-01	
   2.4640000e+01	  -8.6827637e-02	   1.4638134e-01	
   2.4695000e+01	  -9.9187711e-02	   1.4009509e-01	
   2.4750000e+01	  -1.1178476e-01	   1.3342537e-01	
   2.4805000e+01	  -1.2459574e-01	   1.2648194e-01	
   2.4860000e+01	  -1.3759734e-01	   1.1937074e-01	
   2.4915000e+01	  -1.5075644e-01	   1.1219668e-01	
   2.4970000e+01	  -1.6402513e-01	   1.0506422e-01	
   2.5025000e+01	  -1.7733936e-01	   9.8075779e-02	
   2.5080000e+01	  -1.9062112e-01	   9.1328480e-02	
   2.5135000e+01	  -2.0378434e-01	   8.4909685e-02	
   2.5190000e+01	  -2.1674181e-01	   7.8892069e-02	
   2.5245000e+01	  -2.2940903e-01	   7.3329746e-02	
   2.5300000e+01	  -2.4170394e-01	   6.8256007e-02	
   2.5355000e+01	  -2.5354529e-01	   6.3682315e-02	
   2.5410000e+01	  -2.6485147e-01	   5.9598914e-02	
   2.5465000e+01	  -2.7553959e-01	   5.5978253e-02	
   2.5520000e+01	  -2.8552573e-01	   5.2780992e-02	
   2.5575000e+01	  -2.9472717e-01	   4.9962573e-02	
   2.5630000e+01	  -3.0306557e-01	   4.7478530e-02	
   2.5685000e+01	  -3.1046963e-01	   4.5287997e-02	
   2.5740000e+01	  -3.1687709e-01	   4.3355347e-02	
   2.5795000e+01	  -3.2223766e-01	   4.1649940e-02	
   2.5850000e+01	  -3.2651707e-01	   4.0144180e-02	
   2.5905000e+01	  -3.2970080e-01	   3.8810823e-02	
   2.5960000e+01	  -3.3179553e-01	   3.7621388e-02	
   2.6015000e+01	  -3.3282771e-01	   3.6547194e-02	
   2.6070000e+01	  -3.3284043e-01	   3.5563176e-02	
   2.6125000e+01	  -3.3188993e-01	   3.4653838e-02	
   2.6180000e+01	  -3.3004255e-01	   3.3820333e-02	
   2.6235000e+01	  -3.2737237e-01	   3.3086752e-02	
   2.6290000e+01	  -3.2395878e-01	   3.2503398e-02	
   2.6345000e+01	  -3.1988359e-01	   3.2146254e-02	
   2.6400000e+01	  -3.1522653e-01	   3.2113426e-02	
   2.6455000e+01	  -3.1005888e-01	   3.2519228e-02	
   2.6510000e+01	  -3.0443774e-01	   3.3486022e-02	
   2.6565000e+01	  -2.9840453e-01	   3.5134470e-02	
   2.6620000e+01	  -2.9198881e-01	   3.7573675e-02	
   2.6675000e+01	  -2.8521432e-01	   4.0892701e-02	
   2.6730000e+01	  -2.7810455e-01	   4.5154559e-02	
   2.6785000e+01	  -2.7068743e-01	   5.0393441e-02	
   2.6840000e+01	  -2.6299877e-01	   5.6615173e-02	
   2.6895000e+01	  -2.5508440e-01	   6.3799517e-02	
   2.6950000e+01	  -2.4700143e-01	   7.1902413e-02	
   2.7005000e+01	  -2.3881931e-01	   8.0857368e-02	
   2.7060000e+01	  -2.3061984e-01	   9.0576541e-02	
   2.7115000e+01	  -2.2249504e-01	   1.0095261e-01	
   2.7170000e+01	  -2.1454349e-01	   1.1186214e-01	
   2.7225000e+01	  -2.0686565e-01	   1.2317027e-01	
   2.7280000e+01	  -1.9955986e-01	   1.3473587e-01	
   2.7335000e+01	  -1.9271946e-01	   1.4641633e-01	
   2.7390000e+01	  -1.8643060e-01	   1.5807213e-01	
   2.7445000e+01	  -1.8076955e-01	   1.6957114e-01	
   2.7500000e+01	  -1.7579806e-01	   1.8079289e-01	
   2.7555000e+01	  -1.7155669e-01	   1.9163249e-01	
   2.7610000e+01	  -1.6805740e-01	   2.0200411e-01	
   2.7665000e+01	  -1.6527815e-01	   2.1184413e-01	
   2.7720000e+01	  -1.6316128e-01	   2.2111369e-01	
   2.7775000e+01	  -1.6161527e-01	   2.2979993e-01	
   2.7830000e+01	  -1.6051866e-01	   2.3791445e-01	
   2.7885000e+01	  -1.5972638e-01	   2.4548808e-01	
   2.7940000e+01	  -1.5907881e-01	   2.5256372e-01	
   2.7995000e+01	  -1.5841359e-01	   2.5918960e-01	
   2.8050000e+01	  -1.5757939e-01	   2.6541398e-01	
   2.8105000e+01	  -1.5645060e-01	   2.7128038e-01	
   2.8160000e+01	  -1.5494078e-01	   2.7682380e-01	
   2.8215000e+01	  -1.5301153e-01	   2.8206939e-01	
   2.8270000e+01	  -1.5067382e-01	   2.8703477e-01	
   2.8325000e+01	  -1.4798067e-01	   2.9173481e-01	
   2.8380000e+01	  -1.4501256e-01	   2.9618638e-01	
   2.8435000e+01	  -1.4185897e-01	   3.0041158e-01	
   2.8490000e+01	  -1.3859979e-01	   3.0443882e-01	
   2.8545000e+01	  -1.3529151e-01	   3.0830127e-01	
   2.8600000e+01	  -1.3196142e-01	   3.1203254e-01	
   2.8655000e+01	  -1.2861014e-01	   3.1566030e-01	
   2.8710000e+01	  -1.2521987e-01	   3.1919958e-01	
   2.8765000e+01	  -1.2176584e-01	   3.2264713e-01	
   2.8820000e+01	  -1.1822736e-01	   3.2597788e-01	
   2.8875000e+01	  -1.1459461e-01	   3.2914533e-01	
   2.8930000e+01	  -1.1086952e-01	   3.3208579e-01	
   2.8985000e+01	  -1.0706202e-01	   3.3472519e-01	
   2.9040000e+01	  -1.0318487e-01	   3.3698660e-01	
   2.9095000e+01	  -9.9248910e-02	   3.3879730e-01	
   2.9150000e+01	  -9.5259160e-02	   3.4009402e-01	
   2.9205000e+01	  -9.1212173e-02	   3.4082498e-01	
   2.9260000e+01	  -8.7097293e-02	   3.4094810e-01	
   2.9315000e+01	  -8.2902979e-02	   3.4042621e-01	
   2.9370000e+01	  -7.8625423e-02	   3.3922136e-01	
   2.9425000e+01	  -7.4274909e-02	   3.3729011e-01	
   2.9480000e+01	  -6.9877991e-02	   3.3458141e-01	
   2.9535000e+01	  -6.5476415e-02	   3.3103771e-01	
   2.9590000e+01	  -6.1123615e-02	   3.2659882e-01	
   2.9645000e+01	  -5.6879021e-02	   3.2120699e-01	
   2.9700000e+01	  -5.2801191e-02	   3.1481200e-01	
   2.9755000e+01	  -4.8940374e-02	   3.0737625e-01	
   2.9810000e+01	  -4.5329635e-02	   2.9888094e-01	
   2.9865000e+01	  -4.1974557e-02	   2.8933265e-01	
   2.9920000e+01	  -3.8844580e-02	   2.7876859e-01	
   2.9975000e+01	  -3.5869398e-02	   2.6725888e-01	
   3.0030000e+01	  -3.2940667e-02	   2.5490598e-01	
   3.0085000e+01	  -2.9916988e-02	   2.4184299e-01	
   3.0140000e+01	  -2.6631261e-02	   2.2823185e-01	
   3.0195000e+01	  -2.2900519e-02	   2.1426190e-01	
   3.0250000e+01	  -1.8537176e-02	   2.0014857e-01	
   3.0305000e+01	  -1.3359364e-02	   1.8613071e-01	
   3.0360000e+01	  -7.1987010e-03	   1.7246468e-01	
   3.0415000e+01	   9.4080900e-05	   1.5941436e-01	
   3.0470000e+01	   8.6433505e-03	   1.4723779e-01	
   3.0525000e+01	   1.8540553e-02	   1.3617243e-01	
   3.0580000e+01	   2.9833918e-02	   1.2642080e-01	
   3.0635000e+01	   4.2518117e-02	   1.1813825e-01	
   3.0690000e+01	   5.6527979e-02	   1.1142426e-01	
   3.0745000e+01	   7.1740218e-02	   1.0631876e-01	
   3.0800000e+01	   8.7983398e-02	   1.0280414e-01	
   3.0855000e+01	   1.0505235e-01	   1.0081177e-01	
   3.0910000e+01	   1.2272359e-01	   1.0023138e-01	
   3.0965000e+01	   1.4077097e-01	   1.0092202e-01	
   3.1020000e+01	   1.5898132e-01	   1.0272311e-01	
   3.1075000e+01	   1.7716666e-01	   1.0546366e-01	
   3.1130000e+01	   1.9516933e-01	   1.0896841e-01	
   3.1185000e+01	   2.1285948e-01	   1.1306100e-01	
   3.1240000e+01	   2.3012838e-01	   1.1756514e-01	
   3.1295000e+01	   2.4688079e-01	   1.2230472e-01	
   3.1350000e+01	   2.6302907e-01	   1.2710378e-01	
   3.1405000e+01	   2.7849113e-01	   1.3178802e-01	
   3.1460000e+01	   2.9319177e-01	   1.3618904e-01	
   3.1515000e+01	   3.0706434e-01	   1.4015054e-01	
   3.1570000e+01	   3.2005134e-01	   1.4353480e-01	
   3.1625000e+01	   3.3210413e-01	   1.4622740e-01	
   3.1680000e+01	   3.4318201e-01	   1.4813907e-01	
   3.1735000e+01	   3.5325056e-01	   1.4920467e-01	
   3.1790000e+01	   3.6228120e-01	   1.4937990e-01	
   3.1845000e+01	   3.7025357e-01	   1.4863718e-01	
   3.1900000e+01	   3.7715906e-01	   1.4696153e-01	
   3.1955000e+01	   3.8300228e-01	   1.4434675e-01	
   3.2010000e+01	   3.8780003e-01	   1.4079223e-01	
   3.2065000e+01	   3.9157959e-01	   1.3630155e-01	
   3.2120000e+01	   3.9437709e-01	   1.3088434e-01	
   3.2175000e+01	   3.9623547e-01	   1.2456058e-01	
   3.2230000e+01	   3.9720237e-01	   1.1736569e-01	
   3.2285000e+01	   3.9732969e-01	   1.0935470e-01	
   3.2340000e+01	   3.9667498e-01	   1.0060453e-01	
   3.2395000e+01	   3.9530138e-01	   9.1213444e-02	
   3.2450000e+01	   3.9327378e-01	   8.1297438e-02	
   3.2505000e+01	   3.9065246e-01	   7.0984309e-02	
   3.2560000e+01	   3.8748785e-01	   6.0406372e-02	
   3.2615000e+01	   3.8381881e-01	   4.9693072e-02	
   3.2670000e+01	   3.7967451e-01	   3.8964089e-02	
   3.2725000e+01	   3.7507998e-01	   2.8323441e-02	
   3.2780000e+01	   3.7006529e-01	   1.7855098e-02	
   3.2835000e+01	   3.6467623e-01	   7.6202747e-03	
   3.2890000e+01	   3.5898284e-01	  -2.3439271e-03	
   3.2945000e+01	   3.5308456e-01	  -1.2024517e-02	
   3.3000000e+01	   3.4711278e-01	  -2.1430421e-02	
   3.3055000e+01	   3.4123158e-01	  -3.0587695e-02	
   3.3110000e+01	   3.3563540e-01	  -3.9533385e-02	
   3.3165000e+01	   3.3054232e-01	  -4.8309822e-02	
   3.3220000e+01	   3.2618283e-01	  -5.6960082e-02	
   3.3275000e+01	   3.2278500e-01	  -6.5524451e-02	
   3.3330000e+01	   3.2055889e-01	  -7.4037480e-02	
   3.3385000e+01	   3.1968361e-01	  -8.2524925e-02	
   3.3440000e+01	   3.2029982e-01	  -9.1000180e-02	
   3.3495000e+01	   3.2250701e-01	  -9.9461130e-02	
   3.3550000e+01	   3.2636272e-01	  -1.0788902e-01	
   3.3605000e+01	   3.3188097e-01	  -1.1624992e-01	
   3.3660000e+01	   3.3903022e-01	  -1.2449771e-01	
   3.3715000e+01	   3.4773147e-01	  -1.3257760e-01	
   3.3770000e+01	   3.5785706e-01	  -1.4043019e-01	
   3.3825000e+01	   3.6922975e-01	  -1.4799654e-01	
   3.3880000e+01	   3.8162264e-01	  -1.5522341e-01	
   3.3935000e+01	   3.9476194e-01	  -1.6206686e-01	
   3.3990000e+01	   4.0833383e-01	  -1.6849292e-01	
   3.4045000e+01	   4.2199543e-01	  -1.7447563e-01	
   3.4100000e+01	   4.3538992e-01	  -1.7999295e-01	
   3.4155000e+01	   4.4816735e-01	  -1.8502144e-01	
   3.4210000e+01	   4.6001047e-01	  -1.8953094e-01	
   3.4265000e+01	   4.7066043e-01	  -1.9348103e-01	
   3.4320000e+01	   4.7993578e-01	  -1.9682054e-01	
   3.4375000e+01	   4.8774049e-01	  -1.9948995e-01	
   3.4430000e+01	   4.9406074e-01	  -2.0142645e-01	
   3.4485000e+01	   4.9895290e-01	  -2.0257101e-01	
   3.4540000e+01	   5.0252697e-01	  -2.0287611e-01	
   3.4595000e+01	   5.0493022e-01	  -2.0231246e-01	
   3.4650000e+01	   5.0633366e-01	  -2.0087390e-01	
   3.4705000e+01	   5.0692102e-01	  -1.9857964e-01	
   3.4760000e+01	   5.0687926e-01	  -1.9547410e-01	
   3.4815000e+01	   5.0639146e-01	  -1.9162445e-01	
   3.4870000e+01	   5.0563259e-01	  -1.8711701e-01	
   3.4925000e+01	   5.0476590e-01	  -1.8205373e-01	
   3.4980000e+01	   5.0393858e-01	  -1.7654894e-01	
   3.5035000e+01	   5.0327811e-01	  -1.7072607e-01	
   3.5090000e+01	   5.0289087e-01	  -1.6471393e-01	
   3.5145000e+01	   5.0286280e-01	  -1.5864301e-01	
   3.5200000e+01	   5.0326155e-01	  -1.5264226e-01	
   3.5255000e+01	   5.0414076e-01	  -1.4683580e-01	
   3.5310000e+01	   5.0554662e-01	  -1.4133882e-01	
   3.5365000e+01	   5.0752471e-01	  -1.3625237e-01	
   3.5420000e+01	   5.1012350e-01	  -1.3165790e-01	
   3.5475000e+01	   5.1339197e-01	  -1.2761179e-01	
   3.5530000e+01	   5.1737176e-01	  -1.2414031e-01	
   3.5585000e+01	   5.2208757e-01	  -1.2123588e-01	
   3.5640000e+01	   5.2754031e-01	  -1.1885610e-01	
   3.5695000e+01	   5.3370623e-01	  -1.1692616e-01	
   3.5750000e+01	   5.4054129e-01	  -1.1534458e-01	
   3.5805000e+01	   5.4798681e-01	  -1.1399129e-01	
   3.5860000e+01	   5.5597338e-01	  -1.1273725e-01	
   3.5915000e+01	   5.6442335e-01	  -1.1145383e-01	
   3.5970000e+01	   5.7325323e-01	  -1.1002149e-01	
   3.6025000e+01	   5.8237506e-01	  -1.0833787e-01	
   3.6080000e+01	   5.9169522e-01	  -1.0632524e-01	
   3.6135000e+01	   6.0111014e-01	  -1.0393645e-01	
   3.6190000e+01	   6.1050094e-01	  -1.0115776e-01	
   3.6245000e+01	   6.1973010e-01	  -9.8007571e-02	
   3.6300000e+01	   6.2864173e-01	  -9.4531862e-02	
   3.6355000e+01	   6.3706569e-01	  -9.0797713e-02	
   3.6410000e+01	   6.4482406e-01	  -8.6886730e-02	
   3.6465000e+01	   6.5173818e-01	  -8.2889521e-02	
   3.6520000e+01	   6.5763512e-01	  -7.8902094e-02	
   3.6575000e+01	   6.6235417e-01	  -7.5023833e-02	
   3.6630000e+01	   6.6575423e-01	  -7.1355798e-02	
   3.6685000e+01	   6.6772108e-01	  -6.7998497e-02	
   3.6740000e+01	   6.6817321e-01	  -6.5049056e-02	
   3.6795000e+01	   6.6706566e-01	  -6.2597852e-02	
   3.6850000e+01	   6.6439146e-01	  -6.0724905e-02	
   3.6905000e+01	   6.6018003e-01	  -5.9496822e-02	
   3.6960000e+01	   6.5449200e-01	  -5.8964984e-02	
   3.7015000e+01	   6.4741190e-01	  -5.9164740e-02	
   3.7070000e+01	   6.3904117e-01	  -6.0115004e-02	
   3.7125000e+01	   6.2949365e-01	  -6.1818165e-02	
   3.7180000e+01	   6.1889393e-01	  -6.4260512e-02	
   3.7235000e+01	   6.0737653e-01	  -6.7413384e-02	
   3.7290000e+01	   5.9508390e-01	  -7.1235541e-02	
   3.7345000e+01	   5.8216270e-01	  -7.5677307e-02	
   3.7400000e+01	   5.6875931e-01	  -8.0685716e-02	
   3.7455000e+01	   5.5501555e-01	  -8.6208502e-02	
   3.7510000e+01	   5.4106585e-01	  -9.2195232e-02	
   3.7565000e+01	   5.2703676e-01	  -9.8595790e-02	
   3.7620000e+01	   5.1304725e-01	  -1.0535804e-01	
   3.7675000e+01	   4.9920782e-01	  -1.1242667e-01	
   3.7730000e+01	   4.8561812e-01	  -1.1974381e-01	
   3.7785000e+01	   4.7236392e-01	  -1.2725104e-01	
   3.7840000e+01	   4.5951262e-01	  -1.3489163e-01	
   3.7895000e+01	   4.4710695e-01	  -1.4261296e-01	
   3.7950000e+01	   4.3515910e-01	  -1.5036881e-01	
   3.8005000e+01	   4.2364991e-01	  -1.5812061e-01	
   3.8060000e+01	   4.1253465e-01	  -1.6583663e-01	
   3.8115000e+01	   4.0175399e-01	  -1.7348885e-01	
   3.8170000e+01	   3.9124721e-01	  -1.8104881e-01	
   3.8225000e+01	   3.8096525e-01	  -1.8848479e-01	
   3.8280000e+01	   3.7087954e-01	  -1.9576171e-01	
   3.8335000e+01	   3.6098318e-01	  -2.0284353e-01	
   3.8390000e+01	   3.5128468e-01	  -2.0969641e-01	
   3.8445000e+01	   3.4179790e-01	  -2.1629136e-01	
   3.8500000e+01	   3.3253162e-01	  -2.2260599e-01	
   3.8555000e+01	   3.2348132e-01	  -2.2862629e-01	
   3.8610000e+01	   3.1462474e-01	  -2.3434890e-01	
   3.8665000e+01	   3.0592184e-01	  -2.3978267e-01	
   3.8720000e+01	   2.9731692e-01	  -2.4494857e-01	
   3.8775000e+01	   2.8873966e-01	  -2.4987831e-01	
   3.8830000e+01	   2.8010445e-01	  -2.5461254e-01	
   3.8885000e+01	   2.7131093e-01	  -2.5919868e-01	
   3.8940000e+01	   2.6224804e-01	  -2.6368754e-01	
   3.8995000e+01	   2.5280236e-01	  -2.6812884e-01	
   3.9050000e+01	   2.4287018e-01	  -2.7256655e-01	
   3.9105000e+01	   2.3237073e-01	  -2.7703477e-01	
   3.9160000e+01	   2.2125731e-01	  -2.8155416e-01	
   3.9215000e+01	   2.0952376e-01	  -2.8612896e-01	
   3.9270000e+01	   1.9720582e-01	  -2.9074440e-01	
   3.9325000e+01	   1.8437866e-01	  -2.9536363e-01	
   3.9380000e+01	   1.7115149e-01	  -2.9992458e-01	
   3.9435000e+01	   1.5765886e-01	  -3.0433845e-01	
   3.9490000e+01	   1.4404916e-01	  -3.0849203e-01	
   3.9545000e+01	   1.3047250e-01	  -3.1225438e-01	
   3.9600000e+01	   1.1707135e-01	  -3.1548621e-01	
   3.9655000e+01	   1.0397540e-01	  -3.1805015e-01	
   3.9710000e+01	   9.1298318e-02	  -3.1982134e-01	
   3.9765000e+01	   7.9133126e-02	  -3.2069794e-01	
   3.9820000e+01	   6.7546928e-02	  -3.2061047e-01	
   3.9875000e+01	   5.6578236e-02	  -3.1952816e-01	
   3.9930000e+01	   4.6238808e-02	  -3.1746102e-01	
   3.9985000e+01	   3.6519115e-02	  -3.1445764e-01	
   4.0040000e+01	   2.7395610e-02	  -3.1059891e-01	
   4.0095000e+01	   1.8837823e-02	  -3.0598938e-01	
   4.0150000e+01	   1.0813782e-02	  -3.0074817e-01	
   4.0205000e+01	   3.2935863e-03	  -2.9500067e-01	
   4.0260000e+01	  -3.7480686e-03	  -2.8887106e-01	
   4.0315000e+01	  -1.0330012e-02	  -2.8247697e-01	
   4.0370000e+01	  -1.6463823e-02	  -2.7592792e-01	
   4.0425000e+01	  -2.2154450e-02	  -2.6932786e-01	
   4.0480000e+01	  -2.7401537e-02	  -2.6277929e-01	
   4.0535000e+01	  -3.2200683e-02	  -2.5638632e-01	
   4.0590000e+01	  -3.6544940e-02	  -2.5025469e-01	
   4.0645000e+01	  -4.0427239e-02	  -2.4448874e-01	
   4.0700000e+01	  -4.3843602e-02	  -2.3918657e-01	
   4.0755000e+01	  -4.6796641e-02	  -2.3443492e-01	
   4.0810000e+01	  -4.9298717e-02	  -2.3030556e-01	
   4.0865000e+01	  -5.1373843e-02	  -2.2685300e-01	
   4.0920000e+01	  -5.3057464e-02	  -2.2411350e-01	
   4.0975000e+01	  -5.4394438e-02	  -2.2210530e-01	
   4.1030000e+01	  -5.5436844e-02	  -2.2083080e-01	
   4.1085000e+01	  -5.6242883e-02	  -2.2028062e-01	
   4.1140000e+01	  -5.6875827e-02	  -2.2043718e-01	
   4.1195000e+01	  -5.7400755e-02	  -2.2127436e-01	
   4.1250000e+01	  -5.7878995e-02	  -2.2275258e-01	
   4.1305000e+01	  -5.8362647e-02	  -2.2481141e-01	
   4.1360000e+01	  -5.8890639e-02	  -2.2736330e-01	
   4.1415000e+01	  -5.9486011e-02	  -2.3029046e-01	
   4.1470000e+01	  -6.0155245e-02	  -2.3344588e-01	
   4.1525000e+01	  -6.0891523e-02	  -2.3665879e-01	
   4.1580000e+01	  -6.1681457e-02	  -2.3974329e-01	
   4.1635000e+01	  -6.2512541e-02	  -2.4250881e-01	
   4.1690000e+01	  -6.3379704e-02	  -2.4477098e-01	
   4.1745000e+01	  -6.4290374e-02	  -2.4636202e-01	
   4.1800000e+01	  -6.5266298e-02	  -2.4713864e-01	
   4.1855000e+01	  -6.6340761e-02	  -2.4698632e-01	
   4.1910000e+01	  -6.7553370e-02	  -2.4582044e-01	
   4.1965000e+01	  -6.8946447e-02	  -2.4358646e-01	
   4.2020000e+01	  -7.0563969e-02	  -2.4026034e-01	
   4.2075000e+01	  -7.2450344e-02	  -2.3584839e-01	
   4.2130000e+01	  -7.4646393e-02	  -2.3038573e-01	
   4.2185000e+01	  -7.7182260e-02	  -2.2393340e-01	
   4.2240000e+01	  -8.0068492e-02	  -2.1657477e-01	
   4.2295000e+01	  -8.3286684e-02	  -2.0841228e-01	
   4.2350000e+01	  -8.6781030e-02	  -1.9956418e-01	
   4.2405000e+01	  -9.0452218e-02	  -1.9016093e-01	
   4.2460000e+01	  -9.4154777e-02	  -1.8034030e-01	
   4.2515000e+01	  -9.7698725e-02	  -1.7024029e-01	
   4.2570000e+01	  -1.0085626e-01	  -1.5999082e-01	
   4.2625000e+01	  -1.0337305e-01	  -1.4970572e-01	
   4.2680000e+01	  -1.0498202e-01	  -1.3947621e-01	
   4.2735000e+01	  -1.0541734e-01	  -1.2936703e-01	
   4.2790000e+01	  -1.0442828e-01	  -1.1941604e-01	
   4.2845000e+01	  -1.0179443e-01	  -1.0963756e-01	
   4.2900000e+01	  -9.7343490e-02	  -1.0002850e-01	
   4.2955000e+01	  -9.0968583e-02	  -9.0575928e-02	
   4.3010000e+01	  -8.2641235e-02	  -8.1264629e-02	
   4.3065000e+01	  -7.2418231e-02	  -7.2083490e-02	
   4.3120000e+01	  -6.0441963e-02	  -6.3029876e-02	
   4.3175000e+01	  -4.6932993e-02	  -5.4111037e-02	
   4.3230000e+01	  -3.2174268e-02	  -4.5341642e-02	
   4.3285000e+01	  -1.6490151e-02	  -3.6737665e-02	
   4.3340000e+01	  -2.2546204e-04	  -2.8308477e-02	
   4.3395000e+01	   1.6273370e-02	  -2.0049480e-02	
   4.3450000e+01	   3.2676196e-02	  -1.1936937e-02	
   4.3505000e+01	   4.8685563e-02	  -3.9263122e-03	
   4.3560000e+01	   6.4048691e-02	   4.0448778e-03	
   4.3615000e+01	   7.8563545e-02	   1.2050122e-02	
   4.3670000e+01	   9.2079737e-02	   2.0164647e-02	
   4.3725000e+01	   1.0449429e-01	   2.8455474e-02	
   4.3780000e+01	   1.1574177e-01	   3.6972224e-02	
   4.3835000e+01	   1.2578081e-01	   4.5740636e-02	
   4.3890000e+01	   1.3458125e-01	   5.4760346e-02	
   4.3945000e+01	   1.4211562e-01	   6.4006724e-02	
   4.4000000e+01	   1.4835644e-01	   7.3435843e-02	
   4.4055000e+01	   1.5327906e-01	   8.2991754e-02	
   4.4110000e+01	   1.5686794e-01	   9.2614430e-02	
   4.4165000e+01	   1.5912339e-01	   1.0224604e-01	
   4.4220000e+01	   1.6006668e-01	   1.1183442e-01	
   4.4275000e+01	   1.5974292e-01	   1.2133450e-01	
   4.4330000e+01	   1.5822260e-01	   1.3070868e-01	
   4.4385000e+01	   1.5560215e-01	   1.3992645e-01	
   4.4440000e+01	   1.5200461e-01	   1.4896291e-01	
   4.4495000e+01	   1.4757957e-01	   1.5779596e-01	
   4.4550000e+01	   1.4250083e-01	   1.6640238e-01	
   4.4605000e+01	   1.3695975e-01	   1.7475377e-01	
   4.4660000e+01	   1.3115485e-01	   1.8281348e-01	
   4.4715000e+01	   1.2528067e-01	   1.9053572e-01	
   4.4770000e+01	   1.1951904e-01	   1.9786804e-01	
   4.4825000e+01	   1.1403402e-01	   2.0475697e-01	
   4.4880000e+01	   1.0896874e-01	   2.1115478e-01	
   4.4935000e+01	   1.0444216e-01	   2.1702534e-01	
   4.4990000e+01	   1.0054583e-01	   2.2234787e-01	
   4.5045000e+01	   9.7341757e-02	   2.2711875e-01	
   4.5100000e+01	   9.4860752e-02	   2.3135066e-01	
   4.5155000e+01	   9.3100981e-02	   2.3506931e-01	
   4.5210000e+01	   9.2028554e-02	   2.3830874e-01	
   4.5265000e+01	   9.1581700e-02	   2.4110671e-01	
   4.5320000e+01	   9.1677480e-02	   2.4350046e-01	
   4.5375000e+01	   9.2219379e-02	   2.4552368e-01	
   4.5430000e+01	   9.3105362e-02	   2.4720531e-01	
   4.5485000e+01	   9.4236037e-02	   2.4857038e-01	
   4.5540000e+01	   9.5522327e-02	   2.4964240e-01	
   4.5595000e+01	   9.6892749e-02	   2.5044575e-01	
   4.5650000e+01	   9.8300145e-02	   2.5100670e-01	
   4.5705000e+01	   9.9725530e-02	   2.5135264e-01	
   4.5760000e+01	   1.0117569e-01	   2.5150953e-01	
   4.5815000e+01	   1.0267363e-01	   2.5149780e-01	
   4.5870000e+01	   1.0424519e-01	   2.5132748e-01	
   4.5925000e+01	   1.0590736e-01	   2.5099323e-01	
   4.5980000e+01	   1.0766073e-01	   2.5046910e-01	
   4.6035000e+01	   1.0948456e-01	   2.4970303e-01	
   4.6090000e+01	   1.1133295e-01	   2.4861301e-01	
   4.6145000e+01	   1.1313305e-01	   2.4708656e-01	
   4.6200000e+01	   1.1478601e-01	   2.4498470e-01	
   4.6255000e+01	   1.1617000e-01	   2.4215052e-01	
   4.6310000e+01	   1.1714534e-01	   2.3842191e-01	
   4.6365000e+01	   1.1756236e-01	   2.3364645e-01	
   4.6420000e+01	   1.1727134e-01	   2.2769550e-01	
   4.6475000e+01	   1.1613284e-01	   2.2047537e-01	
   4.6530000e+01	   1.1402731e-01	   2.1193464e-01	
   4.6585000e+01	   1.1086377e-01	   2.0206775e-01	
   4.6640000e+01	   1.0658641e-01	   1.9091483e-01	
   4.6695000e+01	   1.0117754e-01	   1.7855802e-01	
   4.6750000e+01	   9.4655509e-02	   1.6511465e-01	
   4.6805000e+01	   8.7068246e-02	   1.5072857e-01	
   4.6860000e+01	   7.8484160e-02	   1.3556164e-01	
   4.6915000e+01	   6.8982928e-02	   1.1978694e-01	
   4.6970000e+01	   5.8648153e-02	   1.0358425e-01	
   4.7025000e+01	   4.7562467e-02	   8.7138007e-02	
   4.7080000e+01	   3.5804493e-02	   7.0636065e-02	
   4.7135000e+01	   2.3447086e-02	   5.4267486e-02	
   4.7190000e+01	   1.0557346e-02	   3.8218541e-02	
   4.7245000e+01	  -2.8000519e-03	   2.2667788e-02	
   4.7300000e+01	  -1.6556085e-02	   7.7809769e-03	
   4.7355000e+01	  -3.0629981e-02	  -6.2947262e-03	
   4.7410000e+01	  -4.4924953e-02	  -1.9437869e-02	
   4.7465000e+01	  -5.9328787e-02	  -3.1560079e-02	
   4.7520000e+01	  -7.3717893e-02	  -4.2610997e-02	
   4.7575000e+01	  -8.7961243e-02	  -5.2578413e-02	
   4.7630000e+01	  -1.0192118e-01	  -6.1483024e-02	
   4.7685000e+01	  -1.1545110e-01	  -6.9369205e-02	
   4.7740000e+01	  -1.2839246e-01	  -7.6294707e-02	
   4.7795000e+01	  -1.4057411e-01	  -8.2322363e-02	
   4.7850000e+01	  -1.5181634e-01	  -8.7515710e-02	
   4.7905000e+01	  -1.6193979e-01	  -9.1938349e-02	
   4.7960000e+01	  -1.7077665e-01	  -9.5655456e-02	
   4.8015000e+01	  -1.7818106e-01	  -9.8735824e-02	
   4.8070000e+01	  -1.8403773e-01	  -1.0125325e-01	
   4.8125000e+01	  -1.8826826e-01	  -1.0328651e-01	
   4.8180000e+01	  -1.9083366e-01	  -1.0491772e-01	
   4.8235000e+01	  -1.9173255e-01	  -1.0622928e-01	
   4.8290000e+01	  -1.9099584e-01	  -1.0730063e-01	
   4.8345000e+01	  -1.8867912e-01	  -1.0820586e-01	
   4.8400000e+01	  -1.8485369e-01	  -1.0901277e-01	
   4.8455000e+01	  -1.7959837e-01	  -1.0978288e-01	
   4.8510000e+01	  -1.7299526e-01	  -1.1057210e-01	
   4.8565000e+01	  -1.6513029e-01	  -1.1143179e-01	
   4.8620000e+01	  -1.5609599e-01	  -1.1241007e-01	
   4.8675000e+01	  -1.4599249e-01	  -1.1355278e-01	
   4.8730000e+01	  -1.3492608e-01	  -1.1490369e-01	
   4.8785000e+01	  -1.2300653e-01	  -1.1650313e-01	
   4.8840000e+01	  -1.1034486e-01	  -1.1838422e-01	
   4.8895000e+01	  -9.7052740e-02	  -1.2056731e-01	
   4.8950000e+01	  -8.3243567e-02	  -1.2305458e-01	
   4.9005000e+01	  -6.9033734e-02	  -1.2582752e-01	
   4.9060000e+01	  -5.4541230e-02	  -1.2884746e-01	
   4.9115000e+01	  -3.9880834e-02	  -1.3205857e-01	
   4.9170000e+01	  -2.5158199e-02	  -1.3539252e-01	
   4.9225000e+01	  -1.0465600e-02	  -1.3877450e-01	
   4.9280000e+01	   4.1203979e-03	  -1.4213030e-01	
   4.9335000e+01	   1.8540114e-02	  -1.4539291e-01	
   4.9390000e+01	   3.2750695e-02	  -1.4850698e-01	
   4.9445000e+01	   4.6724864e-02	  -1.5142966e-01	
   4.9500000e+01	   6.0449255e-02	  -1.5412723e-01	
   4.9555000e+01	   7.3922562e-02	  -1.5656914e-01	
   4.9610000e+01	   8.7153027e-02	  -1.5872227e-01	
   4.9665000e+01	   1.0015510e-01	  -1.6054800e-01	
   4.9720000e+01	   1.1294572e-01	  -1.6200232e-01	
   4.9775000e+01	   1.2554072e-01	  -1.6303825e-01	
   4.9830000e+01	   1.3795153e-01	  -1.6360973e-01	
   4.9885000e+01	   1.5018229e-01	  -1.6367667e-01	
   4.9940000e+01	   1.6222765e-01	  -1.6320971e-01	
   4.9995000e+01	   1.7407117e-01	  -1.6219327e-01	
   5.0050000e+01	   1.8568514e-01	  -1.6062696e-01	
   5.0105000e+01	   1.9703327e-01	  -1.5852534e-01	
   5.0160000e+01	   2.0807698e-01	  -1.5591608e-01	
   5.0215000e+01	   2.1878399e-01	  -1.5283615e-01	
   5.0270000e+01	   2.2913657e-01	  -1.4932597e-01	
   5.0325000e+01	   2.3913686e-01	  -1.4542304e-01	
   5.0380000e+01	   2.4880821e-01	  -1.4115722e-01	
   5.0435000e+01	   2.5819212e-01	  -1.3654924e-01	
   5.0490000e+01	   2.6734191e-01	  -1.3161268e-01	
   5.0545000e+01	   2.7631456e-01	  -1.2635926e-01	
   5.0600000e+01	   2.8516127e-01	  -1.2080612e-01	
   5.0655000e+01	   2.9391659e-01	  -1.1498346e-01	
   5.0710000e+01	   3.0258765e-01	  -1.0894092e-01	
   5.0765000e+01	   3.1114571e-01	  -1.0275203e-01	
   5.0820000e+01	   3.1952179e-01	  -9.6516019e-02	
   5.0875000e+01	   3.2760736e-01	  -9.0355330e-02	
   5.0930000e+01	   3.3525985e-01	  -8.4408501e-02	
   5.0985000e+01	   3.4231209e-01	  -7.8819875e-02	
   5.1040000e+01	   3.4858380e-01	  -7.3728842e-02	
   5.1095000e+01	   3.5389532e-01	  -6.9260485e-02	
   5.1150000e+01	   3.5808337e-01	  -6.5518615e-02	
   5.1205000e+01	   3.6101703e-01	  -6.2581790e-02	
   5.1260000e+01	   3.6261151e-01	  -6.0502436e-02	
   5.1315000e+01	   3.6283790e-01	  -5.9308635e-02	
   5.1370000e+01	   3.6172678e-01	  -5.9008062e-02	
   5.1425000e+01	   3.5936405e-01	  -5.9593412e-02	
   5.1480000e+01	   3.5587988e-01	  -6.1048064e-02	
   5.1535000e+01	   3.5143404e-01	  -6.3350234e-02	
   5.1590000e+01	   3.4620054e-01	  -6.6474828e-02	
   5.1645000e+01	   3.4035303e-01	  -7.0393717e-02	
   5.1700000e+01	   3.3405173e-01	  -7.5075413e-02	
   5.1755000e+01	   3.2743292e-01	  -8.0484598e-02	
   5.1810000e+01	   3.2060132e-01	  -8.6581789e-02	
   5.1865000e+01	   3.1362525e-01	  -9.3323360e-02	
   5.1920000e+01	   3.0653476e-01	  -1.0066164e-01	
   5.1975000e+01	   2.9932296e-01	  -1.0854495e-01	
   5.2030000e+01	   2.9194919e-01	  -1.1691781e-01	
   5.2085000e+01	   2.8434280e-01	  -1.2572191e-01	
   5.2140000e+01	   2.7640761e-01	  -1.3489751e-01	
   5.2195000e+01	   2.6802866e-01	  -1.4438438e-01	
   5.2250000e+01	   2.5908254e-01	  -1.5412096e-01	
   5.2305000e+01	   2.4945055e-01	  -1.6404181e-01	
   5.2360000e+01	   2.3903296e-01	  -1.7407433e-01	
   5.2415000e+01	   2.2776171e-01	  -1.8413597e-01	
   5.2470000e+01	   2.1560862e-01	  -1.9413297e-01	
   5.2525000e+01	   2.0258660e-01	  -2.0396193e-01	
   5.2580000e+01	   1.8874323e-01	  -2.1351499e-01	
   5.2635000e+01	   1.7414968e-01	  -2.2268776e-01	
   5.2690000e+01	   1.5888975e-01	  -2.3138757e-01	
   5.2745000e+01	   1.4305254e-01	  -2.3954009e-01	
   5.2800000e+01	   1.2672919e-01	  -2.4709412e-01	
   5.2855000e+01	   1.1001345e-01	  -2.5402362e-01	
   5.2910000e+01	   9.3004837e-02	  -2.6032602e-01	
   5.2965000e+01	   7.5811872e-02	  -2.6601700e-01	
   5.3020000e+01	   5.8551946e-02	  -2.7112419e-01	
   5.3075000e+01	   4.1347367e-02	  -2.7568156e-01	
   5.3130000e+01	   2.4320564e-02	  -2.7972482e-01	
   5.3185000e+01	   7.5923454e-03	  -2.8328726e-01	
   5.3240000e+01	  -8.7165415e-03	  -2.8639638e-01	
   5.3295000e+01	  -2.4483988e-02	  -2.8907242e-01	
   5.3350000e+01	  -3.9588213e-02	  -2.9132944e-01	
   5.3405000e+01	  -5.3912332e-02	  -2.9317832e-01	
   5.3460000e+01	  -6.7349637e-02	  -2.9463064e-01	
   5.3515000e+01	  -7.9807790e-02	  -2.9570257e-01	
   5.3570000e+01	  -9.1211623e-02	  -2.9641763e-01	
   5.3625000e+01	  -1.0150554e-01	  -2.9680710e-01	
   5.3680000e+01	  -1.1065641e-01	  -2.9690709e-01	
   5.3735000e+01	  -1.1865653e-01	  -2.9675325e-01	
   5.3790000e+01	  -1.2552510e-01	  -2.9637479e-01	
   5.3845000e+01	  -1.3130751e-01	  -2.9578985e-01	
   5.3900000e+01	  -1.3607300e-01	  -2.9500423e-01	
   5.3955000e+01	  -1.3991219e-01	  -2.9401510e-01	
   5.4010000e+01	  -1.4293526e-01	  -2.9281827e-01	
   5.4065000e+01	  -1.4526987e-01	  -2.9141558e-01	
   5.4120000e+01	  -1.4705806e-01	  -2.8981965e-01	
   5.4175000e+01	  -1.4845168e-01	  -2.8805525e-01	
   5.4230000e+01	  -1.4960638e-01	  -2.8615744e-01	
   5.4285000e+01	  -1.5067237e-01	  -2.8416686e-01	
   5.4340000e+01	  -1.5178263e-01	  -2.8212308e-01	
   5.4395000e+01	  -1.5304095e-01	  -2.8005803e-01	
   5.4450000e+01	  -1.5451211e-01	  -2.7799079e-01	
   5.4505000e+01	  -1.5621484e-01	  -2.7592408e-01	
   5.4560000e+01	  -1.5812000e-01	  -2.7384276e-01	
   5.4615000e+01	  -1.6015656e-01	  -2.7171488e-01	
   5.4670000e+01	  -1.6222467e-01	  -2.6949565e-01	
   5.4725000e+01	  -1.6421205e-01	  -2.6713361e-01	
   5.4780000e+01	  -1.6601027e-01	  -2.6457854e-01	
   5.4835000e+01	  -1.6753005e-01	  -2.6179037e-01	
   5.4890000e+01	  -1.6871444e-01	  -2.5874755e-01	
   5.4945000e+01	  -1.6954782e-01	  -2.5545258e-01	
   5.5000000e+01	  -1.7005926e-01	  -2.5193312e-01	
   5.5055000e+01	  -1.7032172e-01	  -2.4823908e-01	
   5.5110000e+01	  -1.7044850e-01	  -2.4443707e-01	
   5.5165000e+01	  -1.7058687e-01	  -2.4060338e-01	
   5.5220000e+01	  -1.7090794e-01	  -2.3681653e-01	
   5.5275000e+01	  -1.7159353e-01	  -2.3315055e-01	
   5.5330000e+01	  -1.7282229e-01	  -2.2967010e-01	
   5.5385000e+01	  -1.7475653e-01	  -2.2642707e-01	
   5.5440000e+01	  -1.7753038e-01	  -2.2345817e-01	
   5.5495000e+01	  -1.8124122e-01	  -2.2078392e-01	
   5.5550000e+01	  -1.8594615e-01	  -2.1840953e-01	
   5.5605000e+01	  -1.9166331e-01	  -2.1632770e-01	
   5.5660000e+01	  -1.9837673e-01	  -2.1452230e-01	
   5.5715000e+01	  -2.0604333e-01	  -2.1297177e-01	
   5.5770000e+01	  -2.1460025e-01	  -2.1165118e-01	
   5.5825000e+01	  -2.2397089e-01	  -2.1053266e-01	
   5.5880000e+01	  -2.3406975e-01	  -2.0958478e-01	
   5.5935000e+01	  -2.4480726e-01	  -2.0877234e-01	
   5.5990000e+01	  -2.5609473e-01	  -2.0805778e-01	
   5.6045000e+01	  -2.6784753e-01	  -2.0740411e-01	
   5.6100000e+01	  -2.7998610e-01	  -2.0677827e-01	
   5.6155000e+01	  -2.9243775e-01	  -2.0615409e-01	
   5.6210000e+01	  -3.0514175e-01	  -2.0551490e-01	
   5.6265000e+01	  -3.1805567e-01	  -2.0485554e-01	
   5.6320000e+01	  -3.3115893e-01	  -2.0418338e-01	
   5.6375000e+01	  -3.4445106e-01	  -2.0351895e-01	
   5.6430000e+01	  -3.5794548e-01	  -2.0289650e-01	
   5.6485000e+01	  -3.7165947e-01	  -2.0236371e-01	
   5.6540000e+01	  -3.8560199e-01	  -2.0197889e-01	
   5.6595000e+01	  -3.9976207e-01	  -2.0180486e-01	
   5.6650000e+01	  -4.1410175e-01	  -2.0190047e-01	
   5.6705000e+01	  -4.2855522e-01	  -2.0231208e-01	
   5.6760000e+01	  -4.4303267e-01	  -2.0306708e-01	
   5.6815000e+01	  -4.5742625e-01	  -2.0417095e-01	
   5.6870000e+01	  -4.7161639e-01	  -2.0560836e-01	
   5.6925000e+01	  -4.8547874e-01	  -2.0734691e-01	
   5.6980000e+01	  -4.9889254e-01	  -2.0934183e-01	
   5.7035000e+01	  -5.1175085e-01	  -2.1154033e-01	
   5.7090000e+01	  -5.2397134e-01	  -2.1388607e-01	
   5.7145000e+01	  -5.3550466e-01	  -2.1632379e-01	
   5.7200000e+01	  -5.4633793e-01	  -2.1880322e-01	
   5.7255000e+01	  -5.5649312e-01	  -2.2128095e-01	
   5.7310000e+01	  -5.6602281e-01	  -2.2372041e-01	
   5.7365000e+01	  -5.7500475e-01	  -2.2609150e-01	
   5.7420000e+01	  -5.8353455e-01	  -2.2837089e-01	
   5.7475000e+01	  -5.9171674e-01	  -2.3054245e-01	
   5.7530000e+01	  -5.9965603e-01	  -2.3259723e-01	
   5.7585000e+01	  -6.0744999e-01	  -2.3453296e-01	
   5.7640000e+01	  -6.1518282e-01	  -2.3635342e-01	
   5.7695000e+01	  -6.2291967e-01	  -2.3806747e-01	
   5.7750000e+01	  -6.3070247e-01	  -2.3968784e-01	
   5.7805000e+01	  -6.3854783e-01	  -2.4122962e-01	
   5.7860000e+01	  -6.4644646e-01	  -2.4270810e-01	
   5.7915000e+01	  -6.5436295e-01	  -2.4413524e-01	
   5.7970000e+01	  -6.6223624e-01	  -2.4551582e-01	
   5.8025000e+01	  -6.6998247e-01	  -2.4684475e-01	
   5.8080000e+01	  -6.7749995e-01	  -2.4810638e-01	
   5.8135000e+01	  -6.8467436e-01	  -2.4927542e-01	
   5.8190000e+01	  -6.9138099e-01	  -2.5031920e-01	
   5.8245000e+01	  -6.9748323e-01	  -2.5120117e-01	
   5.8300000e+01	  -7.0282949e-01	  -2.5188553e-01	
   5.8355000e+01	  -7.0725288e-01	  -2.5234172e-01	
   5.8410000e+01	  -7.1057599e-01	  -2.5254793e-01	
   5.8465000e+01	  -7.1262022e-01	  -2.5249247e-01	
   5.8520000e+01	  -7.1321553e-01	  -2.5217226e-01	
   5.8575000e+01	  -7.1220809e-01	  -2.5158891e-01	
   5.8630000e+01	  -7.0946707e-01	  -2.5074490e-01	
   5.8685000e+01	  -7.0489268e-01	  -2.4964182e-01	
   5.8740000e+01	  -6.9842376e-01	  -2.4827993e-01	
   5.8795000e+01	  -6.9004196e-01	  -2.4665750e-01	
   5.8850000e+01	  -6.7977200e-01	  -2.4476992e-01	
   5.8905000e+01	  -6.6767832e-01	  -2.4261021e-01	
   5.8960000e+01	  -6.5385895e-01	  -2.4017087e-01	
   5.9015000e+01	  -6.3843653e-01	  -2.3744570e-01	
   5.9070000e+01	  -6.2154734e-01	  -2.3443032e-01	
   5.9125000e+01	  -6.0332984e-01	  -2.3112171e-01	
   5.9180000e+01	  -5.8391397e-01	  -2.2751671e-01	
   5.9235000e+01	  -5.6341274e-01	  -2.2360910e-01	
   5.9290000e+01	  -5.4191840e-01	  -2.1938584e-01	
   5.9345000e+01	  -5.1950479e-01	  -2.1482469e-01	
   5.9400000e+01	  -4.9623376e-01	  -2.0989471e-01	
   5.9455000e+01	  -4.7216242e-01	  -2.0455941e-01	
   5.9510000e+01	  -4.4734940e-01	  -1.9878146e-01	
   5.9565000e+01	  -4.2186016e-01	  -1.9252772e-01	
   5.9620000e+01	  -3.9577128e-01	  -1.8577359e-01	
   5.9675000e+01	  -3.6917318e-01	  -1.7850575e-01	
   5.9730000e+01	  -3.4217117e-01	  -1.7072299e-01	
   5.9785000e+01	  -3.1488546e-01	  -1.6243620e-01	
   5.9840000e+01	  -2.8744994e-01	  -1.5366776e-01	
   5.9895000e+01	  -2.6000907e-01	  -1.4444969e-01	
   5.9950000e+01	  -2.3271330e-01	  -1.3481993e-01	
   6.0005000e+01	  -2.0571689e-01	  -1.2481807e-01	
   6.0060000e+01	  -1.7917970e-01	  -1.1448232e-01	
   6.0115000e+01	  -1.5327015e-01	  -1.0384825e-01	
   6.0170000e+01	  -1.2816490e-01	  -9.2948788e-02	
   6.0225000e+01	  -1.0404528e-01	  -8.1815263e-02	
   6.0280000e+01	  -8.1093702e-02	  -7.0480031e-02	
   6.0335000e+01	  -5.9492497e-02	  -5.8980465e-02	
   6.0390000e+01	  -3.9423136e-02	  -4.7363142e-02	
   6.0445000e+01	  -2.1062164e-02	  -3.5687061e-02	
   6.0500000e+01	  -4.5728238e-03	  -2.4025027e-02	
   6.0555000e+01	   9.9058116e-03	  -1.2462086e-02	
   6.0610000e+01	   2.2270551e-02	  -1.0900700e-03	
   6.0665000e+01	   3.2465465e-02	   1.0001012e-02	
   6.0720000e+01	   4.0490324e-02	   2.0732039e-02	
   6.0775000e+01	   4.6403231e-02	   3.1041540e-02	
   6.0830000e+01	   5.0316850e-02	   4.0889226e-02	
   6.0885000e+01	   5.2389678e-02	   5.0257138e-02	
   6.0940000e+01	   5.2814319e-02	   5.9149614e-02	
   6.0995000e+01	   5.1805726e-02	   6.7592225e-02	
   6.1050000e+01	   4.9592477e-02	   7.5628968e-02	
   6.1105000e+01	   4.6410903e-02	   8.3317271e-02	
   6.1160000e+01	   4.2497983e-02	   9.0721109e-02	
   6.1215000e+01	   3.8080641e-02	   9.7903131e-02	
   6.1270000e+01	   3.3364921e-02	   1.0491759e-01	
   6.1325000e+01	   2.8530735e-02	   1.1180618e-01	
   6.1380000e+01	   2.3733562e-02	   1.1859760e-01	
   6.1435000e+01	   1.9109416e-02	   1.2530979e-01	
   6.1490000e+01	   1.4779275e-02	   1.3195214e-01	
   6.1545000e+01	   1.0851801e-02	   1.3852609e-01	
   6.1600000e+01	   7.4244278e-03	   1.4502411e-01	
   6.1655000e+01	   4.5833191e-03	   1.5142842e-01	
   6.1710000e+01	   2.4035159e-03	   1.5771083e-01	
   6.1765000e+01	   9.4998855e-04	   1.6383319e-01	
   6.1820000e+01	   2.7842349e-04	   1.6974770e-01	
   6.1875000e+01	   4.3431230e-04	   1.7539694e-01	
   6.1930000e+01	   1.4510951e-03	   1.8071573e-01	
   6.1985000e+01	   3.3498271e-03	   1.8563595e-01	
   6.2040000e+01	   6.1411361e-03	   1.9009448e-01	
   6.2095000e+01	   9.8275596e-03	   1.9404227e-01	
   6.2150000e+01	   1.4404739e-02	   1.9745230e-01	
   6.2205000e+01	   1.9861643e-02	   2.0032509e-01	
   6.2260000e+01	   2.6179787e-02	   2.0269070e-01	
   6.2315000e+01	   3.3330938e-02	   2.0460740e-01	
   6.2370000e+01	   4.1274142e-02	   2.0615784e-01	
   6.2425000e+01	   4.9953799e-02	   2.0744391e-01	
   6.2480000e+01	   5.9298878e-02	   2.0857996e-01	
   6.2535000e+01	   6.9221772e-02	   2.0968479e-01	
   6.2590000e+01	   7.9616748e-02	   2.1087385e-01	
   6.2645000e+01	   9.0360282e-02	   2.1225382e-01	
   6.2700000e+01	   1.0131482e-01	   2.1392022e-01	
   6.2755000e+01	   1.1233430e-01	   2.1595738e-01	
   6.2810000e+01	   1.2326892e-01	   2.1843936e-01	
   6.2865000e+01	   1.3396836e-01	   2.2143140e-01	
   6.2920000e+01	   1.4428517e-01	   2.2499148e-01	
   6.2975000e+01	   1.5407990e-01	   2.2917169e-01	
   6.3030000e+01	   1.6322843e-01	   2.3401806e-01	
   6.3085000e+01	   1.7162917e-01	   2.3956830e-01	
   6.3140000e+01	   1.7920721e-01	   2.4584733e-01	
   6.3195000e+01	   1.8591485e-01	   2.5286100e-01	
   6.3250000e+01	   1.9173040e-01	   2.6058946e-01	
   6.3305000e+01	   1.9665727e-01	   2.6898234e-01	
   6.3360000e+01	   2.0072287e-01	   2.7795787e-01	
   6.3415000e+01	   2.0397545e-01	   2.8740603e-01	
   6.3470000e+01	   2.0647865e-01	   2.9719486e-01	
   6.3525000e+01	   2.0830481e-01	   3.0717846e-01	
   6.3580000e+01	   2.0952796e-01	   3.1720508e-01	
   6.3635000e+01	   2.1021638e-01	   3.2712312e-01	
   6.3690000e+01	   2.1042690e-01	   3.3678420e-01	
   6.3745000e+01	   2.1020270e-01	   3.4604417e-01	
   6.3800000e+01	   2.0957406e-01	   3.5476324e-01	
   6.3855000e+01	   2.0855902e-01	   3.6280557e-01	
   6.3910000e+01	   2.0716355e-01	   3.7003886e-01	
   6.3965000e+01	   2.0538371e-01	   3.7633484e-01	
   6.4020000e+01	   2.0321155e-01	   3.8157160e-01	
   6.4075000e+01	   2.0064449e-01	   3.8563765e-01	
   6.4130000e+01	   1.9769548e-01	   3.8843707e-01	
   6.4185000e+01	   1.9440115e-01	   3.8989516e-01	
   6.4240000e+01	   1.9082571e-01	   3.8996463e-01	
   6.4295000e+01	   1.8706038e-01	   3.8863175e-01	
   6.4350000e+01	   1.8321910e-01	   3.8592158e-01	
   6.4405000e+01	   1.7943183e-01	   3.8190069e-01	
   6.4460000e+01	   1.7583563e-01	   3.7667608e-01	
   6.4515000e+01	   1.7256361e-01	   3.7038895e-01	
   6.4570000e+01	   1.6973275e-01	   3.6320388e-01	
   6.4625000e+01	   1.6743240e-01	   3.5529548e-01	
   6.4680000e+01	   1.6571503e-01	   3.4683539e-01	
   6.4735000e+01	   1.6459045e-01	   3.3798170e-01	
   6.4790000e+01	   1.6402464e-01	   3.2887153e-01	
   6.4845000e+01	   1.6394429e-01	   3.1961666e-01	
   6.4900000e+01	   1.6424625e-01	   3.1030194e-01	
   6.4955000e+01	   1.6480851e-01	   3.0098603e-01	
   6.5010000e+01	   1.6549934e-01	   2.9170462e-01	
   6.5065000e+01	   1.6618437e-01	   2.8247638e-01	
   6.5120000e+01	   1.6673393e-01	   2.7331099e-01	
   6.5175000e+01	   1.6703049e-01	   2.6421668e-01	
   6.5230000e+01	   1.6697385e-01	   2.5520486e-01	
   6.5285000e+01	   1.6648301e-01	   2.4629180e-01	
   6.5340000e+01	   1.6549662e-01	   2.3749901e-01	
   6.5395000e+01	   1.6397536e-01	   2.2885340e-01	
   6.5450000e+01	   1.6190812e-01	   2.2038759e-01	
   6.5505000e+01	   1.5932044e-01	   2.1214034e-01	
   6.5560000e+01	   1.5628072e-01	   2.0415726e-01	
   6.5615000e+01	   1.5289985e-01	   1.9649115e-01	
   6.5670000e+01	   1.4932294e-01	   1.8920102e-01	
   6.5725000e+01	   1.4571553e-01	   1.8234927e-01	
   6.5780000e+01	   1.4224891e-01	   1.7599819e-01	
   6.5835000e+01	   1.3908704e-01	   1.7020643e-01	
   6.5890000e+01	   1.3637518e-01	   1.6502540e-01	
   6.5945000e+01	   1.3423030e-01	   1.6049524e-01	
   6.6000000e+01	   1.3273536e-01	   1.5664096e-01	
   6.6055000e+01	   1.3193950e-01	   1.5347065e-01	
   6.6110000e+01	   1.3186347e-01	   1.5097669e-01	
   6.6165000e+01	   1.3250900e-01	   1.4914043e-01	
   6.6220000e+01	   1.3387014e-01	   1.4793893e-01	
   6.6275000e+01	   1.3594446e-01	   1.4735228e-01	
   6.6330000e+01	   1.3874124e-01	   1.4736970e-01	
   6.6385000e+01	   1.4228498e-01	   1.4799390e-01	
   6.6440000e+01	   1.4661527e-01	   1.4924293e-01	
   6.6495000e+01	   1.5178424e-01	   1.5114951e-01	
   6.6550000e+01	   1.5785043e-01	   1.5375758e-01	
   6.6605000e+01	   1.6486743e-01	   1.5711721e-01	
   6.6660000e+01	   1.7286948e-01	   1.6127885e-01	
   6.6715000e+01	   1.8185945e-01	   1.6628844e-01	
   6.6770000e+01	   1.9180267e-01	   1.7218439e-01	
   6.6825000e+01	   2.0262639e-01	   1.7899511e-01	
   6.6880000e+01	   2.1422330e-01	   1.8673642e-01	
   6.6935000e+01	   2.2645947e-01	   1.9540900e-01	
   6.6990000e+01	   2.3918599e-01	   2.0499656e-01	
   6.7045000e+01	   2.5225113e-01	   2.1546470e-01	
   6.7100000e+01	   2.6550992e-01	   2.2676016e-01	
   6.7155000e+01	   2.7883010e-01	   2.3881051e-01	
   6.7210000e+01	   2.9209581e-01	   2.5152383e-01	
   6.7265000e+01	   3.0521256e-01	   2.6478867e-01	
   6.7320000e+01	   3.1811541e-01	   2.7847520e-01	
   6.7375000e+01	   3.3077915e-01	   2.9243845e-01	
   6.7430000e+01	   3.4322566e-01	   3.0652294e-01	
   6.7485000e+01	   3.5552352e-01	   3.2056743e-01	
   6.7540000e+01	   3.6777901e-01	   3.3440916e-01	
   6.7595000e+01	   3.8012195e-01	   3.4788840e-01	
   6.7650000e+01	   3.9269034e-01	   3.6085346e-01	
   6.7705000e+01	   4.0561542e-01	   3.7316591e-01	
   6.7760000e+01	   4.1900683e-01	   3.8470450e-01	
   6.7815000e+01	   4.3293850e-01	   3.9536666e-01	
   6.7870000e+01	   4.4743876e-01	   4.0506775e-01	
   6.7925000e+01	   4.6248673e-01	   4.1373959e-01	
   6.7980000e+01	   4.7801469e-01	   4.2133053e-01	
   6.8035000e+01	   4.9391482e-01	   4.2780796e-01	
   6.8090000e+01	   5.1004971e-01	   4.3316268e-01	
   6.8145000e+01	   5.2626642e-01	   4.3741364e-01	
   6.8200000e+01	   5.4241253e-01	   4.4061161e-01	
   6.8255000e+01	   5.5835132e-01	   4.4284120e-01	
   6.8310000e+01	   5.7397266e-01	   4.4422056e-01	
   6.8365000e+01	   5.8919776e-01	   4.4489759e-01	
   6.8420000e+01	   6.0397841e-01	   4.4504241e-01	
   6.8475000e+01	   6.1829286e-01	   4.4483756e-01	
   6.8530000e+01	   6.3214011e-01	   4.4446819e-01	
   6.8585000e+01	   6.4553296e-01	   4.4411270e-01	
   6.8640000e+01	   6.5848959e-01	   4.4393461e-01	
   6.8695000e+01	   6.7102569e-01	   4.4407677e-01	
   6.8750000e+01	   6.8315099e-01	   4.4465930e-01	
   6.8805000e+01	   6.9487067e-01	   4.4578047e-01	
   6.8860000e+01	   7.0618951e-01	   4.4751796e-01	
   6.8915000e+01	   7.1711603e-01	   4.4992855e-01	
   6.8970000e+01	   7.2766583e-01	   4.5304621e-01	
   6.9025000e+01	   7.3786343e-01	   4.5687941e-01	
   6.9080000e+01	   7.4774148e-01	   4.6140868e-01	
   6.9135000e+01	   7.5733702e-01	   4.6658634e-01	
   6.9190000e+01	   7.6668676e-01	   4.7233962e-01	
   6.9245000e+01	   7.7582410e-01	   4.7857642e-01	
   6.9300000e+01	   7.8477950e-01	   4.8519217e-01	
   6.9355000e+01	   7.9358462e-01	   4.9207741e-01	
   6.9410000e+01	   8.0227849e-01	   4.9912597e-01	
   6.9465000e+01	   8.1091212e-01	   5.0624194e-01	
   6.9520000e+01	   8.1954783e-01	   5.1334393e-01	
   6.9575000e+01	   8.2825216e-01	   5.2036680e-01	
   6.9630000e+01	   8.3708429e-01	   5.2726216e-01	
   6.9685000e+01	   8.4608379e-01	   5.3399796e-01	
   6.9740000e+01	   8.5526111e-01	   5.4055589e-01	
   6.9795000e+01	   8.6459268e-01	   5.4692705e-01	
   6.9850000e+01	   8.7402108e-01	   5.5310691e-01	
   6.9905000e+01	   8.8346005e-01	   5.5909117e-01	
   6.9960000e+01	   8.9280331e-01	   5.6487270e-01	
   7.0015000e+01	   9.0193596e-01	   5.7043993e-01	
   7.0070000e+01	   9.1074739e-01	   5.7577679e-01	
   7.0125000e+01	   9.1914329e-01	   5.8086417e-01	
   7.0180000e+01	   9.2705349e-01	   5.8568175e-01	
   7.0235000e+01	   9.3443429e-01	   5.9020931e-01	
   7.0290000e+01	   9.4126636e-01	   5.9442716e-01	
   7.0345000e+01	   9.4755014e-01	   5.9831608e-01	
   7.0400000e+01	   9.5329991e-01	   6.0185715e-01	
   7.0455000e+01	   9.5853699e-01	   6.0503164e-01	
   7.0510000e+01	   9.6328349e-01	   6.0782188e-01	
   7.0565000e+01	   9.6755727e-01	   6.1021315e-01	
   7.0620000e+01	   9.7136848e-01	   6.1219560e-01	
   7.0675000e+01	   9.7471861e-01	   6.1376584e-01	
   7.0730000e+01	   9.7760333e-01	   6.1492881e-01	
   7.0785000e+01	   9.8001829e-01	   6.1570048e-01	
   7.0840000e+01	   9.8196429e-01	   6.1611024e-01	
   7.0895000e+01	   9.8344806e-01	   6.1620148e-01	
   7.0950000e+01	   9.8447861e-01	   6.1603007e-01	
   7.1005000e+01	   9.8506110e-01	   6.1566070e-01	
   7.1060000e+01	   9.8519117e-01	   6.1516122e-01	
   7.1115000e+01	   9.8485113e-01	   6.1459550e-01	
   7.1170000e+01	   9.8400930e-01	   6.1401547e-01	
   7.1225000e+01	   9.8262292e-01	   6.1345416e-01	
   7.1280000e+01	   9.8064407e-01	   6.1292078e-01	
   7.1335000e+01	   9.7802677e-01	   6.1239877e-01	
   7.1390000e+01	   9.7473355e-01	   6.1184732e-01	
   7.1445000e+01	   9.7073978e-01	   6.1120654e-01	
   7.1500000e+01	   9.6603528e-01	   6.1040565e-01	
   7.1555000e+01	   9.6062369e-01	   6.0937245e-01	
   7.1610000e+01	   9.5452026e-01	   6.0804230e-01	
   7.1665000e+01	   9.4774805e-01	   6.0636493e-01	
   7.1720000e+01	   9.4033307e-01	   6.0430832e-01	
   7.1775000e+01	   9.3229921e-01	   6.0185909e-01	
   7.1830000e+01	   9.2366344e-01	   5.9901927e-01	
   7.1885000e+01	   9.1443238e-01	   5.9580021e-01	
   7.1940000e+01	   9.0459980e-01	   5.9221485e-01	
   7.1995000e+01	   8.9414466e-01	   5.8826965e-01	
   7.2050000e+01	   8.8303044e-01	   5.8395847e-01	
   7.2105000e+01	   8.7120814e-01	   5.7926046e-01	
   7.2160000e+01	   8.5862385e-01	   5.7414300e-01	
   7.2215000e+01	   8.4522943e-01	   5.6856826e-01	
   7.2270000e+01	   8.3099350e-01	   5.6250080e-01	
   7.2325000e+01	   8.1591032e-01	   5.5591419e-01	
   7.2380000e+01	   8.0000579e-01	   5.4879611e-01	
   7.2435000e+01	   7.8333992e-01	   5.4115149e-01	
   7.2490000e+01	   7.6600620e-01	   5.3300393e-01	
   7.2545000e+01	   7.4812818e-01	   5.2439555e-01	
   7.2600000e+01	   7.2985548e-01	   5.1538594e-01	
   7.2655000e+01	   7.1135992e-01	   5.0604964e-01	
   7.2710000e+01	   6.9283128e-01	   4.9647202e-01	
   7.2765000e+01	   6.7447187e-01	   4.8674424e-01	
   7.2820000e+01	   6.5649027e-01	   4.7695887e-01	
   7.2875000e+01	   6.3909267e-01	   4.6720634e-01	
   7.2930000e+01	   6.2247058e-01	   4.5757180e-01	
   7.2985000e+01	   6.0678609e-01	   4.4813243e-01	
   7.3040000e+01	   5.9215940e-01	   4.3895618e-01	
   7.3095000e+01	   5.7866200e-01	   4.3010141e-01	
   7.3150000e+01	   5.6631458e-01	   4.2161614e-01	
   7.3205000e+01	   5.5508796e-01	   4.1353609e-01	
   7.3260000e+01	   5.4490729e-01	   4.0588211e-01	
   7.3315000e+01	   5.3565930e-01	   3.9865775e-01	
   7.3370000e+01	   5.2720101e-01	   3.9184821e-01	
   7.3425000e+01	   5.1936815e-01	   3.8542143e-01	
   7.3480000e+01	   5.1198308e-01	   3.7933209e-01	
   7.3535000e+01	   5.0486241e-01	   3.7352766e-01	
   7.3590000e+01	   4.9782396e-01	   3.6795459e-01	
   7.3645000e+01	   4.9069241e-01	   3.6256271e-01	
   7.3700000e+01	   4.8330335e-01	   3.5730728e-01	
   7.3755000e+01	   4.7550613e-01	   3.5214892e-01	
   7.3810000e+01	   4.6716527e-01	   3.4705172e-01	
   7.3865000e+01	   4.5816182e-01	   3.4197963e-01	
   7.3920000e+01	   4.4839543e-01	   3.3689220e-01	
   7.3975000e+01	   4.3778743e-01	   3.3174078e-01	
   7.4030000e+01	   4.2628385e-01	   3.2646668e-01	
   7.4085000e+01	   4.1385732e-01	   3.2100291e-01	
   7.4140000e+01	   4.0050741e-01	   3.1527996e-01	
   7.4195000e+01	   3.8625976e-01	   3.0923470e-01	
   7.4250000e+01	   3.7116460e-01	   3.0281924e-01	
   7.4305000e+01	   3.5529456e-01	   2.9600731e-01	
   7.4360000e+01	   3.3874239e-01	   2.8879787e-01	
   7.4415000e+01	   3.2161841e-01	   2.8121570e-01	
   7.4470000e+01	   3.0404615e-01	   2.7330833e-01	
   7.4525000e+01	   2.8615466e-01	   2.6513941e-01	
   7.4580000e+01	   2.6806796e-01	   2.5678052e-01	
   7.4635000e+01	   2.4989380e-01	   2.4830359e-01	
   7.4690000e+01	   2.3171497e-01	   2.3977510e-01	
   7.4745000e+01	   2.1358556e-01	   2.3125207e-01	
   7.4800000e+01	   1.9553269e-01	   2.2277945e-01	
   7.4855000e+01	   1.7756278e-01	   2.1438885e-01	
   7.4910000e+01	   1.5967108e-01	   2.0609863e-01	
   7.4965000e+01	   1.4185331e-01	   1.9791626e-01	
   7.5020000e+01	   1.2411667e-01	   1.8984320e-01	
   7.5075000e+01	   1.0648743e-01	   1.8188173e-01	
   7.5130000e+01	   8.9012295e-02	   1.7404131e-01	
   7.5185000e+01	   7.1751378e-02	   1.6634184e-01	
   7.5240000e+01	   5.4763705e-02	   1.5881297e-01	
   7.5295000e+01	   3.8090654e-02	   1.5149056e-01	
   7.5350000e+01	   2.1743437e-02	   1.4441171e-01	
   7.5405000e+01	   5.6968599e-03	   1.3760906e-01	
   7.5460000e+01	  -1.0111615e-02	   1.3110499e-01	
   7.5515000e+01	  -2.5778403e-02	   1.2490675e-01	
   7.5570000e+01	  -4.1425867e-02	   1.1900360e-01	
   7.5625000e+01	  -5.7190206e-02	   1.1336673e-01	
   7.5680000e+01	  -7.3206747e-02	   1.0795201e-01	
   7.5735000e+01	  -8.9595520e-02	   1.0270508e-01	
   7.5790000e+01	  -1.0645104e-01	   9.7567035e-02	
   7.5845000e+01	  -1.2383963e-01	   9.2479477e-02	
   7.5900000e+01	  -1.4180402e-01	   8.7388276e-02	
   7.5955000e+01	  -1.6037088e-01	   8.2246588e-02	
   7.6010000e+01	  -1.7955664e-01	   7.7017082e-02	
   7.6065000e+01	  -1.9937088e-01	   7.1672777e-02	
   7.6120000e+01	  -2.1981828e-01	   6.6196361e-02	
   7.6175000e+01	  -2.4089886e-01	   6.0579010e-02	
   7.6230000e+01	  -2.6260517e-01	   5.4820023e-02	
   7.6285000e+01	  -2.8491652e-01	   4.8927821e-02	
   7.6340000e+01	  -3.0779181e-01	   4.2921859e-02	
   7.6395000e+01	  -3.3116323e-01	   3.6834355e-02	
   7.6450000e+01	  -3.5493239e-01	   3.0710719e-02	
   7.6505000e+01	  -3.7897013e-01	   2.4607787e-02	
   7.6560000e+01	  -4.0311979e-01	   1.8589750e-02	
   7.6615000e+01	  -4.2720416e-01	   1.2722460e-02	
   7.6670000e+01	  -4.5103623e-01	   7.0671810e-03	
   7.6725000e+01	  -4.7443243e-01	   1.6749612e-03	
   7.6780000e+01	  -4.9722556e-01	  -3.4173032e-03	
   7.6835000e+01	  -5.1927415e-01	  -8.1887938e-03	
   7.6890000e+01	  -5.4046714e-01	  -1.2634644e-02	
   7.6945000e+01	  -5.6072470e-01	  -1.6763417e-02	
   7.7000000e+01	  -5.7999772e-01	  -2.0592492e-02	
   7.7055000e+01	  -5.9826689e-01	  -2.4142946e-02	
   7.7110000e+01	  -6.1554028e-01	  -2.7435448e-02	
   7.7165000e+01	  -6.3184881e-01	  -3.0487889e-02	
   7.7220000e+01	  -6.4724024e-01	  -3.3315053e-02	
   7.7275000e+01	  -6.6177282e-01	  -3.5930118e-02	
   7.7330000e+01	  -6.7550981e-01	  -3.8347392e-02	
   7.7385000e+01	  -6.8851722e-01	  -4.0585882e-02	
   7.7440000e+01	  -7.0086511e-01	  -4.2672952e-02	
   7.7495000e+01	  -7.1262902e-01	  -4.4645972e-02	
   7.7550000e+01	  -7.2388697e-01	  -4.6549601e-02	
   7.7605000e+01	  -7.3471157e-01	  -4.8428260e-02	
   7.7660000e+01	  -7.4516084e-01	  -5.0315823e-02	
   7.7715000e+01	  -7.5527083e-01	  -5.2225660e-02	
   7.7770000e+01	  -7.6505058e-01	  -5.4144010e-02	
   7.7825000e+01	  -7.7447928e-01	  -5.6028782e-02	
   7.7880000e+01	  -7.8350701e-01	  -5.7814374e-02	
   7.7935000e+01	  -7.9205921e-01	  -5.9420888e-02	
   7.7990000e+01	  -8.0004399e-01	  -6.0764633e-02	
   7.8045000e+01	  -8.0736158e-01	  -6.1767338e-02	
   7.8100000e+01	  -8.1391619e-01	  -6.2362966e-02	
   7.8155000e+01	  -8.1962825e-01	  -6.2501818e-02	
   7.8210000e+01	  -8.2444344e-01	  -6.2151888e-02	
   7.8265000e+01	  -8.2833659e-01	  -6.1297853e-02	
   7.8320000e+01	  -8.3131144e-01	  -5.9938527e-02	
   7.8375000e+01	  -8.3339842e-01	  -5.8083933e-02	
   7.8430000e+01	  -8.3465067e-01	  -5.5753249e-02	
   7.8485000e+01	  -8.3513755e-01	  -5.2974521e-02	
   7.8540000e+01	  -8.3493602e-01	  -4.9786477e-02	
   7.8595000e+01	  -8.3412191e-01	  -4.6241819e-02	
   7.8650000e+01	  -8.3276397e-01	  -4.2410404e-02	
   7.8705000e+01	  -8.3092172e-01	  -3.8380955e-02	
   7.8760000e+01	  -8.2864649e-01	  -3.4261177e-02	
   7.8815000e+01	  -8.2598383e-01	  -3.0176527e-02	
   7.8870000e+01	  -8.2297610e-01	  -2.6267257e-02	
   7.8925000e+01	  -8.1966490e-01	  -2.2683400e-02	
   7.8980000e+01	  -8.1609392e-01	  -1.9578028e-02	
   7.9035000e+01	  -8.1231117e-01	  -1.7099679e-02	
   7.9090000e+01	  -8.0836929e-01	  -1.5384738e-02	
   7.9145000e+01	  -8.0432404e-01	  -1.4550379e-02	
   7.9200000e+01	  -8.0023210e-01	  -1.4688616e-02	
   7.9255000e+01	  -7.9614899e-01	  -1.5862203e-02	
   7.9310000e+01	  -7.9212698e-01	  -1.8102823e-02	
   7.9365000e+01	  -7.8821255e-01	  -2.1411463e-02	
   7.9420000e+01	  -7.8444403e-01	  -2.5760623e-02	
   7.9475000e+01	  -7.8085084e-01	  -3.1098155e-02	
   7.9530000e+01	  -7.7745470e-01	  -3.7352072e-02	
   7.9585000e+01	  -7.7427138e-01	  -4.4434921e-02	
   7.9640000e+01	  -7.7131147e-01	  -5.2246479e-02	
   7.9695000e+01	  -7.6858091e-01	  -6.0674765e-02	
   7.9750000e+01	  -7.6608172e-01	  -6.9596237e-02	
   7.9805000e+01	  -7.6381200e-01	  -7.8876080e-02	
   7.9860000e+01	  -7.6176377e-01	  -8.8369141e-02	
   7.9915000e+01	  -7.5991881e-01	  -9.7921678e-02	
   7.9970000e+01	  -7.5824450e-01	  -1.0737398e-01	
   8.0025000e+01	  -7.5669206e-01	  -1.1656422e-01	
   8.0080000e+01	  -7.5519851e-01	  -1.2533426e-01	
   8.0135000e+01	  -7.5369197e-01	  -1.3353709e-01	
   8.0190000e+01	  -7.5209720e-01	  -1.4104384e-01	
   8.0245000e+01	  -7.5033757e-01	  -1.4774795e-01	
   8.0300000e+01	  -7.4833349e-01	  -1.5356604e-01	
   8.0355000e+01	  -7.4600043e-01	  -1.5843646e-01	
   8.0410000e+01	  -7.4324930e-01	  -1.6231697e-01	
   8.0465000e+01	  -7.3998962e-01	  -1.6518206e-01	
   8.0520000e+01	  -7.3613553e-01	  -1.6702060e-01	
   8.0575000e+01	  -7.3161475e-01	  -1.6783463e-01	
   8.0630000e+01	  -7.2637823e-01	  -1.6763969e-01	
   8.0685000e+01	  -7.2040777e-01	  -1.6646653e-01	
   8.0740000e+01	  -7.1372015e-01	  -1.6436371e-01	
   8.0795000e+01	  -7.0636742e-01	  -1.6139999e-01	
   8.0850000e+01	  -6.9843313e-01	  -1.5766498e-01	
   8.0905000e+01	  -6.9002486e-01	  -1.5326628e-01	
   8.0960000e+01	  -6.8126483e-01	  -1.4832168e-01	
   8.1015000e+01	  -6.7228079e-01	  -1.4294772e-01	
   8.1070000e+01	  -6.6319812e-01	  -1.3724856e-01	
   8.1125000e+01	  -6.5413226e-01	  -1.3130868e-01	
   8.1180000e+01	  -6.4518023e-01	  -1.2519075e-01	
   8.1235000e+01	  -6.3641285e-01	  -1.1893846e-01	
   8.1290000e+01	  -6.2787002e-01	  -1.1258335e-01	
   8.1345000e+01	  -6.1955921e-01	  -1.0615355e-01	
   8.1400000e+01	  -6.1145595e-01	  -9.9681550e-02	
   8.1455000e+01	  -6.0350650e-01	  -9.3209494e-02	
   8.1510000e+01	  -5.9563341e-01	  -8.6791287e-02	
   8.1565000e+01	  -5.8774286e-01	  -8.0490714e-02	
   8.1620000e+01	  -5.7973192e-01	  -7.4375718e-02	
   8.1675000e+01	  -5.7149533e-01	  -6.8510843e-02	
   8.1730000e+01	  -5.6293197e-01	  -6.2950241e-02	
   8.1785000e+01	  -5.5395027e-01	  -5.7732288e-02	
   8.1840000e+01	  -5.4447244e-01	  -5.2876306e-02	
   8.1895000e+01	  -5.3443864e-01	  -4.8382298e-02	
   8.1950000e+01	  -5.2381305e-01	  -4.4234431e-02	
   8.2005000e+01	  -5.1259119e-01	  -4.0407631e-02	
   8.2060000e+01	  -5.0080533e-01	  -3.6875332e-02	
   8.2115000e+01	  -4.8852445e-01	  -3.3616166e-02	
   8.2170000e+01	  -4.7584960e-01	  -3.0618376e-02	
   8.2225000e+01	  -4.6290808e-01	  -2.7881636e-02	
   8.2280000e+01	  -4.4984845e-01	  -2.5416314e-02	
   8.2335000e+01	  -4.3683518e-01	  -2.3240714e-02	
   8.2390000e+01	  -4.2404208e-01	  -2.1377647e-02	
   8.2445000e+01	  -4.1164533e-01	  -1.9851554e-02	
   8.2500000e+01	  -3.9981594e-01	  -1.8686017e-02	
   8.2555000e+01	  -3.8871118e-01	  -1.7900759e-02	
   8.2610000e+01	  -3.7846553e-01	  -1.7508180e-02	
   8.2665000e+01	  -3.6918347e-01	  -1.7510815e-02	
   8.2720000e+01	  -3.6093554e-01	  -1.7901204e-02	
   8.2775000e+01	  -3.5375673e-01	  -1.8664264e-02	
   8.2830000e+01	  -3.4764648e-01	  -1.9781108e-02	
   8.2885000e+01	  -3.4257052e-01	  -2.1233109e-02	
   8.2940000e+01	  -3.3846552e-01	  -2.3004939e-02	
   8.2995000e+01	  -3.3524651e-01	  -2.5085446e-02	
   8.3050000e+01	  -3.3281661e-01	  -2.7466423e-02	
   8.3105000e+01	  -3.3107740e-01	  -3.0140717e-02	
   8.3160000e+01	  -3.2993790e-01	  -3.3100945e-02	
   8.3215000e+01	  -3.2931966e-01	  -3.6338744e-02	
   8.3270000e+01	  -3.2915743e-01	  -3.9843919e-02	
   8.3325000e+01	  -3.2939728e-01	  -4.3603113e-02	
   8.3380000e+01	  -3.2999427e-01	  -4.7597834e-02	
   8.3435000e+01	  -3.3091077e-01	  -5.1802258e-02	
   8.3490000e+01	  -3.3211626e-01	  -5.6182036e-02	
   8.3545000e+01	  -3.3358916e-01	  -6.0695206e-02	
   8.3600000e+01	  -3.3531841e-01	  -6.5294815e-02	
   8.3655000e+01	  -3.3730165e-01	  -6.9931540e-02	
   8.3710000e+01	  -3.3953913e-01	  -7.4554951e-02	
   8.3765000e+01	  -3.4202582e-01	  -7.9113301e-02	
   8.3820000e+01	  -3.4474497e-01	  -8.3552409e-02	
   8.3875000e+01	  -3.4766446e-01	  -8.7814757e-02	
   8.3930000e+01	  -3.5073596e-01	  -9.1840208e-02	
   8.3985000e+01	  -3.5389740e-01	  -9.5569163e-02	
   8.4040000e+01	  -3.5707956e-01	  -9.8947418e-02	
   8.4095000e+01	  -3.6021576e-01	  -1.0193093e-01	
   8.4150000e+01	  -3.6325174e-01	  -1.0448896e-01	
   8.4205000e+01	  -3.6615328e-01	  -1.0660522e-01	
   8.4260000e+01	  -3.6891050e-01	  -1.0827730e-01	
   8.4315000e+01	  -3.7153862e-01	  -1.0951480e-01	
   8.4370000e+01	  -3.7407511e-01	  -1.1033665e-01	
   8.4425000e+01	  -3.7657420e-01	  -1.1076857e-01	
   8.4480000e+01	  -3.7909972e-01	  -1.1084143e-01	
   8.4535000e+01	  -3.8171695e-01	  -1.1059076e-01	
   8.4590000e+01	  -3.8448447e-01	  -1.1005706e-01	
   8.4645000e+01	  -3.8744709e-01	  -1.0928681e-01	
   8.4700000e+01	  -3.9062989e-01	  -1.0833380e-01	
   8.4755000e+01	  -3.9403286e-01	  -1.0725974e-01	
   8.4810000e+01	  -3.9762625e-01	  -1.0613338e-01	
   8.4865000e+01	  -4.0134906e-01	  -1.0502796e-01	
   8.4920000e+01	  -4.0511269e-01	  -1.0401690e-01	
   8.4975000e+01	  -4.0880947e-01	  -1.0316800e-01	
   8.5030000e+01	  -4.1232504e-01	  -1.0253666e-01	
   8.5085000e+01	  -4.1555285e-01	  -1.0216036e-01	
   8.5140000e+01	  -4.1840745e-01	  -1.0205546e-01	
   8.5195000e+01	  -4.2083161e-01	  -1.0221674e-01	
   8.5250000e+01	  -4.2279536e-01	  -1.0261949e-01	
   8.5305000e+01	  -4.2428942e-01	  -1.0322387e-01	
   8.5360000e+01	  -4.2531793e-01	  -1.0398134e-01	
   8.5415000e+01	  -4.2589286e-01	  -1.0484221e-01	
   8.5470000e+01	  -4.2602953e-01	  -1.0576206e-01	
   8.5525000e+01	  -4.2574349e-01	  -1.0670570e-01	
   8.5580000e+01	  -4.2504942e-01	  -1.0764800e-01	
   8.5635000e+01	  -4.2396202e-01	  -1.0857185e-01	
   8.5690000e+01	  -4.2249790e-01	  -1.0946402e-01	
   8.5745000e+01	  -4.2067746e-01	  -1.1031069e-01	
   8.5800000e+01	  -4.1852585e-01	  -1.1109426e-01	
   8.5855000e+01	  -4.1607267e-01	  -1.1179200e-01	
   8.5910000e+01	  -4.1335073e-01	  -1.1237710e-01	
   8.5965000e+01	  -4.1039472e-01	  -1.1282175e-01	
   8.6020000e+01	  -4.0724065e-01	  -1.1310146e-01	
   8.6075000e+01	  -4.0392729e-01	  -1.1319932e-01	
   8.6130000e+01	  -4.0049979e-01	  -1.1310888e-01	
   8.6185000e+01	  -3.9701428e-01	  -1.1283571e-01	
   8.6240000e+01	  -3.9354062e-01	  -1.1239714e-01	
   8.6295000e+01	  -3.9016108e-01	  -1.1181943e-01	
   8.6350000e+01	  -3.8696442e-01	  -1.1113209e-01	
   8.6405000e+01	  -3.8403769e-01	  -1.1036079e-01	
   8.6460000e+01	  -3.8145972e-01	  -1.0952211e-01	
   8.6515000e+01	  -3.7929880e-01	  -1.0862146e-01	
   8.6570000e+01	  -3.7761336e-01	  -1.0765406e-01	
   8.6625000e+01	  -3.7645324e-01	  -1.0660765e-01	
   8.6680000e+01	  -3.7585981e-01	  -1.0546596e-01	
   8.6735000e+01	  -3.7586393e-01	  -1.0421276e-01	
   8.6790000e+01	  -3.7648160e-01	  -1.0283525e-01	
   8.6845000e+01	  -3.7770962e-01	  -1.0132635e-01	
   8.6900000e+01	  -3.7952313e-01	  -9.9685725e-02	
   8.6955000e+01	  -3.8187497e-01	  -9.7919776e-02	
   8.7010000e+01	  -3.8469530e-01	  -9.6040070e-02	
   8.7065000e+01	  -3.8789302e-01	  -9.4060277e-02	
   8.7120000e+01	  -3.9136133e-01	  -9.1993273e-02	
   8.7175000e+01	  -3.9498764e-01	  -8.9850141e-02	
   8.7230000e+01	  -3.9866357e-01	  -8.7641164e-02	
   8.7285000e+01	  -4.0229102e-01	  -8.5377581e-02	
   8.7340000e+01	  -4.0578313e-01	  -8.3072937e-02	
   8.7395000e+01	  -4.0906282e-01	  -8.0743914e-02	
   8.7450000e+01	  -4.1206164e-01	  -7.8410818e-02	
   8.7505000e+01	  -4.1472016e-01	  -7.6097359e-02	
   8.7560000e+01	  -4.1699003e-01	  -7.3829280e-02	
   8.7615000e+01	  -4.1883784e-01	  -7.1632178e-02	
   8.7670000e+01	  -4.2024982e-01	  -6.9529130e-02	
   8.7725000e+01	  -4.2123480e-01	  -6.7538296e-02	
   8.7780000e+01	  -4.2182303e-01	  -6.5670408e-02	
   8.7835000e+01	  -4.2206097e-01	  -6.3926478e-02	
   8.7890000e+01	  -4.2200349e-01	  -6.2296407e-02	
   8.7945000e+01	  -4.2170613e-01	  -6.0759502e-02	
   8.8000000e+01	  -4.2121938e-01	  -5.9288099e-02	
   8.8055000e+01	  -4.2058521e-01	  -5.7854683e-02	
   8.8110000e+01	  -4.1983496e-01	  -5.6440368e-02	
   8.8165000e+01	  -4.1898742e-01	  -5.5040745e-02	
   8.8220000e+01	  -4.1804665e-01	  -5.3666270e-02	
   8.8275000e+01	  -4.1700072e-01	  -5.2337108e-02	
   8.8330000e+01	  -4.1582225e-01	  -5.1074351e-02	
   8.8385000e+01	  -4.1447056e-01	  -4.9890368e-02	
   8.8440000e+01	  -4.1289436e-01	  -4.8781326e-02	
   8.8495000e+01	  -4.1103507e-01	  -4.7724037e-02	
   8.8550000e+01	  -4.0883114e-01	  -4.6677218e-02	
   8.8605000e+01	  -4.0622273e-01	  -4.5585585e-02	
   8.8660000e+01	  -4.0315517e-01	  -4.4385273e-02	
   8.8715000e+01	  -3.9958013e-01	  -4.3009560e-02	
   8.8770000e+01	  -3.9545403e-01	  -4.1394044e-02	
   8.8825000e+01	  -3.9073433e-01	  -3.9480225e-02	
   8.8880000e+01	  -3.8537630e-01	  -3.7216604e-02	
   8.8935000e+01	  -3.7933296e-01	  -3.4557361e-02	
   8.8990000e+01	  -3.7255829e-01	  -3.1460010e-02	
   8.9045000e+01	  -3.6501156e-01	  -2.7883654e-02	
   8.9100000e+01	  -3.5666013e-01	  -2.3788792e-02	
   8.9155000e+01	  -3.4748040e-01	  -1.9138937e-02	
   8.9210000e+01	  -3.3745749e-01	  -1.3903846e-02	
   8.9265000e+01	  -3.2658424e-01	  -8.0634865e-03	
   8.9320000e+01	  -3.1486040e-01	  -1.6116317e-03	
   8.9375000e+01	  -3.0229243e-01	   5.4412538e-03	
   8.9430000e+01	  -2.8889462e-01	   1.3065607e-02	
   8.9485000e+01	  -2.7469071e-01	   2.1211312e-02	
   8.9540000e+01	  -2.5971478e-01	   2.9808828e-02	
   8.9595000e+01	  -2.4401057e-01	   3.8774005e-02	
   8.9650000e+01	  -2.2762902e-01	   4.8015574e-02	
   8.9705000e+01	  -2.1062478e-01	   5.7443093e-02	
   8.9760000e+01	  -1.9305207e-01	   6.6973634e-02	
   8.9815000e+01	  -1.7496198e-01	   7.6536269e-02	
   8.9870000e+01	  -1.5640354e-01	   8.6073615e-02	
   8.9925000e+01	  -1.3742893e-01	   9.5540104e-02	
   8.9980000e+01	  -1.1810057e-01	   1.0489754e-01	
   9.0035000e+01	  -9.8496947e-02	   1.1410923e-01	
   9.0090000e+01	  -7.8716457e-02	   1.2313367e-01	
   9.0145000e+01	  -5.8879673e-02	   1.3191874e-01	
   9.0200000e+01	  -3.9129640e-02	   1.4039771e-01	
   9.0255000e+01	  -1.9629742e-02	   1.4848879e-01	
   9.0310000e+01	  -5.6017210e-04	   1.5609835e-01	
   9.0365000e+01	   1.7885778e-02	   1.6312704e-01	
   9.0420000e+01	   3.5505870e-02	   1.6947773e-01	
   9.0475000e+01	   5.2093872e-02	   1.7506375e-01	
   9.0530000e+01	   6.7444890e-02	   1.7981521e-01	
   9.0585000e+01	   8.1362292e-02	   1.8368132e-01	
   9.0640000e+01	   9.3668512e-02	   1.8662885e-01	
   9.0695000e+01	   1.0421842e-01	   1.8863844e-01	
   9.0750000e+01	   1.1291018e-01	   1.8970083e-01	
   9.0805000e+01	   1.1969020e-01	   1.8981406e-01	
   9.0860000e+01	   1.2455310e-01	   1.8898240e-01	
   9.0915000e+01	   1.2753983e-01	   1.8721779e-01	
   9.0970000e+01	   1.2873600e-01	   1.8454325e-01	
   9.1025000e+01	   1.2827027e-01	   1.8099660e-01	
   9.1080000e+01	   1.2631151e-01	   1.7663238e-01	
   9.1135000e+01	   1.2306318e-01	   1.7152125e-01	
   9.1190000e+01	   1.1875470e-01	   1.6574745e-01	
   9.1245000e+01	   1.1363203e-01	   1.5940487e-01	
   9.1300000e+01	   1.0794905e-01	   1.5259214e-01	
   9.1355000e+01	   1.0196016e-01	   1.4540675e-01	
   9.1410000e+01	   9.5912319e-02	   1.3793893e-01	
   9.1465000e+01	   9.0033948e-02	   1.3026621e-01	
   9.1520000e+01	   8.4521136e-02	   1.2245003e-01	
   9.1575000e+01	   7.9525201e-02	   1.1453558e-01	
   9.1630000e+01	   7.5145986e-02	   1.0655467e-01	
   9.1685000e+01	   7.1431172e-02	   9.8529911e-02	
   9.1740000e+01	   6.8379539e-02	   9.0478628e-02	
   9.1795000e+01	   6.5947015e-02	   8.2416601e-02	
   9.1850000e+01	   6.4055404e-02	   7.4361783e-02	
   9.1905000e+01	   6.2603566e-02	   6.6337272e-02	
   9.1960000e+01	   6.1479960e-02	   5.8372476e-02	
   9.2015000e+01	   6.0574478e-02	   5.0502415e-02	
   9.2070000e+01	   5.9787137e-02	   4.2765748e-02	
   9.2125000e+01	   5.9032872e-02	   3.5202003e-02	
   9.2180000e+01	   5.8244636e-02	   2.7848716e-02	
   9.2235000e+01	   5.7378107e-02	   2.0739727e-02	
   9.2290000e+01	   5.6418470e-02	   1.3905398e-02	
   9.2345000e+01	   5.5385955e-02	   7.3740310e-03	
   9.2400000e+01	   5.4336624e-02	   1.1730384e-03	
   9.2455000e+01	   5.3358237e-02	  -4.6707778e-03	
   9.2510000e+01	   5.2563536e-02	  -1.0131786e-02	
   9.2565000e+01	   5.2082609e-02	  -1.5187089e-02	
   9.2620000e+01	   5.2054089e-02	  -1.9819491e-02	
   9.2675000e+01	   5.2614756e-02	  -2.4021668e-02	
   9.2730000e+01	   5.3888131e-02	  -2.7800450e-02	
   9.2785000e+01	   5.5973226e-02	  -3.1179694e-02	
   9.2840000e+01	   5.8935043e-02	  -3.4200339e-02	
   9.2895000e+01	   6.2799048e-02	  -3.6916814e-02	
   9.2950000e+01	   6.7551062e-02	  -3.9390293e-02	
   9.3005000e+01	   7.3141802e-02	  -4.1680726e-02	
   9.3060000e+01	   7.9493901e-02	  -4.3839768e-02	
   9.3115000e+01	   8.6509356e-02	  -4.5905846e-02	
   9.3170000e+01	   9.4075155e-02	  -4.7902020e-02	
   9.3225000e+01	   1.0206504e-01	  -4.9837132e-02	
   9.3280000e+01	   1.1033848e-01	  -5.1710349e-02	
   9.3335000e+01	   1.1874146e-01	  -5.3518028e-02	
   9.3390000e+01	   1.2711257e-01	  -5.5260641e-02	
   9.3445000e+01	   1.3529239e-01	  -5.6947410e-02	
   9.3500000e+01	   1.4313309e-01	  -5.8597681e-02	
   9.3555000e+01	   1.5050709e-01	  -6.0239294e-02	
   9.3610000e+01	   1.5731556e-01	  -6.1904560e-02	
   9.3665000e+01	   1.6349451e-01	  -6.3624990e-02	
   9.3720000e+01	   1.6901618e-01	  -6.5426660e-02	
   9.3775000e+01	   1.7388674e-01	  -6.7327525e-02	
   9.3830000e+01	   1.7814367e-01	  -6.9336547e-02	
   9.3885000e+01	   1.8185348e-01	  -7.1453876e-02	
   9.3940000e+01	   1.8510819e-01	  -7.3672234e-02	
   9.3995000e+01	   1.8801942e-01	  -7.5979979e-02	
   9.4050000e+01	   1.9071082e-01	  -7.8365322e-02	
   9.4105000e+01	   1.9331068e-01	  -8.0820129e-02	
   9.4160000e+01	   1.9594590e-01	  -8.3342205e-02	
   9.4215000e+01	   1.9873792e-01	  -8.5935591e-02	
   9.4270000e+01	   2.0180027e-01	  -8.8608388e-02	
   9.4325000e+01	   2.0523612e-01	  -9.1368139e-02	
   9.4380000e+01	   2.0913372e-01	  -9.4216350e-02	
   9.4435000e+01	   2.1355989e-01	  -9.7144442e-02	
   9.4490000e+01	   2.1855372e-01	  -1.0013226e-01	
   9.4545000e+01	   2.2412218e-01	  -1.0314915e-01	
   9.4600000e+01	   2.3023721e-01	  -1.0615745e-01	
   9.4655000e+01	   2.3683338e-01	  -1.0911781e-01	
   9.4710000e+01	   2.4380595e-01	  -1.1199482e-01	
   9.4765000e+01	   2.5101020e-01	  -1.1476147e-01	
   9.4820000e+01	   2.5826244e-01	  -1.1740205e-01	
   9.4875000e+01	   2.6534271e-01	  -1.1991395e-01	
   9.4930000e+01	   2.7200076e-01	  -1.2230680e-01	
   9.4985000e+01	   2.7796760e-01	  -1.2459812e-01	
   9.5040000e+01	   2.8297267e-01	  -1.2680617e-01	
   9.5095000e+01	   2.8676363e-01	  -1.2894324e-01	
   9.5150000e+01	   2.8912506e-01	  -1.3101136e-01	
   9.5205000e+01	   2.8989267e-01	  -1.3300088e-01	
   9.5260000e+01	   2.8895988e-01	  -1.3489228e-01	
   9.5315000e+01	   2.8627644e-01	  -1.3666116e-01	
   9.5370000e+01	   2.8184074e-01	  -1.3828582e-01	
   9.5425000e+01	   2.7568982e-01	  -1.3975531e-01	
   9.5480000e+01	   2.6789032e-01	  -1.4107604e-01	
   9.5535000e+01	   2.5853241e-01	  -1.4227555e-01	
   9.5590000e+01	   2.4772701e-01	  -1.4340107e-01	
   9.5645000e+01	   2.3560576e-01	  -1.4451264e-01	
   9.5700000e+01	   2.2232234e-01	  -1.4567338e-01	
   9.5755000e+01	   2.0805396e-01	  -1.4694100e-01	
   9.5810000e+01	   1.9300156e-01	  -1.4836236e-01	
   9.5865000e+01	   1.7738824e-01	  -1.4997023e-01	
   9.5920000e+01	   1.6145545e-01	  -1.5178189e-01	
   9.5975000e+01	   1.4545721e-01	  -1.5380068e-01	
   9.6030000e+01	   1.2965204e-01	  -1.5602012e-01	
   9.6085000e+01	   1.1429357e-01	  -1.5842875e-01	
   9.6140000e+01	   9.9621773e-02	  -1.6101313e-01	
   9.6195000e+01	   8.5856773e-02	  -1.6375882e-01	
   9.6250000e+01	   7.3196378e-02	  -1.6665010e-01	
   9.6305000e+01	   6.1816905e-02	  -1.6966855e-01	
   9.6360000e+01	   5.1874755e-02	  -1.7279074e-01	
   9.6415000e+01	   4.3505896e-02	  -1.7598597e-01	
   9.6470000e+01	   3.6822209e-02	  -1.7921536e-01	
   9.6525000e+01	   3.1905829e-02	  -1.8243244e-01	
   9.6580000e+01	   2.8803257e-02	  -1.8558485e-01	
   9.6635000e+01	   2.7520201e-02	  -1.8861658e-01	
   9.6690000e+01	   2.8017272e-02	  -1.9147115e-01	
   9.6745000e+01	   3.0207392e-02	  -1.9409590e-01	
   9.6800000e+01	   3.3957511e-02	  -1.9644617e-01	
   9.6855000e+01	   3.9096402e-02	  -1.9848793e-01	
   9.6910000e+01	   4.5426172e-02	  -2.0019813e-01	
   9.6965000e+01	   5.2732475e-02	  -2.0156340e-01	
   9.7020000e+01	   6.0790624e-02	  -2.0257786e-01	
   9.7075000e+01	   6.9368713e-02	  -2.0324135e-01	
   9.7130000e+01	   7.8230556e-02	  -2.0355887e-01	
   9.7185000e+01	   8.7140645e-02	  -2.0354094e-01	
   9.7240000e+01	   9.5871351e-02	  -2.0320367e-01	
   9.7295000e+01	   1.0421084e-01	  -2.0256803e-01	
   9.7350000e+01	   1.1196986e-01	  -2.0165849e-01	
   9.7405000e+01	   1.1898674e-01	  -2.0050112e-01	
   9.7460000e+01	   1.2513156e-01	  -1.9912171e-01	
   9.7515000e+01	   1.3031046e-01	  -1.9754443e-01	
   9.7570000e+01	   1.3446948e-01	  -1.9579209e-01	
   9.7625000e+01	   1.3759718e-01	  -1.9388771e-01	
   9.7680000e+01	   1.3972590e-01	  -1.9185607e-01	
   9.7735000e+01	   1.4093080e-01	  -1.8972451e-01	
   9.7790000e+01	   1.4132445e-01	  -1.8752376e-01	
   9.7845000e+01	   1.4104662e-01	  -1.8528942e-01	
   9.7900000e+01	   1.4025213e-01	  -1.8306412e-01	
   9.7955000e+01	   1.3909952e-01	  -1.8089949e-01	
   9.8010000e+01	   1.3774136e-01	  -1.7885661e-01	
   9.8065000e+01	   1.3631526e-01	  -1.7700404e-01	
   9.8120000e+01	   1.3493581e-01	  -1.7541274e-01	
   9.8175000e+01	   1.3368899e-01	  -1.7414873e-01	
   9.8230000e+01	   1.3262978e-01	  -1.7326532e-01	
   9.8285000e+01	   1.3178222e-01	  -1.7279739e-01	
   9.8340000e+01	   1.3114104e-01	  -1.7275892e-01	
   9.8395000e+01	   1.3067616e-01	  -1.7314360e-01	
   9.8450000e+01	   1.3034048e-01	  -1.7392764e-01	
   9.8505000e+01	   1.3007822e-01	  -1.7507437e-01	
   9.8560000e+01	   1.2983079e-01	  -1.7653923e-01	
   9.8615000e+01	   1.2953960e-01	  -1.7827400e-01	
   9.8670000e+01	   1.2914653e-01	  -1.8022904e-01	
   9.8725000e+01	   1.2859350e-01	  -1.8235344e-01	
   9.8780000e+01	   1.2782378e-01	  -1.8459302e-01	
   9.8835000e+01	   1.2678755e-01	  -1.8688653e-01	
   9.8890000e+01	   1.2544943e-01	  -1.8916269e-01	
   9.8945000e+01	   1.2379252e-01	  -1.9134024e-01	
   9.9000000e+01	   1.2181592e-01	  -1.9333202e-01	
   9.9055000e+01	   1.1952839e-01	  -1.9505170e-01	
   9.9110000e+01	   1.1694134e-01	  -1.9642203e-01	
   9.9165000e+01	   1.1406156e-01	  -1.9738330e-01	
   9.9220000e+01	   1.1088313e-01	  -1.9790075e-01	
   9.9275000e+01	   1.0737913e-01	  -1.9796931e-01	
   9.9330000e+01	   1.0349557e-01	  -1.9761487e-01	
   9.9385000e+01	   9.9150160e-02	  -1.9689209e-01	
   9.9440000e+01	   9.4237044e-02	  -1.9587875e-01	
   9.9495000e+01	   8.8636728e-02	  -1.9466710e-01	
   9.9550000e+01	   8.2228381e-02	  -1.9335312e-01	
   9.9605000e+01	   7.4901354e-02	  -1.9202613e-01	
   9.9660000e+01	   6.6564054e-02	  -1.9076077e-01	
   9.9715000e+01	   5.7150735e-02	  -1.8961216e-01	
   9.9770000e+01	   4.6627638e-02	  -1.8861383e-01	
   9.9825000e+01	   3.4997974e-02	  -1.8777793e-01	
   9.9880000e+01	   2.2303293e-02	  -1.8709696e-01	
   9.9935000e+01	   8.6196845e-03	  -1.8654684e-01	
   9.9990000e+01	  -5.9503666e-03	  -1.8609104e-01	
   1.0004500e+02	  -2.1288453e-02	  -1.8568592e-01	
   1.0010000e+02	  -3.7271122e-02	  -1.8528671e-01	
   1.0015500e+02	  -5.3779079e-02	  -1.8485303e-01	
   1.0021000e+02	  -7.0703439e-02	  -1.8435242e-01	
   1.0026500e+02	  -8.7950378e-02	  -1.8376150e-01	
   1.0032000e+02	  -1.0544591e-01	  -1.8306581e-01	
   1.0037500e+02	  -1.2313904e-01	  -1.8225921e-01	
   1.0043000e+02	  -1.4100017e-01	  -1.8134283e-01	
   1.0048500e+02	  -1.5901504e-01	  -1.8032413e-01	
   1.0054000e+02	  -1.7717795e-01	  -1.7921722e-01	
   1.0059500e+02	  -1.9548561e-01	  -1.7804430e-01	
   1.0065000e+02	  -2.1392970e-01	  -1.7683691e-01	
   1.0070500e+02	  -2.3248737e-01	  -1.7563618e-01	
   1.0076000e+02	  -2.5111241e-01	  -1.7449167e-01	
   1.0081500e+02	  -2.6973012e-01	  -1.7345840e-01	
   1.0087000e+02	  -2.8823735e-01	  -1.7259149e-01	
   1.0092500e+02	  -3.0650813e-01	  -1.7194020e-01	
   1.0098000e+02	  -3.2440443e-01	  -1.7154407e-01	
   1.0103500e+02	  -3.4178844e-01	  -1.7143139e-01	
   1.0109000e+02	  -3.5853164e-01	  -1.7161882e-01	
   1.0114500e+02	  -3.7451964e-01	  -1.7211164e-01	
   1.0120000e+02	  -3.8965539e-01	  -1.7290528e-01	
   1.0125500e+02	  -4.0386273e-01	  -1.7398795e-01	
   1.0131000e+02	  -4.1708954e-01	  -1.7534323e-01	
   1.0136500e+02	  -4.2930868e-01	  -1.7695117e-01	
   1.0142000e+02	  -4.4051674e-01	  -1.7878744e-01	
   1.0147500e+02	  -4.5073215e-01	  -1.8082017e-01	
   1.0153000e+02	  -4.5999410e-01	  -1.8300604e-01	
   1.0158500e+02	  -4.6836291e-01	  -1.8528807e-01	
   1.0164000e+02	  -4.7592123e-01	  -1.8759708e-01	
   1.0169500e+02	  -4.8277498e-01	  -1.8985671e-01	
   1.0175000e+02	  -4.8905272e-01	  -1.9199019e-01	
   1.0180500e+02	  -4.9490395e-01	  -1.9392676e-01	
   1.0186000e+02	  -5.0049701e-01	  -1.9560713e-01	
   1.0191500e+02	  -5.0601584e-01	  -1.9698790e-01	
   1.0197000e+02	  -5.1165236e-01	  -1.9804464e-01	
   1.0202500e+02	  -5.1759315e-01	  -1.9877295e-01	
   1.0208000e+02	  -5.2400312e-01	  -1.9918745e-01	
   1.0213500e+02	  -5.3101071e-01	  -1.9931888e-01	
   1.0219000e+02	  -5.3869712e-01	  -1.9920889e-01	
   1.0224500e+02	  -5.4708989e-01	  -1.9890268e-01	
   1.0230000e+02	  -5.5616135e-01	  -1.9844155e-01	
   1.0235500e+02	  -5.6583319e-01	  -1.9785775e-01	
   1.0241000e+02	  -5.7598615e-01	  -1.9717312e-01	
   1.0246500e+02	  -5.8647223e-01	  -1.9640099e-01	
   1.0252000e+02	  -5.9712835e-01	  -1.9555044e-01	
   1.0257500e+02	  -6.0779188e-01	  -1.9463210e-01	
   1.0263000e+02	  -6.1831759e-01	  -1.9366373e-01	
   1.0268500e+02	  -6.2859247e-01	  -1.9267385e-01	
   1.0274000e+02	  -6.3854541e-01	  -1.9170190e-01	
   1.0279500e+02	  -6.4815044e-01	  -1.9079525e-01	
   1.0285000e+02	  -6.5742412e-01	  -1.9000387e-01	
   1.0290500e+02	  -6.6641924e-01	  -1.8937333e-01	
   1.0296000e+02	  -6.7521715e-01	  -1.8893795e-01	
   1.0301500e+02	  -6.8392034e-01	  -1.8871621e-01	
   1.0307000e+02	  -6.9264415e-01	  -1.8870944e-01	
   1.0312500e+02	  -7.0150772e-01	  -1.8890354e-01	
   1.0318000e+02	  -7.1062557e-01	  -1.8927344e-01	
   1.0323500e+02	  -7.2010175e-01	  -1.8978984e-01	
   1.0329000e+02	  -7.3002727e-01	  -1.9042698e-01	
   1.0334500e+02	  -7.4047992e-01	  -1.9116872e-01	
   1.0340000e+02	  -7.5152403e-01	  -1.9201090e-01	
   1.0345500e+02	  -7.6320815e-01	  -1.9295975e-01	
   1.0351000e+02	  -7.7556045e-01	  -1.9402714e-01	
   1.0356500e+02	  -7.8858290e-01	  -1.9522435e-01	
   1.0362000e+02	  -8.0224554e-01	  -1.9655644e-01	
   1.0367500e+02	  -8.1648225e-01	  -1.9801873e-01	
   1.0373000e+02	  -8.3118929e-01	  -1.9959562e-01	
   1.0378500e+02	  -8.4622753e-01	  -2.0126145e-01	
   1.0384000e+02	  -8.6142873e-01	  -2.0298332e-01	
   1.0389500e+02	  -8.7660471e-01	  -2.0472551e-01	
   1.0395000e+02	  -8.9155729e-01	  -2.0645453e-01	
   1.0400500e+02	  -9.0608673e-01	  -2.0814336e-01	
   1.0406000e+02	  -9.1999830e-01	  -2.0977367e-01	
   1.0411500e+02	  -9.3310898e-01	  -2.1133500e-01	
   1.0417000e+02	  -9.4525633e-01	  -2.1282137e-01	
   1.0422500e+02	  -9.5630905e-01	  -2.1422653e-01	
   1.0428000e+02	  -9.6617656e-01	  -2.1553994e-01	
   1.0433500e+02	  -9.7481484e-01	  -2.1674508e-01	
   1.0439000e+02	  -9.8222768e-01	  -2.1782115e-01	
   1.0444500e+02	  -9.8846553e-01	  -2.1874722e-01	
   1.0450000e+02	  -9.9362424e-01	  -2.1950722e-01	
   1.0455500e+02	  -9.9784453e-01	  -2.2009418e-01	
   1.0461000e+02	  -1.0013094e+00	  -2.2051253e-01	
   1.0466500e+02	  -1.0042358e+00	  -2.2077722e-01	
   1.0472000e+02	  -1.0068595e+00	  -2.2090884e-01	
   1.0477500e+02	  -1.0094163e+00	  -2.2092593e-01	
   1.0483000e+02	  -1.0121268e+00	  -2.2083715e-01	
   1.0488500e+02	  -1.0151860e+00	  -2.2063574e-01	
   1.0494000e+02	  -1.0187555e+00	  -2.2029748e-01	
   1.0499500e+02	  -1.0229554e+00	  -2.1978259e-01	
   1.0505000e+02	  -1.0278562e+00	  -2.1904103e-01	
   1.0510500e+02	  -1.0334756e+00	  -2.1802032e-01	
   1.0516000e+02	  -1.0397805e+00	  -2.1667394e-01	
   1.0521500e+02	  -1.0466922e+00	  -2.1496829e-01	
   1.0527000e+02	  -1.0540938e+00	  -2.1288766e-01	
   1.0532500e+02	  -1.0618365e+00	  -2.1043686e-01	
   1.0538000e+02	  -1.0697437e+00	  -2.0764088e-01	
   1.0543500e+02	  -1.0776145e+00	  -2.0454149e-01	
   1.0549000e+02	  -1.0852275e+00	  -2.0119191e-01	
   1.0554500e+02	  -1.0923462e+00	  -1.9765125e-01	
   1.0560000e+02	  -1.0987272e+00	  -1.9398024e-01	
   1.0565500e+02	  -1.1041287e+00	  -1.9023851e-01	
   1.0571000e+02	  -1.1083202e+00	  -1.8648413e-01	
   1.0576500e+02	  -1.1110918e+00	  -1.8277507e-01	
   1.0582000e+02	  -1.1122617e+00	  -1.7917096e-01	
   1.0587500e+02	  -1.1116821e+00	  -1.7573334e-01	
   1.0593000e+02	  -1.1092438e+00	  -1.7252399e-01	
   1.0598500e+02	  -1.1048782e+00	  -1.6960157e-01	
   1.0604000e+02	  -1.0985563e+00	  -1.6701619e-01	
   1.0609500e+02	  -1.0902850e+00	  -1.6480209e-01	
   1.0615000e+02	  -1.0801036e+00	  -1.6297032e-01	
   1.0620500e+02	  -1.0680825e+00	  -1.6150369e-01	
   1.0626000e+02	  -1.0543243e+00	  -1.6035568e-01	
   1.0631500e+02	  -1.0389669e+00	  -1.5945367e-01	
   1.0637000e+02	  -1.0221865e+00	  -1.5870652e-01	
   1.0642500e+02	  -1.0041978e+00	  -1.5801514e-01	
   1.0648000e+02	  -9.8525205e-01	  -1.5728391e-01	
   1.0653500e+02	  -9.6563059e-01	  -1.5643062e-01	
   1.0659000e+02	  -9.4563704e-01	  -1.5539364e-01	
   1.0664500e+02	  -9.2558749e-01	  -1.5413499e-01	
   1.0670000e+02	  -9.0579973e-01	  -1.5263932e-01	
   1.0675500e+02	  -8.8658247e-01	  -1.5090996e-01	
   1.0681000e+02	  -8.6822657e-01	  -1.4896527e-01	
   1.0686500e+02	  -8.5099793e-01	  -1.4683670e-01	
   1.0692000e+02	  -8.3512954e-01	  -1.4456829e-01	
   1.0697500e+02	  -8.2081187e-01	  -1.4221631e-01	
   1.0703000e+02	  -8.0818318e-01	  -1.3984905e-01	
   1.0708500e+02	  -7.9732169e-01	  -1.3754679e-01	
   1.0714000e+02	  -7.8824027e-01	  -1.3540149e-01	
   1.0719500e+02	  -7.8088426e-01	  -1.3351495e-01	
   1.0725000e+02	  -7.7513269e-01	  -1.3199447e-01	
   1.0730500e+02	  -7.7080343e-01	  -1.3094538e-01	
   1.0736000e+02	  -7.6766318e-01	  -1.3046121e-01	
   1.0741500e+02	  -7.6544227e-01	  -1.3061311e-01	
   1.0747000e+02	  -7.6385239e-01	  -1.3144112e-01	
   1.0752500e+02	  -7.6260512e-01	  -1.3294935e-01	
   1.0758000e+02	  -7.6142918e-01	  -1.3510616e-01	
   1.0763500e+02	  -7.6008555e-01	  -1.3784826e-01	
   1.0769000e+02	  -7.5838049e-01	  -1.4108780e-01	
   1.0774500e+02	  -7.5617628e-01	  -1.4472173e-01	
   1.0780000e+02	  -7.5339746e-01	  -1.4864177e-01	
   1.0785500e+02	  -7.5002915e-01	  -1.5274261e-01	
   1.0791000e+02	  -7.4610725e-01	  -1.5692658e-01	
   1.0796500e+02	  -7.4170424e-01	  -1.6110510e-01	
   1.0802000e+02	  -7.3691458e-01	  -1.6519820e-01	
   1.0807500e+02	  -7.3184076e-01	  -1.6913357e-01	
   1.0813000e+02	  -7.2658147e-01	  -1.7284676e-01	
   1.0818500e+02	  -7.2122345e-01	  -1.7628300e-01	
   1.0824000e+02	  -7.1583805e-01	  -1.7940000e-01	
   1.0829500e+02	  -7.1048145e-01	  -1.8217005e-01	
   1.0835000e+02	  -7.0519633e-01	  -1.8458067e-01	
   1.0840500e+02	  -7.0001239e-01	  -1.8663333e-01	
   1.0846000e+02	  -6.9494408e-01	  -1.8834108e-01	
   1.0851500e+02	  -6.8998631e-01	  -1.8972672e-01	
   1.0857000e+02	  -6.8511069e-01	  -1.9082235e-01	
   1.0862500e+02	  -6.8026397e-01	  -1.9166914e-01	
   1.0868000e+02	  -6.7536952e-01	  -1.9231587e-01	
   1.0873500e+02	  -6.7033217e-01	  -1.9281646e-01	
   1.0879000e+02	  -6.6504649e-01	  -1.9322749e-01	
   1.0884500e+02	  -6.5940708e-01	  -1.9360689e-01	
   1.0890000e+02	  -6.5331850e-01	  -1.9401405e-01	
   1.0895500e+02	  -6.4670286e-01	  -1.9451102e-01	
   1.0901000e+02	  -6.3950323e-01	  -1.9516405e-01	
   1.0906500e+02	  -6.3168252e-01	  -1.9604432e-01	
   1.0912000e+02	  -6.2322042e-01	  -1.9722749e-01	
   1.0917500e+02	  -6.1411031e-01	  -1.9879143e-01	
   1.0923000e+02	  -6.0435531e-01	  -2.0081154e-01	
   1.0928500e+02	  -5.9396329e-01	  -2.0335421e-01	
   1.0934000e+02	  -5.8294384e-01	  -2.0647021e-01	
   1.0939500e+02	  -5.7130975e-01	  -2.1019006e-01	
   1.0945000e+02	  -5.5908077e-01	  -2.1452158e-01	
   1.0950500e+02	  -5.4628511e-01	  -2.1944943e-01	
   1.0956000e+02	  -5.3295708e-01	  -2.2493708e-01	
   1.0961500e+02	  -5.1913332e-01	  -2.3093108e-01	
   1.0967000e+02	  -5.0485067e-01	  -2.3736733e-01	
   1.0972500e+02	  -4.9014754e-01	  -2.4417745e-01	
   1.0978000e+02	  -4.7506775e-01	  -2.5129402e-01	
   1.0983500e+02	  -4.5966476e-01	  -2.5865359e-01	
   1.0989000e+02	  -4.4400497e-01	  -2.6619709e-01	
   1.0994500e+02	  -4.2817103e-01	  -2.7386793e-01	
   1.1000000e+02	  -4.1226547e-01	  -2.8160943e-01	
   1.1005500e+02	  -3.9641216e-01	  -2.8936191e-01	
   1.1011000e+02	  -3.8075197e-01	  -2.9706010e-01	
   1.1016500e+02	  -3.6543261e-01	  -3.0463105e-01	
   1.1022000e+02	  -3.5059766e-01	  -3.1199433e-01	
   1.1027500e+02	  -3.3637866e-01	  -3.1906498e-01	
   1.1033000e+02	  -3.2289047e-01	  -3.2575864e-01	
   1.1038500e+02	  -3.1022744e-01	  -3.3199657e-01	
   1.1044000e+02	  -2.9845994e-01	  -3.3770936e-01	
   1.1049500e+02	  -2.8763119e-01	  -3.4283904e-01	
   1.1055000e+02	  -2.7775456e-01	  -3.4733947e-01	
   1.1060500e+02	  -2.6881188e-01	  -3.5117566e-01	
   1.1066000e+02	  -2.6075458e-01	  -3.5432310e-01	
   1.1071500e+02	  -2.5350848e-01	  -3.5676835e-01	
   1.1077000e+02	  -2.4698004e-01	  -3.5851074e-01	
   1.1082500e+02	  -2.4106205e-01	  -3.5956348e-01	
   1.1088000e+02	  -2.3563760e-01	  -3.5995353e-01	
   1.1093500e+02	  -2.3058278e-01	  -3.5972084e-01	
   1.1099000e+02	  -2.2577082e-01	  -3.5891802e-01	
   1.1104500e+02	  -2.2107890e-01	  -3.5761047e-01	
   1.1110000e+02	  -2.1639692e-01	  -3.5587609e-01	
   1.1115500e+02	  -2.1163564e-01	  -3.5380437e-01	
   1.1121000e+02	  -2.0673276e-01	  -3.5149445e-01	
   1.1126500e+02	  -2.0165556e-01	  -3.4905158e-01	
   1.1132000e+02	  -1.9639966e-01	  -3.4658207e-01	
   1.1137500e+02	  -1.9098462e-01	  -3.4418844e-01	
   1.1143000e+02	  -1.8544870e-01	  -3.4196615e-01	
   1.1148500e+02	  -1.7984405e-01	  -3.4000166e-01	
   1.1154000e+02	  -1.7423231e-01	  -3.3837146e-01	
   1.1159500e+02	  -1.6868012e-01	  -3.3714242e-01	
   1.1165000e+02	  -1.6325460e-01	  -3.3637288e-01	
   1.1170500e+02	  -1.5801925e-01	  -3.3611314e-01	
   1.1176000e+02	  -1.5303116e-01	  -3.3640424e-01	
   1.1181500e+02	  -1.4833959e-01	  -3.3727499e-01	
   1.1187000e+02	  -1.4398451e-01	  -3.3873798e-01	
   1.1192500e+02	  -1.3999427e-01	  -3.4078560e-01	
   1.1198000e+02	  -1.3638199e-01	  -3.4338729e-01	
   1.1203500e+02	  -1.3314153e-01	  -3.4648864e-01	
   1.1209000e+02	  -1.3024466e-01	  -3.5001269e-01	
   1.1214500e+02	  -1.2764291e-01	  -3.5386299e-01	
   1.1220000e+02	  -1.2527514e-01	  -3.5792867e-01	
   1.1225500e+02	  -1.2307714e-01	  -3.6209088e-01	
   1.1231000e+02	  -1.2098863e-01	  -3.6623022e-01	
   1.1236500e+02	  -1.1895682e-01	  -3.7023373e-01	
   1.1242000e+02	  -1.1693768e-01	  -3.7399958e-01	
   1.1247500e+02	  -1.1489636e-01	  -3.7743850e-01	
   1.1253000e+02	  -1.1280759e-01	  -3.8047266e-01	
   1.1258500e+02	  -1.1065637e-01	  -3.8303403e-01	
   1.1264000e+02	  -1.0843818e-01	  -3.8506404e-01	
   1.1269500e+02	  -1.0615803e-01	  -3.8651502e-01	
   1.1275000e+02	  -1.0382838e-01	  -3.8735287e-01	
   1.1280500e+02	  -1.0146550e-01	  -3.8755940e-01	
   1.1286000e+02	  -9.9083678e-02	  -3.8713353e-01	
   1.1291500e+02	  -9.6688765e-02	  -3.8609065e-01	
   1.1297000e+02	  -9.4274896e-02	  -3.8446092e-01	
   1.1302500e+02	  -9.1825813e-02	  -3.8228746e-01	
   1.1308000e+02	  -8.9317464e-02	  -3.7962404e-01	
   1.1313500e+02	  -8.6718939e-02	  -3.7653158e-01	
   1.1319000e+02	  -8.3993087e-02	  -3.7307341e-01	
   1.1324500e+02	  -8.1099361e-02	  -3.6931088e-01	
   1.1330000e+02	  -7.7998342e-02	  -3.6529956e-01	
   1.1335500e+02	  -7.4655293e-02	  -3.6108632e-01	
   1.1341000e+02	  -7.1041165e-02	  -3.5670799e-01	
   1.1346500e+02	  -6.7130803e-02	  -3.5219234e-01	
   1.1352000e+02	  -6.2898485e-02	  -3.4756102e-01	
   1.1357500e+02	  -5.8312293e-02	  -3.4283276e-01	
   1.1363000e+02	  -5.3329968e-02	  -3.3802568e-01	
   1.1368500e+02	  -4.7897297e-02	  -3.3315840e-01	
   1.1374000e+02	  -4.1947311e-02	  -3.2824923e-01	
   1.1379500e+02	  -3.5399033e-02	  -3.2331341e-01	
   1.1385000e+02	  -2.8156969e-02	  -3.1835937e-01	
   1.1390500e+02	  -2.0113500e-02	  -3.1338564e-01	
   1.1396000e+02	  -1.1155156e-02	  -3.0837946e-01	
   1.1401500e+02	  -1.1716422e-03	  -3.0331689e-01	
   1.1407000e+02	   9.9346242e-03	  -2.9816453e-01	
   1.1412500e+02	   2.2239931e-02	  -2.9288288e-01	
   1.1418000e+02	   3.5791892e-02	  -2.8743114e-01	
   1.1423500e+02	   5.0603088e-02	  -2.8177221e-01	
   1.1429000e+02	   6.6645898e-02	  -2.7587654e-01	
   1.1434500e+02	   8.3850197e-02	  -2.6972376e-01	
   1.1440000e+02	   1.0210658e-01	  -2.6330107e-01	
   1.1445500e+02	   1.2127513e-01	  -2.5659900e-01	
   1.1451000e+02	   1.4119577e-01	  -2.4960663e-01	
   1.1456500e+02	   1.6169702e-01	  -2.4230930e-01	
   1.1462000e+02	   1.8260346e-01	  -2.3468961e-01	
   1.1467500e+02	   2.0374289e-01	  -2.2673003e-01	
   1.1473000e+02	   2.2495277e-01	  -2.1841567e-01	
   1.1478500e+02	   2.4608424e-01	  -2.0973798e-01	
   1.1484000e+02	   2.6700387e-01	  -2.0069962e-01	
   1.1489500e+02	   2.8759386e-01	  -1.9132009e-01	
   1.1495000e+02	   3.0775039e-01	  -1.8164070e-01	
   1.1500500e+02	   3.2737902e-01	  -1.7172826e-01	
   1.1506000e+02	   3.4638890e-01	  -1.6167599e-01	
   1.1511500e+02	   3.6468942e-01	  -1.5159998e-01	
   1.1517000e+02	   3.8219019e-01	  -1.4163086e-01	
   1.1522500e+02	   3.9880258e-01	  -1.3190324e-01	
   1.1528000e+02	   4.1444189e-01	  -1.2254568e-01	
   1.1533500e+02	   4.2903115e-01	  -1.1367298e-01	
   1.1539000e+02	   4.4250696e-01	  -1.0538114e-01	
   1.1544500e+02	   4.5482558e-01	  -9.7745062e-02	
   1.1550000e+02	   4.6596701e-01	  -9.0818892e-02	
   1.1555500e+02	   4.7593656e-01	  -8.4637882e-02	
   1.1561000e+02	   4.8476523e-01	  -7.9220863e-02	
   1.1566500e+02	   4.9250991e-01	  -7.4572958e-02	
   1.1572000e+02	   4.9925211e-01	  -7.0688241e-02	
   1.1577500e+02	   5.0509364e-01	  -6.7551405e-02	
   1.1583000e+02	   5.1014848e-01	  -6.5137692e-02	
   1.1588500e+02	   5.1453180e-01	  -6.3411702e-02	
   1.1594000e+02	   5.1834911e-01	  -6.2326764e-02	
   1.1599500e+02	   5.2168889e-01	  -6.1826200e-02	
   1.1605000e+02	   5.2462066e-01	  -6.1846594e-02	
   1.1610500e+02	   5.2719626e-01	  -6.2322452e-02	
   1.1616000e+02	   5.2945073e-01	  -6.3191547e-02	
   1.1621500e+02	   5.3140191e-01	  -6.4399924e-02	
   1.1627000e+02	   5.3305103e-01	  -6.5905272e-02	
   1.1632500e+02	   5.3438580e-01	  -6.7677450e-02	
   1.1638000e+02	   5.3538504e-01	  -6.9695627e-02	
   1.1643500e+02	   5.3602327e-01	  -7.1943073e-02	
   1.1649000e+02	   5.3627365e-01	  -7.4402210e-02	
   1.1654500e+02	   5.3610861e-01	  -7.7052480e-02	
   1.1660000e+02	   5.3549742e-01	  -7.9871403e-02	
   1.1665500e+02	   5.3440158e-01	  -8.2837413e-02	
   1.1671000e+02	   5.3276895e-01	  -8.5933339e-02	
   1.1676500e+02	   5.3052797e-01	  -8.9150361e-02	
   1.1682000e+02	   5.2758345e-01	  -9.2492098e-02	
   1.1687500e+02	   5.2381630e-01	  -9.5977353e-02	
   1.1693000e+02	   5.1908894e-01	  -9.9639794e-02	
   1.1698500e+02	   5.1325608e-01	  -1.0352430e-01	
   1.1704000e+02	   5.0617898e-01	  -1.0768155e-01	
   1.1709500e+02	   4.9774042e-01	  -1.1216255e-01	
   1.1715000e+02	   4.8785819e-01	  -1.1701380e-01	
   1.1720500e+02	   4.7649530e-01	  -1.2227300e-01	
   1.1726000e+02	   4.6366474e-01	  -1.2796576e-01	
   1.1731500e+02	   4.4942744e-01	  -1.3410393e-01	
   1.1737000e+02	   4.3388575e-01	  -1.4068514e-01	
   1.1742500e+02	   4.1717693e-01	  -1.4769314e-01	
   1.1748000e+02	   3.9946914e-01	  -1.5509784e-01	
   1.1753500e+02	   3.8095987e-01	  -1.6285489e-01	
   1.1759000e+02	   3.6187587e-01	  -1.7090468e-01	
   1.1764500e+02	   3.4247258e-01	  -1.7917155e-01	
   1.1770000e+02	   3.2303135e-01	  -1.8756384e-01	
   1.1775500e+02	   3.0385452e-01	  -1.9597548e-01	
   1.1781000e+02	   2.8526027e-01	  -2.0428865e-01	
   1.1786500e+02	   2.6757710e-01	  -2.1237705e-01	
   1.1792000e+02	   2.5113544e-01	  -2.2011062e-01	
   1.1797500e+02	   2.3625408e-01	  -2.2736248e-01	
   1.1803000e+02	   2.2322442e-01	  -2.3401726e-01	
   1.1808500e+02	   2.1229829e-01	  -2.3997831e-01	
   1.1814000e+02	   2.0368242e-01	  -2.4517152e-01	
   1.1819500e+02	   1.9753656e-01	  -2.4954515e-01	
   1.1825000e+02	   1.9397140e-01	  -2.5306672e-01	
   1.1830500e+02	   1.9304434e-01	  -2.5571915e-01	
   1.1836000e+02	   1.9475374e-01	  -2.5749833e-01	
   1.1841500e+02	   1.9903323e-01	  -2.5841280e-01	
   1.1847000e+02	   2.0574890e-01	  -2.5848466e-01	
   1.1852500e+02	   2.1470270e-01	  -2.5775072e-01	
   1.1858000e+02	   2.2564335e-01	  -2.5626390e-01	
   1.1863500e+02	   2.3828330e-01	  -2.5409459e-01	
   1.1869000e+02	   2.5231924e-01	  -2.5133093e-01	
   1.1874500e+02	   2.6745469e-01	  -2.4807619e-01	
   1.1880000e+02	   2.8342084e-01	  -2.4444331e-01	
   1.1885500e+02	   2.9999006e-01	  -2.4054832e-01	
   1.1891000e+02	   3.1697870e-01	  -2.3650473e-01	
   1.1896500e+02	   3.3424275e-01	  -2.3241890e-01	
   1.1902000e+02	   3.5167256e-01	  -2.2838551e-01	
   1.1907500e+02	   3.6918947e-01	  -2.2448312e-01	
   1.1913000e+02	   3.8674235e-01	  -2.2077053e-01	
   1.1918500e+02	   4.0430239e-01	  -2.1728494e-01	
   1.1924000e+02	   4.2185736e-01	  -2.1404127e-01	
   1.1929500e+02	   4.3940682e-01	  -2.1103222e-01	
   1.1935000e+02	   4.5695890e-01	  -2.0822858e-01	
   1.1940500e+02	   4.7452901e-01	  -2.0558029e-01	
   1.1946000e+02	   4.9214097e-01	  -2.0301902e-01	
   1.1951500e+02	   5.0982903e-01	  -2.0046261e-01	
   1.1957000e+02	   5.2763808e-01	  -1.9782068e-01	
   1.1962500e+02	   5.4562091e-01	  -1.9500031e-01	
   1.1968000e+02	   5.6383308e-01	  -1.9191070e-01	
   1.1973500e+02	   5.8232623e-01	  -1.8846694e-01	
   1.1979000e+02	   6.0114116e-01	  -1.8459358e-01	
   1.1984500e+02	   6.2030346e-01	  -1.8022859e-01	
   1.1990000e+02	   6.3982372e-01	  -1.7532667e-01	
   1.1995500e+02	   6.5970112e-01	  -1.6986041e-01	
   1.2001000e+02	   6.7992659e-01	  -1.6381936e-01	
   1.2006500e+02	   7.0048378e-01	  -1.5720783e-01	
   1.2012000e+02	   7.2134900e-01	  -1.5004214e-01	
   1.2017500e+02	   7.4249171e-01	  -1.4234819e-01	
   1.2023000e+02	   7.6387470e-01	  -1.3416044e-01	
   1.2028500e+02	   7.8545274e-01	  -1.2552206e-01	
   1.2034000e+02	   8.0716929e-01	  -1.1648492e-01	
   1.2039500e+02	   8.2895222e-01	  -1.0710843e-01	
   1.2045000e+02	   8.5070900e-01	  -9.7457295e-02	
   1.2050500e+02	   8.7232375e-01	  -8.7597933e-02	
   1.2056000e+02	   8.9365898e-01	  -7.7593052e-02	
   1.2061500e+02	   9.1456305e-01	  -6.7495370e-02	
   1.2067000e+02	   9.3488079e-01	  -5.7342301e-02	
   1.2072500e+02	   9.5446353e-01	  -4.7152700e-02	
   1.2078000e+02	   9.7317668e-01	  -3.6925945e-02	
   1.2083500e+02	   9.9090418e-01	  -2.6643331e-02	
   1.2089000e+02	   1.0075509e+00	  -1.6271773e-02	
   1.2094500e+02	   1.0230439e+00	  -5.7693836e-03	
   1.2100000e+02	   1.0373326e+00	   4.9081335e-03	
   1.2105500e+02	   1.0503890e+00	   1.5801715e-02	
   1.2111000e+02	   1.0622073e+00	   2.6944676e-02	
   1.2116500e+02	   1.0728047e+00	   3.8359898e-02	
   1.2122000e+02	   1.0822226e+00	   5.0057904e-02	
   1.2127500e+02	   1.0905269e+00	   6.2035265e-02	
   1.2133000e+02	   1.0978072e+00	   7.4272742e-02	
   1.2138500e+02	   1.1041738e+00	   8.6732718e-02	
   1.2144000e+02	   1.1097529e+00	   9.9356651e-02	
   1.2149500e+02	   1.1146791e+00	   1.1206438e-01	
   1.2155000e+02	   1.1190912e+00	   1.2475646e-01	
   1.2160500e+02	   1.1231280e+00	   1.3731954e-01	
   1.2166000e+02	   1.1269256e+00	   1.4963438e-01	
   1.2171500e+02	   1.1306166e+00	   1.6158606e-01	
   1.2177000e+02	   1.1343286e+00	   1.7307399e-01	
   1.2182500e+02	   1.1381804e+00	   1.8401920e-01	
   1.2188000e+02	   1.1422732e+00	   1.9436838e-01	
   1.2193500e+02	   1.1466791e+00	   2.0409557e-01	
   1.2199000e+02	   1.1514331e+00	   2.1320162e-01	
   1.2204500e+02	   1.1565306e+00	   2.2171072e-01	
   1.2210000e+02	   1.1619304e+00	   2.2966447e-01	
   1.2215500e+02	   1.1675609e+00	   2.3711543e-01	
   1.2221000e+02	   1.1733288e+00	   2.4412212e-01	
   1.2226500e+02	   1.1791278e+00	   2.5074595e-01	
   1.2232000e+02	   1.1848477e+00	   2.5705024e-01	
   1.2237500e+02	   1.1903851e+00	   2.6310024e-01	
   1.2243000e+02	   1.1956525e+00	   2.6896293e-01	
   1.2248500e+02	   1.2005869e+00	   2.7470575e-01	
   1.2254000e+02	   1.2051567e+00	   2.8039395e-01	
   1.2259500e+02	   1.2093664e+00	   2.8608756e-01	
   1.2265000e+02	   1.2132566e+00	   2.9183825e-01	
   1.2270500e+02	   1.2168988e+00	   2.9768651e-01	
   1.2276000e+02	   1.2203826e+00	   3.0365895e-01	
   1.2281500e+02	   1.2238023e+00	   3.0976605e-01	
   1.2287000e+02	   1.2272468e+00	   3.1600113e-01	
   1.2292500e+02	   1.2307959e+00	   3.2234074e-01	
   1.2298000e+02	   1.2345198e+00	   3.2874682e-01	
   1.2303500e+02	   1.2384796e+00	   3.3517098e-01	
   1.2309000e+02	   1.2427257e+00	   3.4156049e-01	
   1.2314500e+02	   1.2472953e+00	   3.4786372e-01	
   1.2320000e+02	   1.2522069e+00	   3.5403393e-01	
   1.2325500e+02	   1.2574543e+00	   3.6003122e-01	
   1.2331000e+02	   1.2630022e+00	   3.6582349e-01	
   1.2336500e+02	   1.2687843e+00	   3.7138657e-01	
   1.2342000e+02	   1.2747077e+00	   3.7670312e-01	
   1.2347500e+02	   1.2806608e+00	   3.8176006e-01	
   1.2353000e+02	   1.2865247e+00	   3.8654538e-01	
   1.2358500e+02	   1.2921847e+00	   3.9104498e-01	
   1.2364000e+02	   1.2975380e+00	   3.9523983e-01	
   1.2369500e+02	   1.3024977e+00	   3.9910434e-01	
   1.2375000e+02	   1.3069956e+00	   4.0260671e-01	
   1.2380500e+02	   1.3109825e+00	   4.0571147e-01	
   1.2386000e+02	   1.3144247e+00	   4.0838277e-01	
   1.2391500e+02	   1.3172956e+00	   4.1058747e-01	
   1.2397000e+02	   1.3195660e+00	   4.1229773e-01	
   1.2402500e+02	   1.3211953e+00	   4.1349264e-01	
   1.2408000e+02	   1.3221273e+00	   4.1415880e-01	
   1.2413500e+02	   1.3222913e+00	   4.1428981e-01	
   1.2419000e+02	   1.3216085e+00	   4.1388537e-01	
   1.2424500e+02	   1.3200005e+00	   4.1295049e-01	
   1.2430000e+02	   1.3173997e+00	   4.1149611e-01	
   1.2435500e+02	   1.3137611e+00	   4.0954132e-01	
   1.2441000e+02	   1.3090742e+00	   4.0711688e-01	
   1.2446500e+02	   1.3033707e+00	   4.0426770e-01	
   1.2452000e+02	   1.2967240e+00	   4.0105317e-01	
   1.2457500e+02	   1.2892432e+00	   3.9754495e-01	
   1.2463000e+02	   1.2810636e+00	   3.9382316e-01	
   1.2468500e+02	   1.2723377e+00	   3.8997176e-01	
   1.2474000e+02	   1.2632268e+00	   3.8607365e-01	
   1.2479500e+02	   1.2538921e+00	   3.8220539e-01	
   1.2485000e+02	   1.2444855e+00	   3.7843268e-01	
   1.2490500e+02	   1.2351430e+00	   3.7480816e-01	
   1.2496000e+02	   1.2259816e+00	   3.7137214e-01	
   1.2501500e+02	   1.2170969e+00	   3.6815515e-01	
   1.2507000e+02	   1.2085601e+00	   3.6518047e-01	
   1.2512500e+02	   1.2004141e+00	   3.6246514e-01	
   1.2518000e+02	   1.1926702e+00	   3.6001822e-01	
   1.2523500e+02	   1.1853052e+00	   3.5783665e-01	
   1.2529000e+02	   1.1782623e+00	   3.5590083e-01	
   1.2534500e+02	   1.1714573e+00	   3.5417211e-01	
   1.2540000e+02	   1.1647918e+00	   3.5259319e-01	
   1.2545500e+02	   1.1581689e+00	   3.5109051e-01	
   1.2551000e+02	   1.1515076e+00	   3.4957869e-01	
   1.2556500e+02	   1.1447530e+00	   3.4796772e-01	
   1.2562000e+02	   1.1378830e+00	   3.4617226e-01	
   1.2567500e+02	   1.1309095e+00	   3.4412098e-01	
   1.2573000e+02	   1.1238744e+00	   3.4176361e-01	
   1.2578500e+02	   1.1168410e+00	   3.3907491e-01	
   1.2584000e+02	   1.1098831e+00	   3.3605607e-01	
   1.2589500e+02	   1.1030732e+00	   3.3273367e-01	
   1.2595000e+02	   1.0964714e+00	   3.2915676e-01	
   1.2600500e+02	   1.0901141e+00	   3.2539291e-01	
   1.2606000e+02	   1.0840052e+00	   3.2152383e-01	
   1.2611500e+02	   1.0781112e+00	   3.1764059e-01	
   1.2617000e+02	   1.0723602e+00	   3.1383869e-01	
   1.2622500e+02	   1.0666474e+00	   3.1021375e-01	
   1.2628000e+02	   1.0608420e+00	   3.0685826e-01	
   1.2633500e+02	   1.0547946e+00	   3.0385906e-01	
   1.2639000e+02	   1.0483422e+00	   3.0129545e-01	
   1.2644500e+02	   1.0413107e+00	   2.9923756e-01	
   1.2650000e+02	   1.0335177e+00	   2.9774404e-01	
   1.2655500e+02	   1.0247776e+00	   2.9685787e-01	
   1.2661000e+02	   1.0149085e+00	   2.9660037e-01	
   1.2666500e+02	   1.0037410e+00	   2.9696500e-01	
   1.2672000e+02	   9.9112742e-01	   2.9791266e-01	
   1.2677500e+02	   9.7695117e-01	   2.9937009e-01	
   1.2683000e+02	   9.6113676e-01	   3.0123151e-01	
