
0   2   1   4
   0.0000000e+00	  -1.5787178e-01	   8.1575239e-02	  -1.1202374e-01	
   5.5000000e-02	  -1.4721749e-01	   6.2641218e-02	  -1.1728730e-01	
   1.1000000e-01	  -1.3756746e-01	   4.3492656e-02	  -1.2360783e-01	
   1.6500000e-01	  -1.2910115e-01	   2.4490702e-02	  -1.3085704e-01	
   2.2000000e-01	  -1.2197657e-01	   5.9931631e-03	  -1.3890983e-01	
   2.7500000e-01	  -1.1632490e-01	  -1.1657277e-02	  -1.4764912e-01	
   3.3000000e-01	  -1.1224566e-01	  -2.8143395e-02	  -1.5696286e-01	
   3.8500000e-01	  -1.0980315e-01	  -4.3182531e-02	  -1.6673601e-01	
   4.4000000e-01	  -1.0902481e-01	  -5.6535443e-02	  -1.7684188e-01	
   4.9500000e-01	  -1.0990109e-01	  -6.8015089e-02	  -1.8713543e-01	
   5.5000000e-01	  -1.1238560e-01	  -7.7494253e-02	  -1.9744937e-01	
   6.0500000e-01	  -1.1639524e-01	  -8.4911142e-02	  -2.0759379e-01	
   6.6000000e-01	  -1.2181147e-01	  -9.0272382e-02	  -2.1736059e-01	
   7.1500000e-01	  -1.2848294e-01	  -9.3651846e-02	  -2.2653260e-01	
   7.7000000e-01	  -1.3622909e-01	  -9.5182965e-02	  -2.3489459e-01	
   8.2500000e-01	  -1.4484435e-01	  -9.5044287e-02	  -2.4224314e-01	
   8.8000000e-01	  -1.5410320e-01	  -9.3441588e-02	  -2.4839404e-01	
   9.3500000e-01	  -1.6376626e-01	  -9.0591268e-02	  -2.5318800e-01	
   9.9000000e-01	  -1.7358689e-01	  -8.6707786e-02	  -2.5649505e-01	
   1.0450000e+00	  -1.8331801e-01	  -8.1995243e-02	  -2.5821712e-01	
   1.1000000e+00	  -1.9271925e-01	  -7.6642688e-02	  -2.5828867e-01	
   1.1550000e+00	  -2.0156451e-01	  -7.0822773e-02	  -2.5667597e-01	
   1.2100000e+00	  -2.0964841e-01	  -6.4692089e-02	  -2.5337472e-01	
   1.2650000e+00	  -2.1679010e-01	  -5.8390792e-02	  -2.4840632e-01	
   1.3200000e+00	  -2.2283504e-01	  -5.2040760e-02	  -2.4181444e-01	
   1.3750000e+00	  -2.2765573e-01	  -4.5743264e-02	  -2.3366319e-01	
   1.4300000e+00	  -2.3115185e-01	  -3.9577130e-02	  -2.2403643e-01	
   1.4850000e+00	  -2.3324990e-01	  -3.3597835e-02	  -2.1303628e-01	
   1.5400000e+00	  -2.3390285e-01	  -2.7837921e-02	  -2.0077964e-01	
   1.5950000e+00	  -2.3309002e-01	  -2.2308369e-02	  -1.8739253e-01	
   1.6500000e+00	  -2.3081685e-01	  -1.7000130e-02	  -1.7300300e-01	
   1.7050000e+00	  -2.2711434e-01	  -1.1886572e-02	  -1.5773450e-01	
   1.7600000e+00	  -2.2203882e-01	  -6.9291905e-03	  -1.4170127e-01	
   1.8150000e+00	  -2.1567258e-01	  -2.0871467e-03	  -1.2500620e-01	
   1.8700000e+00	  -2.0812487e-01	   2.6725739e-03	  -1.0774046e-01	
   1.9250000e+00	  -1.9953225e-01	   7.3686597e-03	  -8.9984389e-02	
   1.9800000e+00	  -1.9005723e-01	   1.2004147e-02	  -7.1810030e-02	
   2.0350000e+00	  -1.7988472e-01	   1.6568374e-02	  -5.3285030e-02	
   2.0900000e+00	  -1.6921649e-01	   2.1039736e-02	  -3.4476565e-02	
   2.1450000e+00	  -1.5826419e-01	   2.5388511e-02	  -1.5454194e-02	
   2.2000000e+00	  -1.4724189e-01	   2.9580355e-02	   3.7087076e-03	
   2.2550000e+00	  -1.3635969e-01	   3.3580892e-02	   2.2934709e-02	
   2.3100000e+00	  -1.2581908e-01	   3.7360998e-02	   4.2143378e-02	
   2.3650000e+00	  -1.1580966e-01	   4.0901597e-02	   6.1254061e-02	
   2.4200000e+00	  -1.0650710e-01	   4.4196858e-02	   8.0190239e-02	
   2.4750000e+00	  -9.8072840e-02	   4.7255756e-02	   9.8884155e-02	
   2.5300000e+00	  -9.0654815e-02	   5.0102688e-02	   1.1728042e-01	
   2.5850000e+00	  -8.4387740e-02	   5.2777075e-02	   1.3533829e-01	
   2.6400000e+00	  -7.9391648e-02	   5.5331120e-02	   1.5303244e-01	
   2.6950000e+00	  -7.5768654e-02	   5.7825878e-02	   1.7035112e-01	
   2.7500000e+00	  -7.3598530e-02	   6.0327275e-02	   1.8729038e-01	
   2.8050000e+00	  -7.2933734e-02	   6.2903361e-02	   2.0384556e-01	
   2.8600000e+00	  -7.3794867e-02	   6.5622485e-02	   2.2000316e-01	
   2.9150000e+00	  -7.6167741e-02	   6.8550680e-02	   2.3573629e-01	
   2.9700000e+00	  -8.0002768e-02	   7.1746666e-02	   2.5100410e-01	
   3.0250000e+00	  -8.5216699e-02	   7.5255155e-02	   2.6575447e-01	
   3.0800000e+00	  -9.1696567e-02	   7.9101186e-02	   2.7992846e-01	
   3.1350000e+00	  -9.9305446e-02	   8.3287366e-02	   2.9346491e-01	
   3.1900000e+00	  -1.0788932e-01	   8.7793547e-02	   3.0630417e-01	
   3.2450000e+00	  -1.1728438e-01	   9.2578182e-02	   3.1839103e-01	
   3.3000000e+00	  -1.2732404e-01	   9.7581333e-02	   3.2967683e-01	
   3.3550000e+00	  -1.3784503e-01	   1.0272892e-01	   3.4012021e-01	
   3.4100000e+00	  -1.4869209e-01	   1.0793743e-01	   3.4968684e-01	
   3.4650000e+00	  -1.5972081e-01	   1.1311889e-01	   3.5834966e-01	
   3.5200000e+00	  -1.7079957e-01	   1.1818581e-01	   3.6608993e-01	
   3.5750000e+00	  -1.8181196e-01	   1.2305481e-01	   3.7289791e-01	
   3.6300000e+00	  -1.9266067e-01	   1.2764773e-01	   3.7877227e-01	
   3.6850000e+00	  -2.0327134e-01	   1.3189030e-01	   3.8371948e-01	
   3.7400000e+00	  -2.1359408e-01	   1.3570941e-01	   3.8775572e-01	
   3.7950000e+00	  -2.2360208e-01	   1.3903044e-01	   3.9091157e-01	
   3.8500000e+00	  -2.3328844e-01	   1.4177508e-01	   3.9323756e-01	
   3.9050000e+00	  -2.4266209e-01	   1.4385984e-01	   3.9480843e-01	
   3.9600000e+00	  -2.5174333e-01	   1.4519478e-01	   3.9572506e-01	
   4.0150000e+00	  -2.6055925e-01	   1.4568240e-01	   3.9611310e-01	
   4.0700000e+00	  -2.6913876e-01	   1.4521811e-01	   3.9611718e-01	
   4.1250000e+00	  -2.7750720e-01	   1.4369367e-01	   3.9589218e-01	
   4.1800000e+00	  -2.8568135e-01	   1.4100262e-01	   3.9559425e-01	
   4.2350000e+00	  -2.9366682e-01	   1.3704540e-01	   3.9537331e-01	
   4.2900000e+00	  -3.0145848e-01	   1.3173282e-01	   3.9536676e-01	
   4.3450000e+00	  -3.0904293e-01	   1.2498827e-01	   3.9569458e-01	
   4.4000000e+00	  -3.1640160e-01	   1.1674982e-01	   3.9645527e-01	
   4.4550000e+00	  -3.2351356e-01	   1.0697277e-01	   3.9772141e-01	
   4.5100000e+00	  -3.3035811e-01	   9.5633204e-02	   3.9953412e-01	
   4.5650000e+00	  -3.3691693e-01	   8.2732388e-02	   4.0189612e-01	
   4.6200000e+00	  -3.4317532e-01	   6.8301204e-02	   4.0476453e-01	
   4.6750000e+00	  -3.4912356e-01	   5.2404199e-02	   4.0804563e-01	
   4.7300000e+00	  -3.5475918e-01	   3.5141847e-02	   4.1159325e-01	
   4.7850000e+00	  -3.6009077e-01	   1.6649832e-02	   4.1521226e-01	
   4.8400000e+00	  -3.6514155e-01	  -2.9041085e-03	   4.1866719e-01	
   4.8950000e+00	  -3.6995126e-01	  -2.3324306e-02	   4.2169515e-01	
   4.9500000e+00	  -3.7457571e-01	  -4.4392064e-02	   4.2402067e-01	
   5.0050000e+00	  -3.7908399e-01	  -6.5871546e-02	   4.2537049e-01	
   5.0600000e+00	  -3.8355320e-01	  -8.7515982e-02	   4.2548760e-01	
   5.1150000e+00	  -3.8806104e-01	  -1.0907388e-01	   4.2414348e-01	
   5.1700000e+00	  -3.9267807e-01	  -1.3029592e-01	   4.2114745e-01	
   5.2250000e+00	  -3.9746076e-01	  -1.5094260e-01	   4.1635286e-01	
   5.2800000e+00	  -4.0244602e-01	  -1.7079174e-01	   4.0966063e-01	
   5.3350000e+00	  -4.0764739e-01	  -1.8964548e-01	   4.0102086e-01	
   5.3900000e+00	  -4.1305405e-01	  -2.0733720e-01	   3.9043402e-01	
   5.4450000e+00	  -4.1863273e-01	  -2.2373805e-01	   3.7795248e-01	
   5.5000000e+00	  -4.2433141e-01	  -2.3876061e-01	   3.6368209e-01	
   5.5550000e+00	  -4.3008300e-01	  -2.5235822e-01	   3.4778270e-01	
   5.6100000e+00	  -4.3580881e-01	  -2.6452177e-01	   3.3046613e-01	
   5.6650000e+00	  -4.4142256e-01	  -2.7527765e-01	   3.1199086e-01	
   5.7200000e+00	  -4.4683535e-01	  -2.8468761e-01	   2.9265350e-01	
   5.7750000e+00	  -4.5196108e-01	  -2.9284731e-01	   2.7277731e-01	
   5.8300000e+00	  -4.5672153e-01	  -2.9988139e-01	   2.5269851e-01	
   5.8850000e+00	  -4.6105069e-01	  -3.0593608e-01	   2.3275101e-01	
   5.9400000e+00	  -4.6489821e-01	  -3.1117210e-01	   2.1325131e-01	
   5.9950000e+00	  -4.6823147e-01	  -3.1575880e-01	   1.9448582e-01	
   6.0500000e+00	  -4.7103612e-01	  -3.1986875e-01	   1.7670270e-01	
   6.1050000e+00	  -4.7331575e-01	  -3.2367156e-01	   1.6010861e-01	
   6.1600000e+00	  -4.7509126e-01	  -3.2732754e-01	   1.4486828e-01	
   6.2150000e+00	  -4.7639953e-01	  -3.3098288e-01	   1.3110480e-01	
   6.2700000e+00	  -4.7729099e-01	  -3.3476785e-01	   1.1889966e-01	
   6.3250000e+00	  -4.7782649e-01	  -3.3879717e-01	   1.0829281e-01	
   6.3800000e+00	  -4.7807419e-01	  -3.4317102e-01	   9.9282968e-02	
   6.4350000e+00	  -4.7810656e-01	  -3.4797633e-01	   9.1829448e-02	
   6.4900000e+00	  -4.7799714e-01	  -3.5328864e-01	   8.5856644e-02	
   6.5450000e+00	  -4.7781761e-01	  -3.5917510e-01	   8.1260428e-02	
   6.6000000e+00	  -4.7763540e-01	  -3.6569670e-01	   7.7914328e-02	
   6.6550000e+00	  -4.7751204e-01	  -3.7290698e-01	   7.5674800e-02	
   6.7100000e+00	  -4.7750195e-01	  -3.8084647e-01	   7.4387065e-02	
   6.7650000e+00	  -4.7765169e-01	  -3.8953529e-01	   7.3892397e-02	
   6.8200000e+00	  -4.7799990e-01	  -3.9896728e-01	   7.4035489e-02	
   6.8750000e+00	  -4.7857793e-01	  -4.0910676e-01	   7.4670479e-02	
   6.9300000e+00	  -4.7941086e-01	  -4.1988754e-01	   7.5665817e-02	
   6.9850000e+00	  -4.8051713e-01	  -4.3121425e-01	   7.6908075e-02	
   7.0400000e+00	  -4.8190636e-01	  -4.4296682e-01	   7.8303630e-02	
   7.0950000e+00	  -4.8357567e-01	  -4.5500799e-01	   7.9777522e-02	
   7.1500000e+00	  -4.8550635e-01	  -4.6719215e-01	   8.1270175e-02	
   7.2050000e+00	  -4.8766284e-01	  -4.7937480e-01	   8.2732978e-02	
   7.2600000e+00	  -4.8999542e-01	  -4.9142160e-01	   8.4123786e-02	
   7.3150000e+00	  -4.9244561e-01	  -5.0321607e-01	   8.5404093e-02	
   7.3700000e+00	  -4.9495186e-01	  -5.1466434e-01	   8.6539167e-02	
   7.4250000e+00	  -4.9745411e-01	  -5.2569626e-01	   8.7500354e-02	
   7.4800000e+00	  -4.9989762e-01	  -5.3626244e-01	   8.8268140e-02	
   7.5350000e+00	  -5.0223626e-01	  -5.4632839e-01	   8.8835487e-02	
   7.5900000e+00	  -5.0443469e-01	  -5.5586777e-01	   8.9210192e-02	
   7.6450000e+00	  -5.0646882e-01	  -5.6485728e-01	   8.9413361e-02	
   7.7000000e+00	  -5.0832463e-01	  -5.7327439e-01	   8.9472620e-02	
   7.7550000e+00	  -5.0999564e-01	  -5.8109799e-01	   8.9412521e-02	
   7.8100000e+00	  -5.1147933e-01	  -5.8830998e-01	   8.9246313e-02	
   7.8650000e+00	  -5.1277381e-01	  -5.9489638e-01	   8.8971099e-02	
   7.9200000e+00	  -5.1387620e-01	  -6.0084808e-01	   8.8565745e-02	
   7.9750000e+00	  -5.1478323e-01	  -6.0616279e-01	   8.7990848e-02	
   8.0300000e+00	  -5.1549323e-01	  -6.1084723e-01	   8.7191293e-02	
   8.0850000e+00	  -5.1600765e-01	  -6.1491798e-01	   8.6101778e-02	
   8.1400000e+00	  -5.1633140e-01	  -6.1840037e-01	   8.4654271e-02	
   8.1950000e+00	  -5.1647136e-01	  -6.2132585e-01	   8.2785351e-02	
   8.2500000e+00	  -5.1643351e-01	  -6.2372870e-01	   8.0441666e-02	
   8.3050000e+00	  -5.1621882e-01	  -6.2564321e-01	   7.7583141e-02	
   8.3600000e+00	  -5.1581941e-01	  -6.2710282e-01	   7.4185021e-02	
   8.4150000e+00	  -5.1521592e-01	  -6.2814258e-01	   7.0240080e-02	
   8.4700000e+00	  -5.1437703e-01	  -6.2880449e-01	   6.5761072e-02	
   8.5250000e+00	  -5.1326178e-01	  -6.2914390e-01	   6.0782499e-02	
   8.5800000e+00	  -5.1182445e-01	  -6.2923403e-01	   5.5360718e-02	
   8.6350000e+00	  -5.1002106e-01	  -6.2916676e-01	   4.9571922e-02	
   8.6900000e+00	  -5.0781558e-01	  -6.2904895e-01	   4.3508514e-02	
   8.7450000e+00	  -5.0518485e-01	  -6.2899491e-01	   3.7275589e-02	
   8.8000000e+00	  -5.0212116e-01	  -6.2911669e-01	   3.0989161e-02	
   8.8550000e+00	  -4.9863236e-01	  -6.2951477e-01	   2.4776021e-02	
   8.9100000e+00	  -4.9473996e-01	  -6.3027106e-01	   1.8773401e-02	
   8.9650000e+00	  -4.9047657e-01	  -6.3144436e-01	   1.3126596e-02	
   9.0200000e+00	  -4.8588362e-01	  -6.3306803e-01	   7.9838435e-03	
   9.0750000e+00	  -4.8101018e-01	  -6.3515023e-01	   3.4888114e-03	
   9.1300000e+00	  -4.7591264e-01	  -6.3767724e-01	  -2.2824267e-04	
   9.1850000e+00	  -4.7065425e-01	  -6.4061832e-01	  -3.0589873e-03	
   9.2400000e+00	  -4.6530294e-01	  -6.4393021e-01	  -4.9236618e-03	
   9.2950000e+00	  -4.5992777e-01	  -6.4756033e-01	  -5.7751708e-03	
   9.3500000e+00	  -4.5459503e-01	  -6.5144931e-01	  -5.6005459e-03	
   9.4050000e+00	  -4.4936534e-01	  -6.5553261e-01	  -4.4196179e-03	
   9.4600000e+00	  -4.4429218e-01	  -6.5974148e-01	  -2.2811228e-03	
   9.5150000e+00	  -4.3942205e-01	  -6.6400356e-01	   7.4232112e-04	
   9.5700000e+00	  -4.3479566e-01	  -6.6824293e-01	   4.5587177e-03	
   9.6250000e+00	  -4.3044887e-01	  -6.7237881e-01	   9.0603203e-03	
   9.6800000e+00	  -4.2641365e-01	  -6.7632338e-01	   1.4126261e-02	
   9.7350000e+00	  -4.2271932e-01	  -6.7998145e-01	   1.9623284e-02	
   9.7900000e+00	  -4.1939473e-01	  -6.8325429e-01	   2.5404954e-02	
   9.8450000e+00	  -4.1647023e-01	  -6.8604668e-01	   3.1312014e-02	
   9.9000000e+00	  -4.1397794e-01	  -6.8827515e-01	   3.7176248e-02	
   9.9550000e+00	  -4.1194953e-01	  -6.8987529e-01	   4.2827878e-02	
   1.0010000e+01	  -4.1041263e-01	  -6.9080582e-01	   4.8104963e-02	
   1.0065000e+01	  -4.0938724e-01	  -6.9104700e-01	   5.2862977e-02	
   1.0120000e+01	  -4.0888275e-01	  -6.9059285e-01	   5.6982773e-02	
   1.0175000e+01	  -4.0889529e-01	  -6.8943962e-01	   6.0375269e-02	
   1.0230000e+01	  -4.0940540e-01	  -6.8757449e-01	   6.2982137e-02	
   1.0285000e+01	  -4.1037620e-01	  -6.8496800e-01	   6.4773545e-02	
   1.0340000e+01	  -4.1175247e-01	  -6.8157150e-01	   6.5745151e-02	
   1.0395000e+01	  -4.1346186e-01	  -6.7731933e-01	   6.5915819e-02	
   1.0450000e+01	  -4.1541915e-01	  -6.7213502e-01	   6.5325940e-02	
   1.0505000e+01	  -4.1753288e-01	  -6.6594032e-01	   6.4035821e-02	
   1.0560000e+01	  -4.1971199e-01	  -6.5866565e-01	   6.2124243e-02	
   1.0615000e+01	  -4.2187089e-01	  -6.5026001e-01	   5.9687015e-02	
   1.0670000e+01	  -4.2393284e-01	  -6.4069910e-01	   5.6834414e-02	
   1.0725000e+01	  -4.2583198e-01	  -6.2999115e-01	   5.3687372e-02	
   1.0780000e+01	  -4.2751377e-01	  -6.1818006e-01	   5.0374018e-02	
   1.0835000e+01	  -4.2893342e-01	  -6.0534596e-01	   4.7027518e-02	
   1.0890000e+01	  -4.3005282e-01	  -5.9160278e-01	   4.3784261e-02	
   1.0945000e+01	  -4.3083770e-01	  -5.7709264e-01	   4.0781394e-02	
   1.1000000e+01	  -4.3125679e-01	  -5.6197789e-01	   3.8154471e-02	
   1.1055000e+01	  -4.3128358e-01	  -5.4643232e-01	   3.6036352e-02	
   1.1110000e+01	  -4.3089972e-01	  -5.3063346e-01	   3.4556291e-02	
   1.1165000e+01	  -4.3009838e-01	  -5.1475742e-01	   3.3836982e-02	
   1.1220000e+01	  -4.2888652e-01	  -4.9897645e-01	   3.3989222e-02	
   1.1275000e+01	  -4.2728539e-01	  -4.8345892e-01	   3.5106228e-02	
   1.1330000e+01	  -4.2532956e-01	  -4.6836987e-01	   3.7259575e-02	
   1.1385000e+01	  -4.2306429e-01	  -4.5386982e-01	   4.0497583e-02	
   1.1440000e+01	  -4.2054124e-01	  -4.4010945e-01	   4.4845902e-02	
   1.1495000e+01	  -4.1781268e-01	  -4.2722053e-01	   5.0309198e-02	
   1.1550000e+01	  -4.1492590e-01	  -4.1530665e-01	   5.6872704e-02	
   1.1605000e+01	  -4.1191944e-01	  -4.0443786e-01	   6.4503713e-02	
   1.1660000e+01	  -4.0882202e-01	  -3.9464945e-01	   7.3154037e-02	
   1.1715000e+01	  -4.0565399e-01	  -3.8594385e-01	   8.2763180e-02	
   1.1770000e+01	  -4.0243089e-01	  -3.7829467e-01	   9.3260293e-02	
   1.1825000e+01	  -3.9916771e-01	  -3.7165145e-01	   1.0456370e-01	
   1.1880000e+01	  -3.9588197e-01	  -3.6594224e-01	   1.1657935e-01	
   1.1935000e+01	  -3.9259453e-01	  -3.6107310e-01	   1.2920069e-01	
   1.1990000e+01	  -3.8932877e-01	  -3.5692786e-01	   1.4231022e-01	
   1.2045000e+01	  -3.8610931e-01	  -3.5337080e-01	   1.5578189e-01	
   1.2100000e+01	  -3.8296048e-01	  -3.5025226e-01	   1.6948293e-01	
   1.2155000e+01	  -3.7990471e-01	  -3.4741487e-01	   1.8327524e-01	
   1.2210000e+01	  -3.7696051e-01	  -3.4469957e-01	   1.9701649e-01	
   1.2265000e+01	  -3.7414004e-01	  -3.4195139e-01	   2.1056126e-01	
   1.2320000e+01	  -3.7144636e-01	  -3.3902454e-01	   2.2376228e-01	
   1.2375000e+01	  -3.6887175e-01	  -3.3578705e-01	   2.3647137e-01	
   1.2430000e+01	  -3.6639848e-01	  -3.3212634e-01	   2.4854025e-01	
   1.2485000e+01	  -3.6400220e-01	  -3.2795704e-01	   2.5982137e-01	
   1.2540000e+01	  -3.6165655e-01	  -3.2323035e-01	   2.7016936e-01	
   1.2595000e+01	  -3.5933688e-01	  -3.1794217e-01	   2.7944298e-01	
   1.2650000e+01	  -3.5702228e-01	  -3.1213743e-01	   2.8750822e-01	
   1.2705000e+01	  -3.5469648e-01	  -3.0590867e-01	   2.9424282e-01	
   1.2760000e+01	  -3.5234827e-01	  -2.9938887e-01	   2.9954217e-01	
   1.2815000e+01	  -3.4997212e-01	  -2.9273886e-01	   3.0332613e-01	
   1.2870000e+01	  -3.4756883e-01	  -2.8613144e-01	   3.0554581e-01	
   1.2925000e+01	  -3.4514679e-01	  -2.7973573e-01	   3.0618899e-01	
   1.2980000e+01	  -3.4272444e-01	  -2.7370474e-01	   3.0528341e-01	
   1.3035000e+01	  -3.4033304e-01	  -2.6816758e-01	   3.0289694e-01	
   1.3090000e+01	  -3.3801878e-01	  -2.6322652e-01	   2.9913513e-01	
   1.3145000e+01	  -3.3584277e-01	  -2.5895899e-01	   2.9413725e-01	
   1.3200000e+01	  -3.3387862e-01	  -2.5542286e-01	   2.8807218e-01	
   1.3255000e+01	  -3.3220786e-01	  -2.5266264e-01	   2.8113473e-01	
   1.3310000e+01	  -3.3091425e-01	  -2.5071359e-01	   2.7354191e-01	
   1.3365000e+01	  -3.3007737e-01	  -2.4960236e-01	   2.6552795e-01	
   1.3420000e+01	  -3.2976587e-01	  -2.4934407e-01	   2.5733710e-01	
   1.3475000e+01	  -3.3003082e-01	  -2.4993709e-01	   2.4921516e-01	
   1.3530000e+01	  -3.3090019e-01	  -2.5135763e-01	   2.4140154e-01	
   1.3585000e+01	  -3.3237576e-01	  -2.5355642e-01	   2.3412227e-01	
   1.3640000e+01	  -3.3443320e-01	  -2.5645852e-01	   2.2758263e-01	
   1.3695000e+01	  -3.3702468e-01	  -2.5996515e-01	   2.2195936e-01	
   1.3750000e+01	  -3.4008223e-01	  -2.6395513e-01	   2.1739378e-01	
   1.3805000e+01	  -3.4352087e-01	  -2.6828502e-01	   2.1398595e-01	
   1.3860000e+01	  -3.4724139e-01	  -2.7278882e-01	   2.1178945e-01	
   1.3915000e+01	  -3.5113262e-01	  -2.7727909e-01	   2.1080735e-01	
   1.3970000e+01	  -3.5507277e-01	  -2.8155042e-01	   2.1099094e-01	
   1.4025000e+01	  -3.5892995e-01	  -2.8538568e-01	   2.1224324e-01	
   1.4080000e+01	  -3.6256246e-01	  -2.8856524e-01	   2.1442791e-01	
   1.4135000e+01	  -3.6581898e-01	  -2.9087755e-01	   2.1738234e-01	
   1.4190000e+01	  -3.6853863e-01	  -2.9212786e-01	   2.2093200e-01	
   1.4245000e+01	  -3.7055122e-01	  -2.9214344e-01	   2.2490313e-01	
   1.4300000e+01	  -3.7167959e-01	  -2.9077648e-01	   2.2913179e-01	
   1.4355000e+01	  -3.7174475e-01	  -2.8790538e-01	   2.3346934e-01	
   1.4410000e+01	  -3.7057300e-01	  -2.8343349e-01	   2.3778555e-01	
   1.4465000e+01	  -3.6800340e-01	  -2.7728602e-01	   2.4197069e-01	
   1.4520000e+01	  -3.6389461e-01	  -2.6940768e-01	   2.4593674e-01	
   1.4575000e+01	  -3.5813082e-01	  -2.5976260e-01	   2.4961776e-01	
   1.4630000e+01	  -3.5062646e-01	  -2.4833603e-01	   2.5297000e-01	
   1.4685000e+01	  -3.4132915e-01	  -2.3513661e-01	   2.5597196e-01	
   1.4740000e+01	  -3.3022071e-01	  -2.2019970e-01	   2.5862282e-01	
   1.4795000e+01	  -3.1731708e-01	  -2.0359079e-01	   2.6093868e-01	
   1.4850000e+01	  -3.0266714e-01	  -1.8540575e-01	   2.6294801e-01	
   1.4905000e+01	  -2.8635109e-01	  -1.6576568e-01	   2.6468856e-01	
   1.4960000e+01	  -2.6847919e-01	  -1.4480894e-01	   2.6620627e-01	
   1.5015000e+01	  -2.4919162e-01	  -1.2268510e-01	   2.6755397e-01	
   1.5070000e+01	  -2.2865823e-01	  -9.9553078e-02	   2.6878850e-01	
   1.5125000e+01	  -2.0707665e-01	  -7.5582588e-02	   2.6996611e-01	
   1.5180000e+01	  -1.8466789e-01	  -5.0957258e-02	   2.7113666e-01	
   1.5235000e+01	  -1.6166999e-01	  -2.5877645e-02	   2.7233725e-01	
   1.5290000e+01	  -1.3832952e-01	  -5.6165060e-04	   2.7358662e-01	
   1.5345000e+01	  -1.1489128e-01	   2.4758851e-02	   2.7488202e-01	
   1.5400000e+01	  -9.1587394e-02	   4.9844208e-02	   2.7619930e-01	
   1.5455000e+01	  -6.8628081e-02	   7.4454431e-02	   2.7749513e-01	
   1.5510000e+01	  -4.6195721e-02	   9.8356697e-02	   2.7871029e-01	
   1.5565000e+01	  -2.4442884e-02	   1.2133210e-01	   2.7977395e-01	
   1.5620000e+01	  -3.4939323e-03	   1.4318107e-01	   2.8060896e-01	
   1.5675000e+01	   1.6550409e-02	   1.6372700e-01	   2.8113766e-01	
   1.5730000e+01	   3.5606732e-02	   1.8281731e-01	   2.8128776e-01	
   1.5785000e+01	   5.3602728e-02	   2.0032261e-01	   2.8099790e-01	
   1.5840000e+01	   7.0472347e-02	   2.1613466e-01	   2.8022208e-01	
   1.5895000e+01	   8.6152578e-02	   2.3016399e-01	   2.7893142e-01	
   1.5950000e+01	   1.0058220e-01	   2.4233799e-01	   2.7711219e-01	
   1.6005000e+01	   1.1370323e-01	   2.5260075e-01	   2.7476176e-01	
   1.6060000e+01	   1.2546460e-01	   2.6091479e-01	   2.7188551e-01	
   1.6115000e+01	   1.3582640e-01	   2.6726384e-01	   2.6849683e-01	
   1.6170000e+01	   1.4476382e-01	   2.7165513e-01	   2.6461978e-01	
   1.6225000e+01	   1.5227127e-01	   2.7412152e-01	   2.6029180e-01	
   1.6280000e+01	   1.5836697e-01	   2.7472317e-01	   2.5556451e-01	
   1.6335000e+01	   1.6309590e-01	   2.7354772e-01	   2.5050157e-01	
   1.6390000e+01	   1.6652883e-01	   2.7070773e-01	   2.4517450e-01	
   1.6445000e+01	   1.6875725e-01	   2.6633581e-01	   2.3965799e-01	
   1.6500000e+01	   1.6988687e-01	   2.6057879e-01	   2.3402723e-01	
   1.6555000e+01	   1.7003117e-01	   2.5359113e-01	   2.2835728e-01	
   1.6610000e+01	   1.6930569e-01	   2.4552855e-01	   2.2272336e-01	
   1.6665000e+01	   1.6782355e-01	   2.3654354e-01	   2.1720048e-01	
   1.6720000e+01	   1.6569301e-01	   2.2678335e-01	   2.1186215e-01	
   1.6775000e+01	   1.6301687e-01	   2.1638957e-01	   2.0677881e-01	
   1.6830000e+01	   1.5989316e-01	   2.0549872e-01	   2.0201692e-01	
   1.6885000e+01	   1.5641662e-01	   1.9424419e-01	   1.9763877e-01	
   1.6940000e+01	   1.5268057e-01	   1.8275975e-01	   1.9370185e-01	
   1.6995000e+01	   1.4877875e-01	   1.7118337e-01	   1.9025733e-01	
   1.7050000e+01	   1.4480601e-01	   1.5965796e-01	   1.8734774e-01	
   1.7105000e+01	   1.4085693e-01	   1.4832743e-01	   1.8500466e-01	
   1.7160000e+01	   1.3702247e-01	   1.3732960e-01	   1.8324743e-01	
   1.7215000e+01	   1.3338621e-01	   1.2678930e-01	   1.8208263e-01	
   1.7270000e+01	   1.3002158e-01	   1.1681334e-01	   1.8150259e-01	
   1.7325000e+01	   1.2699043e-01	   1.0748652e-01	   1.8148201e-01	
   1.7380000e+01	   1.2434259e-01	   9.8867827e-02	   1.8197395e-01	
   1.7435000e+01	   1.2211573e-01	   9.0986460e-02	   1.8290734e-01	
   1.7490000e+01	   1.2033515e-01	   8.3838592e-02	   1.8418630e-01	
   1.7545000e+01	   1.1901339e-01	   7.7386575e-02	   1.8569082e-01	
   1.7600000e+01	   1.1815049e-01	   7.1561733e-02	   1.8727967e-01	
   1.7655000e+01	   1.1773548e-01	   6.6270487e-02	   1.8879628e-01	
   1.7710000e+01	   1.1774901e-01	   6.1402742e-02	   1.9007632e-01	
   1.7765000e+01	   1.1816541e-01	   5.6841066e-02	   1.9095484e-01	
   1.7820000e+01	   1.1895341e-01	   5.2468949e-02	   1.9127156e-01	
   1.7875000e+01	   1.2007564e-01	   4.8177484e-02	   1.9087422e-01	
   1.7930000e+01	   1.2148779e-01	   4.3871597e-02	   1.8962121e-01	
   1.7985000e+01	   1.2313801e-01	   3.9476873e-02	   1.8738498e-01	
   1.8040000e+01	   1.2496759e-01	   3.4945741e-02	   1.8405721e-01	
   1.8095000e+01	   1.2691310e-01	   3.0260144e-02	   1.7955492e-01	
   1.8150000e+01	   1.2890832e-01	   2.5428636e-02	   1.7382531e-01	
   1.8205000e+01	   1.3088476e-01	   2.0478376e-02	   1.6684794e-01	
   1.8260000e+01	   1.3277109e-01	   1.5445033e-02	   1.5863504e-01	
   1.8315000e+01	   1.3449290e-01	   1.0363994e-02	   1.4923148e-01	
   1.8370000e+01	   1.3597339e-01	   5.2646231e-03	   1.3871500e-01	
   1.8425000e+01	   1.3713463e-01	   1.6818582e-04	   1.2719570e-01	
   1.8480000e+01	   1.3789946e-01	  -4.9104582e-03	   1.1481365e-01	
   1.8535000e+01	   1.3819394e-01	  -9.9592151e-03	   1.0173355e-01	
   1.8590000e+01	   1.3795023e-01	  -1.4966590e-02	   8.8137387e-02	
   1.8645000e+01	   1.3710986e-01	  -1.9922242e-02	   7.4216901e-02	
   1.8700000e+01	   1.3562818e-01	  -2.4817732e-02	   6.0167348e-02	
   1.8755000e+01	   1.3348021e-01	  -2.9645047e-02	   4.6182148e-02	
   1.8810000e+01	   1.3066623e-01	  -3.4393666e-02	   3.2446719e-02	
   1.8865000e+01	   1.2721545e-01	  -3.9048019e-02	   1.9131483e-02	
   1.8920000e+01	   1.2318726e-01	  -4.3585746e-02	   6.3859624e-03	
   1.8975000e+01	   1.1867039e-01	  -4.7976888e-02	  -5.6646349e-03	
   1.9030000e+01	   1.1377979e-01	  -5.2184893e-02	  -1.6921302e-02	
   1.9085000e+01	   1.0865162e-01	  -5.6169348e-02	  -2.7313215e-02	
   1.9140000e+01	   1.0343705e-01	  -5.9888650e-02	  -3.6799468e-02	
   1.9195000e+01	   9.8295483e-02	  -6.3301696e-02	  -4.5368629e-02	
   1.9250000e+01	   9.3387236e-02	  -6.6369652e-02	  -5.3035580e-02	
   1.9305000e+01	   8.8865433e-02	  -6.9058690e-02	  -5.9837581e-02	
   1.9360000e+01	   8.4867187e-02	  -7.1343510e-02	  -6.5831569e-02	
   1.9415000e+01	   8.1505057e-02	  -7.3211766e-02	  -7.1092619e-02	
   1.9470000e+01	   7.8860130e-02	  -7.4669540e-02	  -7.5712045e-02	
   1.9525000e+01	   7.6977757e-02	  -7.5746245e-02	  -7.9794197e-02	
   1.9580000e+01	   7.5866571e-02	  -7.6495920e-02	  -8.3452240e-02	
   1.9635000e+01	   7.5500916e-02	  -7.6993265e-02	  -8.6803694e-02	
   1.9690000e+01	   7.5825822e-02	  -7.7325881e-02	  -8.9966618e-02	
   1.9745000e+01	   7.6762987e-02	  -7.7585731e-02	  -9.3056993e-02	
   1.9800000e+01	   7.8216896e-02	  -7.7861815e-02	  -9.6186744e-02	
   1.9855000e+01	   8.0080739e-02	  -7.8234603e-02	  -9.9461189e-02	
   1.9910000e+01	   8.2241391e-02	  -7.8772817e-02	  -1.0297567e-01	
   1.9965000e+01	   8.4582900e-02	  -7.9533376e-02	  -1.0681196e-01	
   2.0020000e+01	   8.6989035e-02	  -8.0564018e-02	  -1.1103453e-01	
   2.0075000e+01	   8.9345864e-02	  -8.1906311e-02	  -1.1568656e-01	
   2.0130000e+01	   9.1544461e-02	  -8.3597190e-02	  -1.2078581e-01	
   2.0185000e+01	   9.3482925e-02	  -8.5669305e-02	  -1.2632080e-01	
   2.0240000e+01	   9.5067323e-02	  -8.8151270e-02	  -1.3224830e-01	
   2.0295000e+01	   9.6212529e-02	  -9.1067948e-02	  -1.3849368e-01	
   2.0350000e+01	   9.6843877e-02	  -9.4440154e-02	  -1.4495464e-01	
   2.0405000e+01	   9.6899163e-02	  -9.8282972e-02	  -1.5150768e-01	
   2.0460000e+01	   9.6330018e-02	  -1.0260227e-01	  -1.5801621e-01	
   2.0515000e+01	   9.5102230e-02	  -1.0739011e-01	  -1.6433975e-01	
   2.0570000e+01	   9.3195302e-02	  -1.1262113e-01	  -1.7034271e-01	
   2.0625000e+01	   9.0601940e-02	  -1.1825230e-01	  -1.7590205e-01	
   2.0680000e+01	   8.7328258e-02	  -1.2422617e-01	  -1.8091329e-01	
   2.0735000e+01	   8.3394883e-02	  -1.3047533e-01	  -1.8529534e-01	
   2.0790000e+01	   7.8838458e-02	  -1.3692543e-01	  -1.8899415e-01	
   2.0845000e+01	   7.3713080e-02	  -1.4349660e-01	  -1.9198606e-01	
   2.0900000e+01	   6.8091311e-02	  -1.5010558e-01	  -1.9428160e-01	
   2.0955000e+01	   6.2064237e-02	  -1.5667023e-01	  -1.9592919e-01	
   2.1010000e+01	   5.5740062e-02	  -1.6311515e-01	  -1.9701646e-01	
   2.1065000e+01	   4.9241191e-02	  -1.6937588e-01	  -1.9766773e-01	
   2.1120000e+01	   4.2700197e-02	  -1.7540023e-01	  -1.9803813e-01	
   2.1175000e+01	   3.6254978e-02	  -1.8114705e-01	  -1.9830547e-01	
   2.1230000e+01	   3.0043474e-02	  -1.8658378e-01	  -1.9866041e-01	
   2.1285000e+01	   2.4198322e-02	  -1.9168438e-01	  -1.9929548e-01	
   2.1340000e+01	   1.8841403e-02	  -1.9642875e-01	  -2.0039407e-01	
   2.1395000e+01	   1.4078015e-02	  -2.0080310e-01	  -2.0212030e-01	
   2.1450000e+01	   9.9914440e-03	  -2.0479875e-01	  -2.0461059e-01	
   2.1505000e+01	   6.6395543e-03	  -2.0840849e-01	  -2.0796711e-01	
   2.1560000e+01	   4.0544184e-03	  -2.1162174e-01	  -2.1225320e-01	
   2.1615000e+01	   2.2447642e-03	  -2.1442119e-01	  -2.1749088e-01	
   2.1670000e+01	   1.2005406e-03	  -2.1678114e-01	  -2.2365990e-01	
   2.1725000e+01	   8.9869256e-04	  -2.1866726e-01	  -2.3069740e-01	
   2.1780000e+01	   1.3087867e-03	  -2.2003816e-01	  -2.3849826e-01	
   2.1835000e+01	   2.3970497e-03	  -2.2084944e-01	  -2.4691639e-01	
   2.1890000e+01	   4.1281837e-03	  -2.2105977e-01	  -2.5576701e-01	
   2.1945000e+01	   6.4653984e-03	  -2.2063759e-01	  -2.6482977e-01	
   2.2000000e+01	   9.3693116e-03	  -2.1956715e-01	  -2.7385415e-01	
   2.2055000e+01	   1.2795915e-02	  -2.1785183e-01	  -2.8256838e-01	
   2.2110000e+01	   1.6694084e-02	  -2.1551343e-01	  -2.9069073e-01	
   2.2165000e+01	   2.1004092e-02	  -2.1258745e-01	  -2.9794134e-01	
   2.2220000e+01	   2.5658527e-02	  -2.0911755e-01	  -3.0405314e-01	
   2.2275000e+01	   3.0585391e-02	  -2.0515259e-01	  -3.0878236e-01	
   2.2330000e+01	   3.5711797e-02	  -2.0074707e-01	  -3.1191917e-01	
   2.2385000e+01	   4.0966762e-02	  -1.9596389e-01	  -3.1329829e-01	
   2.2440000e+01	   4.6282679e-02	  -1.9087692e-01	  -3.1280768e-01	
   2.2495000e+01	   5.1595839e-02	  -1.8557186e-01	  -3.1039308e-01	
   2.2550000e+01	   5.6846588e-02	  -1.8014408e-01	  -3.0605731e-01	
   2.2605000e+01	   6.1979473e-02	  -1.7469354e-01	  -2.9985504e-01	
   2.2660000e+01	   6.6943148e-02	  -1.6931713e-01	  -2.9188550e-01	
   2.2715000e+01	   7.1689590e-02	  -1.6409907e-01	  -2.8228502e-01	
   2.2770000e+01	   7.6172841e-02	  -1.5910079e-01	  -2.7122002e-01	
   2.2825000e+01	   8.0348156e-02	  -1.5435241e-01	  -2.5887946e-01	
   2.2880000e+01	   8.4172231e-02	  -1.4984749e-01	  -2.4546682e-01	
   2.2935000e+01	   8.7604723e-02	  -1.4554065e-01	  -2.3119190e-01	
   2.2990000e+01	   9.0611013e-02	  -1.4134686e-01	  -2.1626327e-01	
   2.3045000e+01	   9.3165631e-02	  -1.3714315e-01	  -2.0088147e-01	
   2.3100000e+01	   9.5255140e-02	  -1.3277398e-01	  -1.8523290e-01	
   2.3155000e+01	   9.6879344e-02	  -1.2806135e-01	  -1.6948499e-01	
   2.3210000e+01	   9.8050696e-02	  -1.2281869e-01	  -1.5378242e-01	
   2.3265000e+01	   9.8792508e-02	  -1.1686620e-01	  -1.3824451e-01	
   2.3320000e+01	   9.9136538e-02	  -1.1004550e-01	  -1.2296402e-01	
   2.3375000e+01	   9.9120000e-02	  -1.0223165e-01	  -1.0800817e-01	
   2.3430000e+01	   9.8781899e-02	  -9.3341016e-02	  -9.3421301e-02	
   2.3485000e+01	   9.8159039e-02	  -8.3334204e-02	  -7.9227536e-02	
   2.3540000e+01	   9.7282396e-02	  -7.2215122e-02	  -6.5432805e-02	
   2.3595000e+01	   9.6174090e-02	  -6.0028284e-02	  -5.2027346e-02	
   2.3650000e+01	   9.4844906e-02	  -4.6856476e-02	  -3.8989741e-02	
   2.3705000e+01	   9.3292777e-02	  -3.2819390e-02	  -2.6291877e-02	
   2.3760000e+01	   9.1503038e-02	  -1.8071865e-02	  -1.3903939e-02	
   2.3815000e+01	   8.9450665e-02	  -2.8000340e-03	  -1.7992710e-03	
   2.3870000e+01	   8.7103999e-02	   1.2784898e-02	   1.0040750e-02	
   2.3925000e+01	   8.4429164e-02	   2.8454361e-02	   2.1622185e-02	
   2.3980000e+01	   8.1394403e-02	   4.3970335e-02	   3.2935183e-02	
   2.4035000e+01	   7.7973117e-02	   5.9091953e-02	   4.3952547e-02	
   2.4090000e+01	   7.4144541e-02	   7.3579850e-02	   5.4630138e-02	
   2.4145000e+01	   6.9892605e-02	   8.7199012e-02	   6.4908182e-02	
   2.4200000e+01	   6.5205283e-02	   9.9722238e-02	   7.4712647e-02	
   2.4255000e+01	   6.0076115e-02	   1.1093543e-01	   8.3956304e-02	
   2.4310000e+01	   5.4507627e-02	   1.2064447e-01	   9.2539511e-02	
   2.4365000e+01	   4.8515445e-02	   1.2868374e-01	   1.0035184e-01	
   2.4420000e+01	   4.2132166e-02	   1.3492636e-01	   1.0727627e-01	
   2.4475000e+01	   3.5410182e-02	   1.3929485e-01	   1.1319582e-01	
   2.4530000e+01	   2.8422452e-02	   1.4176873e-01	   1.1800084e-01	
   2.4585000e+01	   2.1260573e-02	   1.4238642e-01	   1.2159543e-01	
   2.4640000e+01	   1.4030183e-02	   1.4124167e-01	   1.2390341e-01	
   2.4695000e+01	   6.8440530e-03	   1.3847623e-01	   1.2487340e-01	
   2.4750000e+01	  -1.8671947e-04	   1.3426989e-01	   1.2448237e-01	
   2.4805000e+01	  -6.9623860e-03	   1.2882744e-01	   1.2273729e-01	
   2.4860000e+01	  -1.3403062e-02	   1.2236328e-01	   1.1967586e-01	
   2.4915000e+01	  -1.9454456e-02	   1.1508682e-01	   1.1536698e-01	
   2.4970000e+01	  -2.5090570e-02	   1.0719259e-01	   1.0991050e-01	
   2.5025000e+01	  -3.0313645e-02	   9.8855921e-02	   1.0343530e-01	
   2.5080000e+01	  -3.5151285e-02	   9.0233054e-02	   9.6095218e-02	
   2.5135000e+01	  -3.9651014e-02	   8.1462348e-02	   8.8062739e-02	
   2.5190000e+01	  -4.3873441e-02	   7.2664426e-02	   7.9519573e-02	
   2.5245000e+01	  -4.7885457e-02	   6.3942445e-02	   7.0644773e-02	
   2.5300000e+01	  -5.1753938e-02	   5.5385455e-02	   6.1603951e-02	
   2.5355000e+01	  -5.5539605e-02	   4.7074665e-02	   5.2542980e-02	
   2.5410000e+01	  -5.9291173e-02	   3.9089211e-02	   4.3586368e-02	
   2.5465000e+01	  -6.3041162e-02	   3.1509178e-02	   3.4838700e-02	
   2.5520000e+01	  -6.6804926e-02	   2.4415731e-02	   2.6388288e-02	
   2.5575000e+01	  -7.0583465e-02	   1.7887899e-02	   1.8312195e-02	
   2.5630000e+01	  -7.4369164e-02	   1.1995911e-02	   1.0680908e-02	
   2.5685000e+01	  -7.8152611e-02	   6.7937574e-03	   3.5612011e-03	
   2.5740000e+01	  -8.1928854e-02	   2.3146406e-03	  -2.9828818e-03	
   2.5795000e+01	  -8.5702620e-02	  -1.4303522e-03	  -8.8907248e-03	
   2.5850000e+01	  -8.9492578e-02	  -4.4530954e-03	  -1.4108103e-02	
   2.5905000e+01	  -9.3334042e-02	  -6.7904438e-03	  -1.8592568e-02	
   2.5960000e+01	  -9.7278892e-02	  -8.5062424e-03	  -2.2319256e-02	
   2.6015000e+01	  -1.0139221e-01	  -9.6907311e-03	  -2.5284248e-02	
   2.6070000e+01	  -1.0574651e-01	  -1.0455485e-02	  -2.7504358e-02	
   2.6125000e+01	  -1.1041526e-01	  -1.0925023e-02	  -2.9014128e-02	
   2.6180000e+01	  -1.1546690e-01	  -1.1229087e-02	  -2.9861075e-02	
   2.6235000e+01	  -1.2096016e-01	  -1.1498461e-02	  -3.0099892e-02	
   2.6290000e+01	  -1.2693952e-01	  -1.1863496e-02	  -2.9786451e-02	
   2.6345000e+01	  -1.3343046e-01	  -1.2453106e-02	  -2.8973189e-02	
   2.6400000e+01	  -1.4043464e-01	  -1.3393061e-02	  -2.7707307e-02	
   2.6455000e+01	  -1.4792554e-01	  -1.4802553e-02	  -2.6031621e-02	
   2.6510000e+01	  -1.5584454e-01	  -1.6788216e-02	  -2.3986402e-02	
   2.6565000e+01	  -1.6409859e-01	  -1.9436723e-02	  -2.1610776e-02	
   2.6620000e+01	  -1.7256087e-01	  -2.2807761e-02	  -1.8943345e-02	
   2.6675000e+01	  -1.8107490e-01	  -2.6927945e-02	  -1.6022211e-02	
   2.6730000e+01	  -1.8946154e-01	  -3.1785973e-02	  -1.2885067e-02	
   2.6785000e+01	  -1.9752857e-01	  -3.7330570e-02	  -9.5701371e-03	
   2.6840000e+01	  -2.0508248e-01	  -4.3472418e-02	  -6.1175654e-03	
   2.6895000e+01	  -2.1194179e-01	  -5.0089359e-02	  -2.5698369e-03	
   2.6950000e+01	  -2.1794976e-01	  -5.7033305e-02	   1.0290278e-03	
   2.7005000e+01	  -2.2298447e-01	  -6.4138246e-02	   4.6344478e-03	
   2.7060000e+01	  -2.2696460e-01	  -7.1229282e-02	   8.2018134e-03	
   2.7115000e+01	  -2.2985060e-01	  -7.8132300e-02	   1.1686722e-02	
   2.7170000e+01	  -2.3164154e-01	  -8.4683659e-02	   1.5044908e-02	
   2.7225000e+01	  -2.3236897e-01	  -9.0738659e-02	   1.8231765e-02	
   2.7280000e+01	  -2.3208993e-01	  -9.6177295e-02	   2.1201676e-02	
   2.7335000e+01	  -2.3087985e-01	  -1.0090715e-01	   2.3907648e-02	
   2.7390000e+01	  -2.2882572e-01	  -1.0486474e-01	   2.6302147e-02	
   2.7445000e+01	  -2.2601924e-01	  -1.0801654e-01	   2.8340238e-02	
   2.7500000e+01	  -2.2255107e-01	  -1.1035909e-01	   2.9985151e-02	
   2.7555000e+01	  -2.1850716e-01	  -1.1191737e-01	   3.1214924e-02	
   2.7610000e+01	  -2.1396699e-01	  -1.1274131e-01	   3.2028217e-02	
   2.7665000e+01	  -2.0900257e-01	  -1.1290278e-01	   3.2447703e-02	
   2.7720000e+01	  -2.0367783e-01	  -1.1249374e-01	   3.2520402e-02	
   2.7775000e+01	  -1.9804891e-01	  -1.1162375e-01	   3.2315660e-02	
   2.7830000e+01	  -1.9216481e-01	  -1.1041414e-01	   3.1921909e-02	
   2.7885000e+01	  -1.8606830e-01	  -1.0898965e-01	   3.1442616e-02	
   2.7940000e+01	  -1.7979673e-01	  -1.0747010e-01	   3.0991750e-02	
   2.7995000e+01	  -1.7338338e-01	  -1.0596340e-01	   3.0689586e-02	
   2.8050000e+01	  -1.6685927e-01	  -1.0455917e-01	   3.0659373e-02	
   2.8105000e+01	  -1.6025575e-01	  -1.0332267e-01	   3.1024473e-02	
   2.8160000e+01	  -1.5360788e-01	  -1.0228996e-01	   3.1905476e-02	
   2.8215000e+01	  -1.4695821e-01	  -1.0146605e-01	   3.3417428e-02	
   2.8270000e+01	  -1.4036010e-01	  -1.0082764e-01	   3.5667172e-02	
   2.8325000e+01	  -1.3387852e-01	  -1.0033055e-01	   3.8749918e-02	
   2.8380000e+01	  -1.2758709e-01	  -9.9919709e-02	   4.2744528e-02	
   2.8435000e+01	  -1.2156149e-01	  -9.9538259e-02	   4.7708473e-02	
   2.8490000e+01	  -1.1587030e-01	  -9.9133184e-02	   5.3673792e-02	
   2.8545000e+01	  -1.1056428e-01	  -9.8657238e-02	   6.0644612e-02	
   2.8600000e+01	  -1.0566660e-01	  -9.8068905e-02	   6.8596009e-02	
   2.8655000e+01	  -1.0116699e-01	  -9.7331782e-02	   7.7473594e-02	
   2.8710000e+01	  -9.7021178e-02	  -9.6413513e-02	   8.7193194e-02	
   2.8765000e+01	  -9.3154138e-02	  -9.5284121e-02	   9.7640662e-02	
   2.8820000e+01	  -8.9465432e-02	  -9.3914256e-02	   1.0867229e-01	
   2.8875000e+01	  -8.5835864e-02	  -9.2274108e-02	   1.2011622e-01	
   2.8930000e+01	  -8.2135386e-02	  -9.0333777e-02	   1.3177468e-01	
   2.8985000e+01	  -7.8231886e-02	  -8.8066025e-02	   1.4342625e-01	
   2.9040000e+01	  -7.3999707e-02	  -8.5452327e-02	   1.5482777e-01	
   2.9095000e+01	  -6.9326147e-02	  -8.2492086e-02	   1.6571722e-01	
   2.9150000e+01	  -6.4114454e-02	  -7.9212653e-02	   1.7581903e-01	
   2.9205000e+01	  -5.8282975e-02	  -7.5676719e-02	   1.8485147e-01	
   2.9260000e+01	  -5.1761931e-02	  -7.1985069e-02	   1.9253455e-01	
   2.9315000e+01	  -4.4490278e-02	  -6.8274089e-02	   1.9859847e-01	
   2.9370000e+01	  -3.6414185e-02	  -6.4707692e-02	   2.0279342e-01	
   2.9425000e+01	  -2.7486956e-02	  -6.1464237e-02	   2.0490082e-01	
   2.9480000e+01	  -1.7669423e-02	  -5.8720908e-02	   2.0474444e-01	
   2.9535000e+01	  -6.9304835e-03	  -5.6639308e-02	   2.0219929e-01	
   2.9590000e+01	   4.7519475e-03	  -5.5355798e-02	   1.9719679e-01	
   2.9645000e+01	   1.7389435e-02	  -5.4978243e-02	   1.8972584e-01	
   2.9700000e+01	   3.0981730e-02	  -5.5587885e-02	   1.7983037e-01	
   2.9755000e+01	   4.5517088e-02	  -5.7242998e-02	   1.6760521e-01	
   2.9810000e+01	   6.0974934e-02	  -5.9981223e-02	   1.5319177e-01	
   2.9865000e+01	   7.7330094e-02	  -6.3819671e-02	   1.3677406e-01	
   2.9920000e+01	   9.4556559e-02	  -6.8753674e-02	   1.1857407e-01	
   2.9975000e+01	   1.1262906e-01	  -7.4755312e-02	   9.8845562e-02	
   3.0030000e+01	   1.3152237e-01	  -8.1772133e-02	   7.7865956e-02	
   3.0085000e+01	   1.5120961e-01	  -8.9725934e-02	   5.5927976e-02	
   3.0140000e+01	   1.7166010e-01	  -9.8512064e-02	   3.3331451e-02	
   3.0195000e+01	   1.9283591e-01	  -1.0800089e-01	   1.0374525e-02	
   3.0250000e+01	   2.1468683e-01	  -1.1804253e-01	  -1.2656372e-02	
   3.0305000e+01	   2.3714543e-01	  -1.2847387e-01	  -3.5496635e-02	
   3.0360000e+01	   2.6012452e-01	  -1.3912578e-01	  -5.7911804e-02	
   3.0415000e+01	   2.8351773e-01	  -1.4983012e-01	  -7.9703276e-02	
   3.0470000e+01	   3.0720224e-01	  -1.6042642e-01	  -1.0071127e-01	
   3.0525000e+01	   3.3104264e-01	  -1.7076776e-01	  -1.2081486e-01	
   3.0580000e+01	   3.5489501e-01	  -1.8072452e-01	  -1.3992931e-01	
   3.0635000e+01	   3.7860986e-01	  -1.9018463e-01	  -1.5800157e-01	
   3.0690000e+01	   4.0203386e-01	  -1.9905085e-01	  -1.7500480e-01	
   3.0745000e+01	   4.2501173e-01	  -2.0723631e-01	  -1.9093217e-01	
   3.0800000e+01	   4.4738968e-01	  -2.1465968e-01	  -2.0579070e-01	
   3.0855000e+01	   4.6902063e-01	  -2.2124208e-01	  -2.1959624e-01	
   3.0910000e+01	   4.8976964e-01	  -2.2690752e-01	  -2.3237105e-01	
   3.0965000e+01	   5.0951846e-01	  -2.3158697e-01	  -2.4414314e-01	
   3.1020000e+01	   5.2816864e-01	  -2.3522396e-01	  -2.5494519e-01	
   3.1075000e+01	   5.4564294e-01	  -2.3777981e-01	  -2.6481172e-01	
   3.1130000e+01	   5.6188512e-01	  -2.3923728e-01	  -2.7377531e-01	
   3.1185000e+01	   5.7685883e-01	  -2.3960222e-01	  -2.8186348e-01	
   3.1240000e+01	   5.9054640e-01	  -2.3890356e-01	  -2.8909618e-01	
   3.1295000e+01	   6.0294786e-01	  -2.3719180e-01	  -2.9548392e-01	
   3.1350000e+01	   6.1407979e-01	  -2.3453588e-01	  -3.0102744e-01	
   3.1405000e+01	   6.2397393e-01	  -2.3101861e-01	  -3.0571922e-01	
   3.1460000e+01	   6.3267603e-01	  -2.2673227e-01	  -3.0954670e-01	
   3.1515000e+01	   6.4024485e-01	  -2.2177575e-01	  -3.1249674e-01	
   3.1570000e+01	   6.4675119e-01	  -2.1625306e-01	  -3.1456088e-01	
   3.1625000e+01	   6.5227663e-01	  -2.1027043e-01	  -3.1574119e-01	
   3.1680000e+01	   6.5691234e-01	  -2.0393039e-01	  -3.1605598e-01	
   3.1735000e+01	   6.6075731e-01	  -1.9732498e-01	  -3.1554409e-01	
   3.1790000e+01	   6.6391509e-01	  -1.9053251e-01	  -3.1426621e-01	
   3.1845000e+01	   6.6648891e-01	  -1.8361966e-01	  -3.1230307e-01	
   3.1900000e+01	   6.6857674e-01	  -1.7664591e-01	  -3.0975159e-01	
   3.1955000e+01	   6.7026827e-01	  -1.6966562e-01	  -3.0672026e-01	
   3.2010000e+01	   6.7164422e-01	  -1.6272632e-01	  -3.0332457e-01	
   3.2065000e+01	   6.7277729e-01	  -1.5586616e-01	  -2.9968367e-01	
   3.2120000e+01	   6.7373303e-01	  -1.4911385e-01	  -2.9591806e-01	
   3.2175000e+01	   6.7456951e-01	  -1.4249204e-01	  -2.9214811e-01	
   3.2230000e+01	   6.7533572e-01	  -1.3602274e-01	  -2.8849283e-01	
   3.2285000e+01	   6.7607000e-01	  -1.2973303e-01	  -2.8506826e-01	
   3.2340000e+01	   6.7680029e-01	  -1.2365850e-01	  -2.8198452e-01	
   3.2395000e+01	   6.7754652e-01	  -1.1784306e-01	  -2.7934158e-01	
   3.2450000e+01	   6.7832421e-01	  -1.1233501e-01	  -2.7722558e-01	
   3.2505000e+01	   6.7914800e-01	  -1.0718120e-01	  -2.7570721e-01	
   3.2560000e+01	   6.8003379e-01	  -1.0242088e-01	  -2.7484199e-01	
   3.2615000e+01	   6.8099952e-01	  -9.8080661e-02	  -2.7467050e-01	
   3.2670000e+01	   6.8206476e-01	  -9.4171221e-02	  -2.7521748e-01	
   3.2725000e+01	   6.8324962e-01	  -9.0686075e-02	  -2.7649058e-01	
   3.2780000e+01	   6.8457335e-01	  -8.7601537e-02	  -2.7848017e-01	
   3.2835000e+01	   6.8605336e-01	  -8.4876459e-02	  -2.8116011e-01	
   3.2890000e+01	   6.8770483e-01	  -8.2451902e-02	  -2.8448778e-01	
   3.2945000e+01	   6.8954042e-01	  -8.0253096e-02	  -2.8840263e-01	
   3.3000000e+01	   6.9156964e-01	  -7.8195836e-02	  -2.9282469e-01	
   3.3055000e+01	   6.9379878e-01	  -7.6196276e-02	  -2.9765478e-01	
   3.3110000e+01	   6.9623215e-01	  -7.4180220e-02	  -3.0277775e-01	
   3.3165000e+01	   6.9887418e-01	  -7.2088959e-02	  -3.0806858e-01	
   3.3220000e+01	   7.0173150e-01	  -6.9881688e-02	  -3.1339963e-01	
   3.3275000e+01	   7.0481396e-01	  -6.7535965e-02	  -3.1864663e-01	
   3.3330000e+01	   7.0813403e-01	  -6.5047306e-02	  -3.2369304e-01	
   3.3385000e+01	   7.1170419e-01	  -6.2428289e-02	  -3.2843401e-01	
   3.3440000e+01	   7.1553301e-01	  -5.9707250e-02	  -3.3277999e-01	
   3.3495000e+01	   7.1962050e-01	  -5.6926818e-02	  -3.3665958e-01	
   3.3550000e+01	   7.2395351e-01	  -5.4142730e-02	  -3.4002162e-01	
   3.3605000e+01	   7.2850193e-01	  -5.1423294e-02	  -3.4283721e-01	
   3.3660000e+01	   7.3321654e-01	  -4.8849553e-02	  -3.4510099e-01	
   3.3715000e+01	   7.3802919e-01	  -4.6515319e-02	  -3.4683063e-01	
   3.3770000e+01	   7.4285523e-01	  -4.4525935e-02	  -3.4806458e-01	
   3.3825000e+01	   7.4759760e-01	  -4.2995727e-02	  -3.4885956e-01	
   3.3880000e+01	   7.5215190e-01	  -4.2044740e-02	  -3.4928858e-01	
   3.3935000e+01	   7.5641160e-01	  -4.1794314e-02	  -3.4943841e-01	
   3.3990000e+01	   7.6027330e-01	  -4.2360297e-02	  -3.4940440e-01	
   3.4045000e+01	   7.6364171e-01	  -4.3843642e-02	  -3.4928303e-01	
   3.4100000e+01	   7.6643396e-01	  -4.6320178e-02	  -3.4916398e-01	
   3.4155000e+01	   7.6858229e-01	  -4.9832534e-02	  -3.4912334e-01	
   3.4210000e+01	   7.7003545e-01	  -5.4386266e-02	  -3.4921829e-01	
   3.4265000e+01	   7.7076003e-01	  -5.9949844e-02	  -3.4948289e-01	
   3.4320000e+01	   7.7074311e-01	  -6.6456383e-02	  -3.4992507e-01	
   3.4375000e+01	   7.6999609e-01	  -7.3805114e-02	  -3.5052461e-01	
   3.4430000e+01	   7.6855818e-01	  -8.1862183e-02	  -3.5123248e-01	
   3.4485000e+01	   7.6649766e-01	  -9.0462125e-02	  -3.5197310e-01	
   3.4540000e+01	   7.6390961e-01	  -9.9411918e-02	  -3.5264985e-01	
   3.4595000e+01	   7.6090932e-01	  -1.0849760e-01	  -3.5315218e-01	
   3.4650000e+01	   7.5762299e-01	  -1.1749163e-01	  -3.5336195e-01	
   3.4705000e+01	   7.5417732e-01	  -1.2616011e-01	  -3.5315873e-01	
   3.4760000e+01	   7.5069009e-01	  -1.3427062e-01	  -3.5242495e-01	
   3.4815000e+01	   7.4726287e-01	  -1.4160114e-01	  -3.5105183e-01	
   3.4870000e+01	   7.4397713e-01	  -1.4794832e-01	  -3.4894615e-01	
   3.4925000e+01	   7.4089377e-01	  -1.5313437e-01	  -3.4603743e-01	
   3.4980000e+01	   7.3805526e-01	  -1.5701304e-01	  -3.4228432e-01	
   3.5035000e+01	   7.3548978e-01	  -1.5947444e-01	  -3.3767829e-01	
   3.5090000e+01	   7.3321661e-01	  -1.6044779e-01	  -3.3224303e-01	
   3.5145000e+01	   7.3125201e-01	  -1.5990129e-01	  -3.2603000e-01	
   3.5200000e+01	   7.2961368e-01	  -1.5783922e-01	  -3.1911216e-01	
   3.5255000e+01	   7.2832244e-01	  -1.5429673e-01	  -3.1157726e-01	
   3.5310000e+01	   7.2740087e-01	  -1.4933286e-01	  -3.0352035e-01	
   3.5365000e+01	   7.2687021e-01	  -1.4302245e-01	  -2.9503536e-01	
   3.5420000e+01	   7.2674564e-01	  -1.3544888e-01	  -2.8620680e-01	
   3.5475000e+01	   7.2703115e-01	  -1.2670055e-01	  -2.7710433e-01	
   3.5530000e+01	   7.2771537e-01	  -1.1687191e-01	  -2.6778084e-01	
   3.5585000e+01	   7.2876968e-01	  -1.0606763e-01	  -2.5827249e-01	
   3.5640000e+01	   7.3014838e-01	  -9.4406488e-02	  -2.4859991e-01	
   3.5695000e+01	   7.3178998e-01	  -8.2022079e-02	  -2.3877097e-01	
   3.5750000e+01	   7.3361969e-01	  -6.9058404e-02	  -2.2878492e-01	
   3.5805000e+01	   7.3555300e-01	  -5.5661313e-02	  -2.1863704e-01	
   3.5860000e+01	   7.3749933e-01	  -4.1970263e-02	  -2.0832388e-01	
   3.5915000e+01	   7.3936437e-01	  -2.8114223e-02	  -1.9784818e-01	
   3.5970000e+01	   7.4105114e-01	  -1.4211249e-02	  -1.8722175e-01	
   3.6025000e+01	   7.4246054e-01	  -3.6899528e-04	  -1.7646549e-01	
   3.6080000e+01	   7.4349171e-01	   1.3314513e-02	  -1.6560737e-01	
   3.6135000e+01	   7.4404299e-01	   2.6749126e-02	  -1.5468023e-01	
   3.6190000e+01	   7.4401423e-01	   3.9850768e-02	  -1.4371966e-01	
   3.6245000e+01	   7.4331098e-01	   5.2541221e-02	  -1.3276276e-01	
   3.6300000e+01	   7.4184987e-01	   6.4749218e-02	  -1.2184845e-01	
   3.6355000e+01	   7.3956420e-01	   7.6411553e-02	  -1.1101939e-01	
   3.6410000e+01	   7.3640837e-01	   8.7474635e-02	  -1.0032351e-01	
   3.6465000e+01	   7.3236034e-01	   9.7897961e-02	  -8.9813145e-02	
   3.6520000e+01	   7.2742217e-01	   1.0765958e-01	  -7.9541733e-02	
   3.6575000e+01	   7.2161945e-01	   1.1676180e-01	  -6.9559413e-02	
   3.6630000e+01	   7.1500032e-01	   1.2523566e-01	  -5.9908887e-02	
   3.6685000e+01	   7.0763371e-01	   1.3314363e-01	  -5.0621601e-02	
   3.6740000e+01	   6.9960644e-01	   1.4058037e-01	  -4.1714741e-02	
   3.6795000e+01	   6.9101863e-01	   1.4766977e-01	  -3.3190605e-02	
   3.6850000e+01	   6.8197799e-01	   1.5455825e-01	  -2.5039224e-02	
   3.6905000e+01	   6.7259453e-01	   1.6140580e-01	  -1.7242887e-02	
   3.6960000e+01	   6.6297647e-01	   1.6837563e-01	  -9.7804093e-03	
   3.7015000e+01	   6.5322743e-01	   1.7562190e-01	  -2.6300785e-03	
   3.7070000e+01	   6.4344486e-01	   1.8327668e-01	   4.2291297e-03	
   3.7125000e+01	   6.3372019e-01	   1.9143901e-01	   1.0818197e-02	
   3.7180000e+01	   6.2413995e-01	   2.0016869e-01	   1.7159524e-02	
   3.7235000e+01	   6.1478649e-01	   2.0948403e-01	   2.3277243e-02	
   3.7290000e+01	   6.0573728e-01	   2.1936251e-01	   2.9195452e-02	
   3.7345000e+01	   5.9706299e-01	   2.2974394e-01	   3.4935286e-02	
   3.7400000e+01	   5.8882468e-01	   2.4053652e-01	   4.0512055e-02	
   3.7455000e+01	   5.8107042e-01	   2.5162487e-01	   4.5932801e-02	
   3.7510000e+01	   5.7383224e-01	   2.6287899e-01	   5.1194549e-02	
   3.7565000e+01	   5.6712425e-01	   2.7416386e-01	   5.6284178e-02	
   3.7620000e+01	   5.6094305e-01	   2.8534927e-01	   6.1179980e-02	
   3.7675000e+01	   5.5527019e-01	   2.9631885e-01	   6.5853050e-02	
   3.7730000e+01	   5.5007586e-01	   3.0697657e-01	   7.0266636e-02	
   3.7785000e+01	   5.4532215e-01	   3.1724993e-01	   7.4373853e-02	
   3.7840000e+01	   5.4096547e-01	   3.2709010e-01	   7.8115619e-02	
   3.7895000e+01	   5.3695804e-01	   3.3646887e-01	   8.1420194e-02	
   3.7950000e+01	   5.3324870e-01	   3.4537218e-01	   8.4205213e-02	
   3.8005000e+01	   5.2978369e-01	   3.5379202e-01	   8.6382696e-02	
   3.8060000e+01	   5.2650830e-01	   3.6171969e-01	   8.7866373e-02	
   3.8115000e+01	   5.2336883e-01	   3.6914121e-01	   8.8579713e-02	
   3.8170000e+01	   5.2031414e-01	   3.7603413e-01	   8.8462837e-02	
   3.8225000e+01	   5.1729596e-01	   3.8236585e-01	   8.7476984e-02	
   3.8280000e+01	   5.1426908e-01	   3.8809500e-01	   8.5605888e-02	
   3.8335000e+01	   5.1119221e-01	   3.9317518e-01	   8.2853777e-02	
   3.8390000e+01	   5.0802923e-01	   3.9755862e-01	   7.9239987e-02	
   3.8445000e+01	   5.0474997e-01	   4.0119932e-01	   7.4791711e-02	
   3.8500000e+01	   5.0133024e-01	   4.0405776e-01	   6.9537940e-02	
   3.8555000e+01	   4.9775156e-01	   4.0610793e-01	   6.3507056e-02	
   3.8610000e+01	   4.9400153e-01	   4.0734509e-01	   5.6727955e-02	
   3.8665000e+01	   4.9007462e-01	   4.0779211e-01	   4.9232517e-02	
   3.8720000e+01	   4.8597346e-01	   4.0750382e-01	   4.1057479e-02	
   3.8775000e+01	   4.8170991e-01	   4.0656762e-01	   3.2245073e-02	
   3.8830000e+01	   4.7730497e-01	   4.0509923e-01	   2.2842627e-02	
   3.8885000e+01	   4.7278664e-01	   4.0323361e-01	   1.2901981e-02	
   3.8940000e+01	   4.6818632e-01	   4.0111362e-01	   2.4799563e-03	
   3.8995000e+01	   4.6353454e-01	   3.9887886e-01	  -8.3594811e-03	
   3.9050000e+01	   4.5885679e-01	   3.9665708e-01	  -1.9542044e-02	
   3.9105000e+01	   4.5417045e-01	   3.9455934e-01	  -3.0980280e-02	
   3.9160000e+01	   4.4948413e-01	   3.9267926e-01	  -4.2571663e-02	
   3.9215000e+01	   4.4480038e-01	   3.9109560e-01	  -5.4197562e-02	
   3.9270000e+01	   4.4012023e-01	   3.8987568e-01	  -6.5723659e-02	
   3.9325000e+01	   4.3544700e-01	   3.8907703e-01	  -7.7003076e-02	
   3.9380000e+01	   4.3078783e-01	   3.8874594e-01	  -8.7882708e-02	
   3.9435000e+01	   4.2615349e-01	   3.8891363e-01	  -9.8211575e-02	
   3.9490000e+01	   4.2155741e-01	   3.8959267e-01	  -1.0784911e-01	
   3.9545000e+01	   4.1701493e-01	   3.9077569e-01	  -1.1667177e-01	
   3.9600000e+01	   4.1254321e-01	   3.9243712e-01	  -1.2457708e-01	
   3.9655000e+01	   4.0816279e-01	   3.9453741e-01	  -1.3148487e-01	
   3.9710000e+01	   4.0390073e-01	   3.9702943e-01	  -1.3733730e-01	
   3.9765000e+01	   3.9979408e-01	   3.9986498e-01	  -1.4209951e-01	
   3.9820000e+01	   3.9589177e-01	   4.0299924e-01	  -1.4576110e-01	
   3.9875000e+01	   3.9225413e-01	   4.0639252e-01	  -1.4833635e-01	
   3.9930000e+01	   3.8895069e-01	   4.1001093e-01	  -1.4986164e-01	
   3.9985000e+01	   3.8605679e-01	   4.1382679e-01	  -1.5039073e-01	
   4.0040000e+01	   3.8364896e-01	   4.1781951e-01	  -1.4998942e-01	
   4.0095000e+01	   3.8179916e-01	   4.2197618e-01	  -1.4873079e-01	
   4.0150000e+01	   3.8056868e-01	   4.2629056e-01	  -1.4669160e-01	
   4.0205000e+01	   3.8000287e-01	   4.3075978e-01	  -1.4395026e-01	
   4.0260000e+01	   3.8012790e-01	   4.3538068e-01	  -1.4058585e-01	
   4.0315000e+01	   3.8095007e-01	   4.4014920e-01	  -1.3667714e-01	
   4.0370000e+01	   3.8245720e-01	   4.4506313e-01	  -1.3230168e-01	
   4.0425000e+01	   3.8462020e-01	   4.5012527e-01	  -1.2753624e-01	
   4.0480000e+01	   3.8739360e-01	   4.5534424e-01	  -1.2245909e-01	
   4.0535000e+01	   3.9071568e-01	   4.6073284e-01	  -1.1715350e-01	
   4.0590000e+01	   3.9450880e-01	   4.6630544e-01	  -1.1171138e-01	
   4.0645000e+01	   3.9868013e-01	   4.7207568e-01	  -1.0623629e-01	
   4.0700000e+01	   4.0312190e-01	   4.7805479e-01	  -1.0084442e-01	
   4.0755000e+01	   4.0771175e-01	   4.8425014e-01	  -9.5662031e-02	
   4.0810000e+01	   4.1231388e-01	   4.9066323e-01	  -9.0819656e-02	
   4.0865000e+01	   4.1678126e-01	   4.9728763e-01	  -8.6444894e-02	
   4.0920000e+01	   4.2095877e-01	   5.0410809e-01	  -8.2655486e-02	
   4.0975000e+01	   4.2468796e-01	   5.1110252e-01	  -7.9553090e-02	
   4.1030000e+01	   4.2781432e-01	   5.1824568e-01	  -7.7217424e-02	
   4.1085000e+01	   4.3019619e-01	   5.2551192e-01	  -7.5701468e-02	
   4.1140000e+01	   4.3171301e-01	   5.3287414e-01	  -7.5029126e-02	
   4.1195000e+01	   4.3227161e-01	   5.4029905e-01	  -7.5195796e-02	
   4.1250000e+01	   4.3181020e-01	   5.4774060e-01	  -7.6171257e-02	
   4.1305000e+01	   4.3029993e-01	   5.5513369e-01	  -7.7904192e-02	
   4.1360000e+01	   4.2774415e-01	   5.6239008e-01	  -8.0327555e-02	
   4.1415000e+01	   4.2417548e-01	   5.6939768e-01	  -8.3363482e-02	
   4.1470000e+01	   4.1965201e-01	   5.7602380e-01	  -8.6926879e-02	
   4.1525000e+01	   4.1425297e-01	   5.8212084e-01	  -9.0928083e-02	
   4.1580000e+01	   4.0807370e-01	   5.8753322e-01	  -9.5275391e-02	
   4.1635000e+01	   4.0121958e-01	   5.9210552e-01	  -9.9876956e-02	
   4.1690000e+01	   3.9379917e-01	   5.9569197e-01	  -1.0464076e-01	
   4.1745000e+01	   3.8591812e-01	   5.9816512e-01	  -1.0947282e-01	
   4.1800000e+01	   3.7767449e-01	   5.9942185e-01	  -1.1427554e-01	
   4.1855000e+01	   3.6915604e-01	   5.9938732e-01	  -1.1894769e-01	
   4.1910000e+01	   3.6043868e-01	   5.9801890e-01	  -1.2338536e-01	
   4.1965000e+01	   3.5158521e-01	   5.9531000e-01	  -1.2748328e-01	
   4.2020000e+01	   3.4264417e-01	   5.9129204e-01	  -1.3113627e-01	
   4.2075000e+01	   3.3364967e-01	   5.8603295e-01	  -1.3424133e-01	
   4.2130000e+01	   3.2462241e-01	   5.7963246e-01	  -1.3670012e-01	
   4.2185000e+01	   3.1557117e-01	   5.7221508e-01	  -1.3842122e-01	
   4.2240000e+01	   3.0649443e-01	   5.6392201e-01	  -1.3932175e-01	
   4.2295000e+01	   2.9738202e-01	   5.5490308e-01	  -1.3932895e-01	
   4.2350000e+01	   2.8821733e-01	   5.4530803e-01	  -1.3838241e-01	
   4.2405000e+01	   2.7898044e-01	   5.3527668e-01	  -1.3643686e-01	
   4.2460000e+01	   2.6965122e-01	   5.2492921e-01	  -1.3346505e-01	
   4.2515000e+01	   2.6021173e-01	   5.1435888e-01	  -1.2946018e-01	
   4.2570000e+01	   2.5064727e-01	   5.0362914e-01	  -1.2443711e-01	
   4.2625000e+01	   2.4094600e-01	   4.9277567e-01	  -1.1843077e-01	
   4.2680000e+01	   2.3109734e-01	   4.8181239e-01	  -1.1149108e-01	
   4.2735000e+01	   2.2109040e-01	   4.7073936e-01	  -1.0367408e-01	
   4.2790000e+01	   2.1091368e-01	   4.5955173e-01	  -9.5031484e-02	
   4.2845000e+01	   2.0055599e-01	   4.4824845e-01	  -8.5602443e-02	
   4.2900000e+01	   1.9000750e-01	   4.3683972e-01	  -7.5410870e-02	
   4.2955000e+01	   1.7926022e-01	   4.2535264e-01	  -6.4468509e-02	
   4.3010000e+01	   1.6830868e-01	   4.1383542e-01	  -5.2780497e-02	
   4.3065000e+01	   1.5715195e-01	   4.0235987e-01	  -4.0349947e-02	
   4.3120000e+01	   1.4579633e-01	   3.9102133e-01	  -2.7180824e-02	
   4.3175000e+01	   1.3425780e-01	   3.7993504e-01	  -1.3281008e-02	
   4.3230000e+01	   1.2256316e-01	   3.6922947e-01	   1.3325499e-03	
   4.3285000e+01	   1.1074942e-01	   3.5903693e-01	   1.6627393e-02	
   4.3340000e+01	   9.8861156e-02	   3.4948220e-01	   3.2550758e-02	
   4.3395000e+01	   8.6946214e-02	   3.4067090e-01	   4.9028437e-02	
   4.3450000e+01	   7.5051371e-02	   3.3267994e-01	   6.5966859e-02	
   4.3505000e+01	   6.3219092e-02	   3.2555120e-01	   8.3256578e-02	
   4.3560000e+01	   5.1485239e-02	   3.1928754e-01	   1.0077596e-01	
   4.3615000e+01	   3.9876917e-02	   3.1384998e-01	   1.1839533e-01	
   4.3670000e+01	   2.8410488e-02	   3.0915714e-01	   1.3598191e-01	
   4.3725000e+01	   1.7090445e-02	   3.0508866e-01	   1.5340465e-01	
   4.3780000e+01	   5.9097080e-03	   3.0149305e-01	   1.7053775e-01	
   4.3835000e+01	  -5.1487552e-03	   2.9819811e-01	   1.8726326e-01	
   4.3890000e+01	  -1.6109358e-02	   2.9502154e-01	   2.0347377e-01	
   4.3945000e+01	  -2.7000696e-02	   2.9178063e-01	   2.1907578e-01	
   4.4000000e+01	  -3.7852251e-02	   2.8830021e-01	   2.3399322e-01	
   4.4055000e+01	  -4.8691821e-02	   2.8441758e-01	   2.4816937e-01	
   4.4110000e+01	  -5.9544205e-02	   2.7998458e-01	   2.6156589e-01	
   4.4165000e+01	  -7.0430658e-02	   2.7486823e-01	   2.7416009e-01	
   4.4220000e+01	  -8.1368220e-02	   2.6895231e-01	   2.8594187e-01	
   4.4275000e+01	  -9.2368964e-02	   2.6214077e-01	   2.9691059e-01	
   4.4330000e+01	  -1.0343946e-01	   2.5436288e-01	   3.0707077e-01	
   4.4385000e+01	  -1.1457997e-01	   2.4557866e-01	   3.1642735e-01	
   4.4440000e+01	  -1.2578307e-01	   2.3578281e-01	   3.2498248e-01	
   4.4495000e+01	  -1.3703278e-01	   2.2500577e-01	   3.3273535e-01	
   4.4550000e+01	  -1.4830565e-01	   2.1331120e-01	   3.3968495e-01	
   4.4605000e+01	  -1.5957434e-01	   2.0079049e-01	   3.4583429e-01	
   4.4660000e+01	  -1.7081241e-01	   1.8755497e-01	   3.5119387e-01	
   4.4715000e+01	  -1.8199942e-01	   1.7372642e-01	   3.5578352e-01	
   4.4770000e+01	  -1.9312494e-01	   1.5942696e-01	   3.5963398e-01	
   4.4825000e+01	  -2.0419061e-01	   1.4477032e-01	   3.6279046e-01	
   4.4880000e+01	  -2.1520967e-01	   1.2985584e-01	   3.6531809e-01	
   4.4935000e+01	  -2.2620497e-01	   1.1476498e-01	   3.6730564e-01	
   4.4990000e+01	  -2.3720627e-01	   9.9559834e-02	   3.6886342e-01	
   4.5045000e+01	  -2.4824717e-01	   8.4284199e-02	   3.7011544e-01	
   4.5100000e+01	  -2.5936172e-01	   6.8967266e-02	   3.7118910e-01	
   4.5155000e+01	  -2.7058130e-01	   5.3628503e-02	   3.7220533e-01	
   4.5210000e+01	  -2.8193223e-01	   3.8281085e-02	   3.7326990e-01	
   4.5265000e+01	  -2.9343319e-01	   2.2933066e-02	   3.7446597e-01	
   4.5320000e+01	  -3.0509190e-01	   7.5879959e-03	   3.7584793e-01	
   4.5375000e+01	  -3.1690119e-01	  -7.7534000e-03	   3.7743663e-01	
   4.5430000e+01	  -3.2883588e-01	  -2.3090921e-02	   3.7921592e-01	
   4.5485000e+01	  -3.4085124e-01	  -3.8423276e-02	   3.8113167e-01	
   4.5540000e+01	  -3.5288267e-01	  -5.3747855e-02	   3.8309476e-01	
   4.5595000e+01	  -3.6484681e-01	  -6.9062268e-02	   3.8498767e-01	
   4.5650000e+01	  -3.7664494e-01	  -8.4367568e-02	   3.8667210e-01	
   4.5705000e+01	  -3.8816920e-01	  -9.9671666e-02	   3.8799577e-01	
   4.5760000e+01	  -3.9931105e-01	  -1.1499099e-01	   3.8879816e-01	
   4.5815000e+01	  -4.0997016e-01	  -1.3035029e-01	   3.8891617e-01	
   4.5870000e+01	  -4.2006189e-01	  -1.4578120e-01	   3.8819038e-01	
   4.5925000e+01	  -4.2952208e-01	  -1.6131859e-01	   3.8647203e-01	
   4.5980000e+01	  -4.3830809e-01	  -1.7699265e-01	   3.8362930e-01	
   4.6035000e+01	  -4.4639675e-01	  -1.9281784e-01	   3.7955111e-01	
   4.6090000e+01	  -4.5378053e-01	  -2.0878313e-01	   3.7414881e-01	
   4.6145000e+01	  -4.6046374e-01	  -2.2484766e-01	   3.6735701e-01	
   4.6200000e+01	  -4.6645953e-01	  -2.4094286e-01	   3.5913415e-01	
   4.6255000e+01	  -4.7178770e-01	  -2.5697928e-01	   3.4946172e-01	
   4.6310000e+01	  -4.7647457e-01	  -2.7285565e-01	   3.3834220e-01	
   4.6365000e+01	  -4.8055536e-01	  -2.8846819e-01	   3.2579689e-01	
   4.6420000e+01	  -4.8407781e-01	  -3.0371877e-01	   3.1186529e-01	
   4.6475000e+01	  -4.8710453e-01	  -3.1852122e-01	   2.9660597e-01	
   4.6530000e+01	  -4.8971340e-01	  -3.3280698e-01	   2.8009795e-01	
   4.6585000e+01	  -4.9199634e-01	  -3.4653106e-01	   2.6244120e-01	
   4.6640000e+01	  -4.9405709e-01	  -3.5967761e-01	   2.4375510e-01	
   4.6695000e+01	  -4.9600832e-01	  -3.7226396e-01	   2.2417452e-01	
   4.6750000e+01	  -4.9796851e-01	  -3.8434171e-01	   2.0384439e-01	
   4.6805000e+01	  -5.0005842e-01	  -3.9599405e-01	   1.8291462e-01	
   4.6860000e+01	  -5.0239704e-01	  -4.0732913e-01	   1.6153681e-01	
   4.6915000e+01	  -5.0509704e-01	  -4.1847079e-01	   1.3986252e-01	
   4.6970000e+01	  -5.0826046e-01	  -4.2954902e-01	   1.1804108e-01	
   4.7025000e+01	  -5.1197482e-01	  -4.4069250e-01	   9.6215054e-02	
   4.7080000e+01	  -5.1630969e-01	  -4.5202438e-01	   7.4513592e-02	
   4.7135000e+01	  -5.2131377e-01	  -4.6366054e-01	   5.3046297e-02	
   4.7190000e+01	  -5.2701237e-01	  -4.7570844e-01	   3.1899016e-02	
   4.7245000e+01	  -5.3340551e-01	  -4.8826494e-01	   1.1131601e-02	
   4.7300000e+01	  -5.4046739e-01	  -5.0141382e-01	  -9.2227196e-03	
   4.7355000e+01	  -5.4814747e-01	  -5.1522449e-01	  -2.9156632e-02	
   4.7410000e+01	  -5.5637296e-01	  -5.2975236e-01	  -4.8686980e-02	
   4.7465000e+01	  -5.6505210e-01	  -5.4503919e-01	  -6.7851870e-02	
   4.7520000e+01	  -5.7407717e-01	  -5.6111080e-01	  -8.6706449e-02	
   4.7575000e+01	  -5.8332731e-01	  -5.7797073e-01	  -1.0531751e-01	
   4.7630000e+01	  -5.9267147e-01	  -5.9559215e-01	  -1.2375737e-01	
   4.7685000e+01	  -6.0197316e-01	  -6.1391173e-01	  -1.4209793e-01	
   4.7740000e+01	  -6.1109731e-01	  -6.3282824e-01	  -1.6040657e-01	
   4.7795000e+01	  -6.1991782e-01	  -6.5220481e-01	  -1.7874452e-01	
   4.7850000e+01	  -6.2832384e-01	  -6.7187258e-01	  -1.9716738e-01	
   4.7905000e+01	  -6.3622343e-01	  -6.9163427e-01	  -2.1572634e-01	
   4.7960000e+01	  -6.4354427e-01	  -7.1126750e-01	  -2.3446916e-01	
   4.8015000e+01	  -6.5023168e-01	  -7.3052838e-01	  -2.5343937e-01	
   4.8070000e+01	  -6.5624543e-01	  -7.4915590e-01	  -2.7267335e-01	
   4.8125000e+01	  -6.6155654e-01	  -7.6687799e-01	  -2.9219549e-01	
   4.8180000e+01	  -6.6614423e-01	  -7.8342005e-01	  -3.1201260e-01	
   4.8235000e+01	  -6.6999253e-01	  -7.9851665e-01	  -3.3210773e-01	
   4.8290000e+01	  -6.7308718e-01	  -8.1192654e-01	  -3.5243378e-01	
   4.8345000e+01	  -6.7541433e-01	  -8.2344902e-01	  -3.7290863e-01	
   4.8400000e+01	  -6.7696172e-01	  -8.3293780e-01	  -3.9341328e-01	
   4.8455000e+01	  -6.7772124e-01	  -8.4030897e-01	  -4.1379275e-01	
   4.8510000e+01	  -6.7769207e-01	  -8.4554289e-01	  -4.3385966e-01	
   4.8565000e+01	  -6.7688406e-01	  -8.4868107e-01	  -4.5340177e-01	
   4.8620000e+01	  -6.7532024e-01	  -8.4981856e-01	  -4.7219285e-01	
   4.8675000e+01	  -6.7303700e-01	  -8.4909324e-01	  -4.9000453e-01	
   4.8730000e+01	  -6.7008156e-01	  -8.4667455e-01	  -5.0661754e-01	
   4.8785000e+01	  -6.6650793e-01	  -8.4275351e-01	  -5.2183283e-01	
   4.8840000e+01	  -6.6237304e-01	  -8.3753379e-01	  -5.3548232e-01	
   4.8895000e+01	  -6.5773436e-01	  -8.3122323e-01	  -5.4743859e-01	
   4.8950000e+01	  -6.5264967e-01	  -8.2402600e-01	  -5.5762182e-01	
   4.9005000e+01	  -6.4717796e-01	  -8.1613560e-01	  -5.6600266e-01	
   4.9060000e+01	  -6.4137939e-01	  -8.0772843e-01	  -5.7260127e-01	
   4.9115000e+01	  -6.3531237e-01	  -7.9895905e-01	  -5.7748349e-01	
   4.9170000e+01	  -6.2902779e-01	  -7.8995881e-01	  -5.8075445e-01	
   4.9225000e+01	  -6.2256252e-01	  -7.8083777e-01	  -5.8255087e-01	
   4.9280000e+01	  -6.1593462e-01	  -7.7168768e-01	  -5.8303430e-01	
   4.9335000e+01	  -6.0914142e-01	  -7.6258385e-01	  -5.8238610e-01	
   4.9390000e+01	  -6.0216003e-01	  -7.5358578e-01	  -5.8080283e-01	
   4.9445000e+01	  -5.9495010e-01	  -7.4473698e-01	  -5.7849050e-01	
   4.9500000e+01	  -5.8745851e-01	  -7.3606436e-01	  -5.7565698e-01	
   4.9555000e+01	  -5.7962582e-01	  -7.2757725e-01	  -5.7250276e-01	
   4.9610000e+01	  -5.7139400e-01	  -7.1926810e-01	  -5.6921133e-01	
   4.9665000e+01	  -5.6271404e-01	  -7.1111735e-01	  -5.6594215e-01	
   4.9720000e+01	  -5.5355244e-01	  -7.0310111e-01	  -5.6282871e-01	
   4.9775000e+01	  -5.4389485e-01	  -6.9519710e-01	  -5.5998041e-01	
   4.9830000e+01	  -5.3374601e-01	  -6.8738505e-01	  -5.5748475e-01	
   4.9885000e+01	  -5.2312692e-01	  -6.7964256e-01	  -5.5540746e-01	
   4.9940000e+01	  -5.1207049e-01	  -6.7193937e-01	  -5.5379102e-01	
   4.9995000e+01	  -5.0061645e-01	  -6.6423271e-01	  -5.5265235e-01	
   5.0050000e+01	  -4.8880623e-01	  -6.5646592e-01	  -5.5198120e-01	
   5.0105000e+01	  -4.7667892e-01	  -6.4857229e-01	  -5.5174002e-01	
   5.0160000e+01	  -4.6426902e-01	  -6.4048404e-01	  -5.5186527e-01	
   5.0215000e+01	  -4.5160545e-01	  -6.3214268e-01	  -5.5226862e-01	
   5.0270000e+01	  -4.3871172e-01	  -6.2350649e-01	  -5.5283798e-01	
   5.0325000e+01	  -4.2560798e-01	  -6.1455437e-01	  -5.5343923e-01	
   5.0380000e+01	  -4.1231575e-01	  -6.0528730e-01	  -5.5391979e-01	
   5.0435000e+01	  -3.9886391e-01	  -5.9572882e-01	  -5.5411408e-01	
   5.0490000e+01	  -3.8529420e-01	  -5.8592444e-01	  -5.5384946e-01	
   5.0545000e+01	  -3.7166475e-01	  -5.7593996e-01	  -5.5295207e-01	
   5.0600000e+01	  -3.5805189e-01	  -5.6585926e-01	  -5.5125204e-01	
   5.0655000e+01	  -3.4455033e-01	  -5.5578153e-01	  -5.4858874e-01	
   5.0710000e+01	  -3.3127193e-01	  -5.4581756e-01	  -5.4481704e-01	
   5.0765000e+01	  -3.1834316e-01	  -5.3608441e-01	  -5.3981639e-01	
   5.0820000e+01	  -3.0590199e-01	  -5.2669881e-01	  -5.3350238e-01	
   5.0875000e+01	  -2.9409396e-01	  -5.1776876e-01	  -5.2583822e-01	
   5.0930000e+01	  -2.8306690e-01	  -5.0938356e-01	  -5.1684319e-01	
   5.0985000e+01	  -2.7296400e-01	  -5.0160408e-01	  -5.0659640e-01	
   5.1040000e+01	  -2.6391607e-01	  -4.9445608e-01	  -4.9523527e-01	
   5.1095000e+01	  -2.5603433e-01	  -4.8792836e-01	  -4.8294860e-01	
   5.1150000e+01	  -2.4940419e-01	  -4.8197458e-01	  -4.6996500e-01	
   5.1205000e+01	  -2.4407987e-01	  -4.7651692e-01	  -4.5653947e-01	
   5.1260000e+01	  -2.4008062e-01	  -4.7145073e-01	  -4.4294128e-01	
   5.1315000e+01	  -2.3738944e-01	  -4.6665062e-01	  -4.2944400e-01	
   5.1370000e+01	  -2.3595400e-01	  -4.6197859e-01	  -4.1631668e-01	
   5.1425000e+01	  -2.3568819e-01	  -4.5729390e-01	  -4.0381468e-01	
   5.1480000e+01	  -2.3647359e-01	  -4.5246284e-01	  -3.9217092e-01	
   5.1535000e+01	  -2.3816154e-01	  -4.4736659e-01	  -3.8158864e-01	
   5.1590000e+01	  -2.4057736e-01	  -4.4190668e-01	  -3.7223645e-01	
   5.1645000e+01	  -2.4352763e-01	  -4.3600964e-01	  -3.6424452e-01	
   5.1700000e+01	  -2.4681043e-01	  -4.2963159e-01	  -3.5770122e-01	
   5.1755000e+01	  -2.5022751e-01	  -4.2276287e-01	  -3.5264996e-01	
   5.1810000e+01	  -2.5359574e-01	  -4.1543202e-01	  -3.4908733e-01	
   5.1865000e+01	  -2.5675609e-01	  -4.0770740e-01	  -3.4696416e-01	
   5.1920000e+01	  -2.5957967e-01	  -3.9969469e-01	  -3.4619077e-01	
   5.1975000e+01	  -2.6197074e-01	  -3.9153028e-01	  -3.4664538e-01	
   5.2030000e+01	  -2.6386634e-01	  -3.8337117e-01	  -3.4818333e-01	
   5.2085000e+01	  -2.6523299e-01	  -3.7538192e-01	  -3.5064499e-01	
   5.2140000e+01	  -2.6606231e-01	  -3.6772070e-01	  -3.5386312e-01	
   5.2195000e+01	  -2.6636756e-01	  -3.6052698e-01	  -3.5767053e-01	
   5.2250000e+01	  -2.6618176e-01	  -3.5391196e-01	  -3.6190721e-01	
   5.2305000e+01	  -2.6555644e-01	  -3.4795191e-01	  -3.6642495e-01	
   5.2360000e+01	  -2.6455969e-01	  -3.4268505e-01	  -3.7108880e-01	
   5.2415000e+01	  -2.6327285e-01	  -3.3811299e-01	  -3.7577673e-01	
   5.2470000e+01	  -2.6178620e-01	  -3.3420650e-01	  -3.8037967e-01	
   5.2525000e+01	  -2.6019390e-01	  -3.3091409e-01	  -3.8480189e-01	
   5.2580000e+01	  -2.5858833e-01	  -3.2817139e-01	  -3.8896099e-01	
   5.2635000e+01	  -2.5705453e-01	  -3.2590956e-01	  -3.9278641e-01	
   5.2690000e+01	  -2.5566604e-01	  -3.2406148e-01	  -3.9621731e-01	
   5.2745000e+01	  -2.5448222e-01	  -3.2256607e-01	  -3.9920053e-01	
   5.2800000e+01	  -2.5354653e-01	  -3.2137099e-01	  -4.0169005e-01	
   5.2855000e+01	  -2.5288490e-01	  -3.2043314e-01	  -4.0364820e-01	
   5.2910000e+01	  -2.5250362e-01	  -3.1971638e-01	  -4.0504665e-01	
   5.2965000e+01	  -2.5238684e-01	  -3.1918708e-01	  -4.0586507e-01	
   5.3020000e+01	  -2.5249457e-01	  -3.1880986e-01	  -4.0608666e-01	
   5.3075000e+01	  -2.5276350e-01	  -3.1854551e-01	  -4.0569366e-01	
   5.3130000e+01	  -2.5311160e-01	  -3.1835261e-01	  -4.0466624e-01	
   5.3185000e+01	  -2.5344593e-01	  -3.1819195e-01	  -4.0298547e-01	
   5.3240000e+01	  -2.5367111e-01	  -3.1803152e-01	  -4.0063845e-01	
   5.3295000e+01	  -2.5369731e-01	  -3.1785003e-01	  -3.9762371e-01	
   5.3350000e+01	  -2.5344713e-01	  -3.1763797e-01	  -3.9395735e-01	
   5.3405000e+01	  -2.5286051e-01	  -3.1739636e-01	  -3.8967971e-01	
   5.3460000e+01	  -2.5189741e-01	  -3.1713345e-01	  -3.8486127e-01	
   5.3515000e+01	  -2.5053840e-01	  -3.1686010e-01	  -3.7960590e-01	
   5.3570000e+01	  -2.4878345e-01	  -3.1658353e-01	  -3.7405072e-01	
   5.3625000e+01	  -2.4664901e-01	  -3.1629914e-01	  -3.6836214e-01	
   5.3680000e+01	  -2.4416408e-01	  -3.1598193e-01	  -3.6272764e-01	
   5.3735000e+01	  -2.4136670e-01	  -3.1558101e-01	  -3.5734363e-01	
   5.3790000e+01	  -2.3830214e-01	  -3.1501992e-01	  -3.5240093e-01	
   5.3845000e+01	  -2.3502277e-01	  -3.1420200e-01	  -3.4807082e-01	
   5.3900000e+01	  -2.3158838e-01	  -3.1301779e-01	  -3.4449384e-01	
   5.3955000e+01	  -2.2806567e-01	  -3.1135191e-01	  -3.4177324e-01	
   5.4010000e+01	  -2.2452678e-01	  -3.0908819e-01	  -3.3997318e-01	
   5.4065000e+01	  -2.2104694e-01	  -3.0611233e-01	  -3.3912010e-01	
   5.4120000e+01	  -2.1770088e-01	  -3.0231293e-01	  -3.3920522e-01	
   5.4175000e+01	  -2.1455890e-01	  -2.9758314e-01	  -3.4018695e-01	
   5.4230000e+01	  -2.1168397e-01	  -2.9182425e-01	  -3.4199416e-01	
   5.4285000e+01	  -2.0913026e-01	  -2.8495022e-01	  -3.4453073e-01	
   5.4340000e+01	  -2.0694242e-01	  -2.7689037e-01	  -3.4768111e-01	
   5.4395000e+01	  -2.0515471e-01	  -2.6759069e-01	  -3.5131569e-01	
   5.4450000e+01	  -2.0378998e-01	  -2.5701707e-01	  -3.5529569e-01	
   5.4505000e+01	  -2.0285895e-01	  -2.4516253e-01	  -3.5947732e-01	
   5.4560000e+01	  -2.0235972e-01	  -2.3205581e-01	  -3.6371463e-01	
   5.4615000e+01	  -2.0227739e-01	  -2.1776726e-01	  -3.6786152e-01	
   5.4670000e+01	  -2.0258370e-01	  -2.0240998e-01	  -3.7177396e-01	
   5.4725000e+01	  -2.0323639e-01	  -1.8613620e-01	  -3.7531348e-01	
   5.4780000e+01	  -2.0417833e-01	  -1.6913030e-01	  -3.7835070e-01	
   5.4835000e+01	  -2.0533666e-01	  -1.5160027e-01	  -3.8076761e-01	
   5.4890000e+01	  -2.0662306e-01	  -1.3376973e-01	  -3.8245805e-01	
   5.4945000e+01	  -2.0793615e-01	  -1.1587061e-01	  -3.8332855e-01	
   5.5000000e+01	  -2.0916564e-01	  -9.8134904e-02	  -3.8330055e-01	
   5.5055000e+01	  -2.1019657e-01	  -8.0784094e-02	  -3.8231375e-01	
   5.5110000e+01	  -2.1091302e-01	  -6.4018100e-02	  -3.8032908e-01	
   5.5165000e+01	  -2.1120218e-01	  -4.8006428e-02	  -3.7733047e-01	
   5.5220000e+01	  -2.1095969e-01	  -3.2882804e-02	  -3.7332492e-01	
   5.5275000e+01	  -2.1009569e-01	  -1.8742877e-02	  -3.6834130e-01	
   5.5330000e+01	  -2.0854021e-01	  -5.6443671e-03	  -3.6242889e-01	
   5.5385000e+01	  -2.0624684e-01	   6.3905986e-03	  -3.5565547e-01	
   5.5440000e+01	  -2.0319407e-01	   1.7370855e-02	  -3.4810333e-01	
   5.5495000e+01	  -1.9938369e-01	   2.7329012e-02	  -3.3986338e-01	
   5.5550000e+01	  -1.9483689e-01	   3.6312117e-02	  -3.3102982e-01	
   5.5605000e+01	  -1.8958931e-01	   4.4372064e-02	  -3.2169728e-01	
   5.5660000e+01	  -1.8368611e-01	   5.1558565e-02	  -3.1195976e-01	
   5.5715000e+01	  -1.7717814e-01	   5.7915949e-02	  -3.0190992e-01	
   5.5770000e+01	  -1.7011926e-01	   6.3482388e-02	  -2.9163839e-01	
   5.5825000e+01	  -1.6256421e-01	   6.8289423e-02	  -2.8123373e-01	
   5.5880000e+01	  -1.5456682e-01	   7.2360997e-02	  -2.7078225e-01	
   5.5935000e+01	  -1.4617926e-01	   7.5712514e-02	  -2.6036656e-01	
   5.5990000e+01	  -1.3745341e-01	   7.8350868e-02	  -2.5006335e-01	
   5.6045000e+01	  -1.2844371e-01	   8.0276356e-02	  -2.3994222e-01	
   5.6100000e+01	  -1.1921009e-01	   8.1487119e-02	  -2.3006708e-01	
   5.6155000e+01	  -1.0981914e-01	   8.1986075e-02	  -2.2049930e-01	
   5.6210000e+01	  -1.0034304e-01	   8.1788975e-02	  -2.1130069e-01	
   5.6265000e+01	  -9.0856759e-02	   8.0931314e-02	  -2.0253524e-01	
   5.6320000e+01	  -8.1435197e-02	   7.9473088e-02	  -1.9426864e-01	
   5.6375000e+01	  -7.2151095e-02	   7.7502101e-02	  -1.8656488e-01	
   5.6430000e+01	  -6.3074006e-02	   7.5135229e-02	  -1.7948039e-01	
   5.6485000e+01	  -5.4270203e-02	   7.2515249e-02	  -1.7305822e-01	
   5.6540000e+01	  -4.5802573e-02	   6.9802343e-02	  -1.6732364e-01	
   5.6595000e+01	  -3.7729834e-02	   6.7162499e-02	  -1.6228038e-01	
   5.6650000e+01	  -3.0105787e-02	   6.4755552e-02	  -1.5790715e-01	
   5.6705000e+01	  -2.2979806e-02	   6.2723728e-02	  -1.5415714e-01	
   5.6760000e+01	  -1.6398459e-02	   6.1180773e-02	  -1.5096246e-01	
   5.6815000e+01	  -1.0406807e-02	   6.0202643e-02	  -1.4824226e-01	
   5.6870000e+01	  -5.0483389e-03	   5.9820869e-02	  -1.4591157e-01	
   5.6925000e+01	  -3.6374998e-04	   6.0019156e-02	  -1.4388837e-01	
   5.6980000e+01	   3.6107511e-03	   6.0734425e-02	  -1.4209821e-01	
   5.7035000e+01	   6.8453900e-03	   6.1864023e-02	  -1.4047712e-01	
   5.7090000e+01	   9.3191601e-03	   6.3279189e-02	  -1.3897426e-01	
   5.7145000e+01	   1.1022292e-02	   6.4842753e-02	  -1.3755462e-01	
   5.7200000e+01	   1.1958258e-02	   6.6427799e-02	  -1.3620120e-01	
   5.7255000e+01	   1.2144831e-02	   6.7933145e-02	  -1.3491573e-01	
   5.7310000e+01	   1.1613959e-02	   6.9292007e-02	  -1.3371797e-01	
   5.7365000e+01	   1.0410450e-02	   7.0473416e-02	  -1.3264406e-01	
   5.7420000e+01	   8.5899655e-03	   7.1478625e-02	  -1.3174443e-01	
   5.7475000e+01	   6.2170016e-03	   7.2334734e-02	  -1.3108102e-01	
   5.7530000e+01	   3.3630320e-03	   7.3086854e-02	  -1.3072342e-01	
   5.7585000e+01	   1.0419871e-04	   7.3789460e-02	  -1.3074412e-01	
   5.7640000e+01	  -3.4819805e-03	   7.4497421e-02	  -1.3121345e-01	
   5.7695000e+01	  -7.3201486e-03	   7.5258219e-02	  -1.3219432e-01	
   5.7750000e+01	  -1.1339187e-02	   7.6107344e-02	  -1.3373729e-01	
   5.7805000e+01	  -1.5472024e-02	   7.7067720e-02	  -1.3587600e-01	
   5.7860000e+01	  -1.9653886e-02	   7.8153125e-02	  -1.3862381e-01	
   5.7915000e+01	  -2.3820009e-02	   7.9374645e-02	  -1.4197195e-01	
   5.7970000e+01	  -2.7903583e-02	   8.0747085e-02	  -1.4588963e-01	
   5.8025000e+01	  -3.1835036e-02	   8.2291836e-02	  -1.5032611e-01	
   5.8080000e+01	  -3.5543695e-02	   8.4035886e-02	  -1.5521443e-01	
   5.8135000e+01	  -3.8961416e-02	   8.6009145e-02	  -1.6047701e-01	
   5.8190000e+01	  -4.2026372e-02	   8.8240834e-02	  -1.6603297e-01	
   5.8245000e+01	  -4.4685413e-02	   9.0753950e-02	  -1.7180556e-01	
   5.8300000e+01	  -4.6894537e-02	   9.3558202e-02	  -1.7772802e-01	
   5.8355000e+01	  -4.8617530e-02	   9.6643830e-02	  -1.8374623e-01	
   5.8410000e+01	  -4.9822883e-02	   9.9978691e-02	  -1.8981813e-01	
   5.8465000e+01	  -5.0479573e-02	   1.0350954e-01	  -1.9591042e-01	
   5.8520000e+01	  -5.0552877e-02	   1.0716717e-01	  -2.0199304e-01	
   5.8575000e+01	  -5.0001512e-02	   1.1087424e-01	  -2.0803150e-01	
   5.8630000e+01	  -4.8776731e-02	   1.1455431e-01	  -2.1397710e-01	
   5.8685000e+01	  -4.6823361e-02	   1.1814002e-01	  -2.1975712e-01	
   5.8740000e+01	  -4.4082712e-02	   1.2157780e-01	  -2.2526899e-01	
   5.8795000e+01	  -4.0496984e-02	   1.2482758e-01	  -2.3038169e-01	
   5.8850000e+01	  -3.6013582e-02	   1.2785910e-01	  -2.3494402e-01	
   5.8905000e+01	  -3.0587696e-02	   1.3064732e-01	  -2.3879724e-01	
   5.8960000e+01	  -2.4183201e-02	   1.3316708e-01	  -2.4178926e-01	
   5.9015000e+01	  -1.6773183e-02	   1.3538659e-01	  -2.4378772e-01	
   5.9070000e+01	  -8.3406338e-03	   1.3726182e-01	  -2.4468990e-01	
   5.9125000e+01	   1.1208366e-03	   1.3873555e-01	  -2.4442869e-01	
   5.9180000e+01	   1.1606277e-02	   1.3974141e-01	  -2.4297614e-01	
   5.9235000e+01	   2.3098631e-02	   1.4021003e-01	  -2.4034542e-01	
   5.9290000e+01	   3.5568179e-02	   1.4007471e-01	  -2.3659019e-01	
   5.9345000e+01	   4.8972159e-02	   1.3927711e-01	  -2.3179996e-01	
   5.9400000e+01	   6.3254313e-02	   1.3777455e-01	  -2.2609289e-01	
   5.9455000e+01	   7.8344417e-02	   1.3554881e-01	  -2.1960839e-01	
   5.9510000e+01	   9.4158184e-02	   1.3261503e-01	  -2.1250019e-01	
   5.9565000e+01	   1.1059800e-01	   1.2902911e-01	  -2.0492889e-01	
   5.9620000e+01	   1.2755475e-01	   1.2489283e-01	  -1.9705379e-01	
   5.9675000e+01	   1.4491041e-01	   1.2035582e-01	  -1.8902496e-01	
   5.9730000e+01	   1.6254110e-01	   1.1561295e-01	  -1.8097584e-01	
   5.9785000e+01	   1.8032017e-01	   1.1089707e-01	  -1.7301590e-01	
   5.9840000e+01	   1.9812053e-01	   1.0646741e-01	  -1.6522408e-01	
   5.9895000e+01	   2.1581524e-01	   1.0259361e-01	  -1.5764486e-01	
   5.9950000e+01	   2.3327667e-01	   9.9536024e-02	  -1.5028777e-01	
   6.0005000e+01	   2.5037608e-01	   9.7526425e-02	  -1.4313011e-01	
   6.0060000e+01	   2.6698466e-01	   9.6753678e-02	  -1.3612222e-01	
   6.0115000e+01	   2.8297633e-01	   9.7356842e-02	  -1.2919554e-01	
   6.0170000e+01	   2.9823163e-01	   9.9424742e-02	  -1.2227339e-01	
   6.0225000e+01	   3.1264300e-01	   1.0299986e-01	  -1.1528270e-01	
   6.0280000e+01	   3.2612059e-01	   1.0808396e-01	  -1.0816449e-01	
   6.0335000e+01	   3.3859746e-01	   1.1464350e-01	  -1.0088098e-01	
   6.0390000e+01	   3.5003280e-01	   1.2261474e-01	  -9.3418781e-02	
   6.0445000e+01	   3.6041319e-01	   1.3190950e-01	  -8.5787633e-02	
   6.0500000e+01	   3.6975207e-01	   1.4242103e-01	  -7.8015054e-02	
   6.0555000e+01	   3.7808752e-01	   1.5402898e-01	  -7.0138486e-02	
   6.0610000e+01	   3.8547864e-01	   1.6660343e-01	  -6.2197335e-02	
   6.0665000e+01	   3.9200100e-01	   1.8000958e-01	  -5.4226329e-02	
   6.0720000e+01	   3.9774172e-01	   1.9411328e-01	  -4.6250824e-02	
   6.0775000e+01	   4.0279498e-01	   2.0878669e-01	  -3.8284064e-02	
   6.0830000e+01	   4.0725885e-01	   2.2391213e-01	  -3.0325647e-02	
   6.0885000e+01	   4.1123396e-01	   2.3938283e-01	  -2.2360407e-02	
   6.0940000e+01	   4.1482335e-01	   2.5510003e-01	  -1.4358126e-02	
   6.0995000e+01	   4.1813244e-01	   2.7096783e-01	  -6.2754111e-03	
   6.1050000e+01	   4.2126801e-01	   2.8688776e-01	   1.9395542e-03	
   6.1105000e+01	   4.2433510e-01	   3.0275562e-01	   1.0339920e-02	
   6.1160000e+01	   4.2743172e-01	   3.1846168e-01	   1.8972183e-02	
   6.1215000e+01	   4.3064241e-01	   3.3389306e-01	   2.7869132e-02	
   6.1270000e+01	   4.3403291e-01	   3.4893577e-01	   3.7045579e-02	
   6.1325000e+01	   4.3764770e-01	   3.6347555e-01	   4.6498038e-02	
   6.1380000e+01	   4.4151005e-01	   3.7739791e-01	   5.6207628e-02	
   6.1435000e+01	   4.4562261e-01	   3.9058776e-01	   6.6143617e-02	
   6.1490000e+01	   4.4996720e-01	   4.0292849e-01	   7.6265471e-02	
   6.1545000e+01	   4.5450449e-01	   4.1430064e-01	   8.6523073e-02	
   6.1600000e+01	   4.5917494e-01	   4.2458106e-01	   9.6855386e-02	
   6.1655000e+01	   4.6390124e-01	   4.3364301e-01	   1.0718785e-01	
   6.1710000e+01	   4.6859145e-01	   4.4135749e-01	   1.1742976e-01	
   6.1765000e+01	   4.7314225e-01	   4.4759643e-01	   1.2747377e-01	
   6.1820000e+01	   4.7744287e-01	   4.5223780e-01	   1.3719863e-01	
   6.1875000e+01	   4.8138029e-01	   4.5517118e-01	   1.4647429e-01	
   6.1930000e+01	   4.8484570e-01	   4.5630303e-01	   1.5516775e-01	
   6.1985000e+01	   4.8774164e-01	   4.5556219e-01	   1.6314933e-01	
   6.2040000e+01	   4.8998852e-01	   4.5290533e-01	   1.7029968e-01	
   6.2095000e+01	   4.9152890e-01	   4.4832080e-01	   1.7651737e-01	
   6.2150000e+01	   4.9232806e-01	   4.4182942e-01	   1.8172567e-01	
   6.2205000e+01	   4.9237174e-01	   4.3348327e-01	   1.8587706e-01	
   6.2260000e+01	   4.9166355e-01	   4.2336494e-01	   1.8895430e-01	
   6.2315000e+01	   4.9022338e-01	   4.1158923e-01	   1.9096806e-01	
   6.2370000e+01	   4.8808639e-01	   3.9830793e-01	   1.9195173e-01	
   6.2425000e+01	   4.8530094e-01	   3.8371539e-01	   1.9195552e-01	
   6.2480000e+01	   4.8192559e-01	   3.6805057e-01	   1.9104158e-01	
   6.2535000e+01	   4.7802570e-01	   3.5159243e-01	   1.8928015e-01	
   6.2590000e+01	   4.7367026e-01	   3.3464938e-01	   1.8674658e-01	
   6.2645000e+01	   4.6892900e-01	   3.1754609e-01	   1.8351993e-01	
   6.2700000e+01	   4.6386951e-01	   3.0060983e-01	   1.7968322e-01	
   6.2755000e+01	   4.5855419e-01	   2.8415780e-01	   1.7532408e-01	
   6.2810000e+01	   4.5303725e-01	   2.6848607e-01	   1.7053357e-01	
   6.2865000e+01	   4.4736354e-01	   2.5386118e-01	   1.6540297e-01	
   6.2920000e+01	   4.4157021e-01	   2.4051635e-01	   1.6002008e-01	
   6.2975000e+01	   4.3569120e-01	   2.2865253e-01	   1.5446640e-01	
   6.3030000e+01	   4.2976291e-01	   2.1844279e-01	   1.4881605e-01	
   6.3085000e+01	   4.2382944e-01	   2.1003797e-01	   1.4313645e-01	
   6.3140000e+01	   4.1794628e-01	   2.0357130e-01	   1.3749077e-01	
   6.3195000e+01	   4.1218240e-01	   1.9915925e-01	   1.3194090e-01	
   6.3250000e+01	   4.0661966e-01	   1.9689636e-01	   1.2654903e-01	
   6.3305000e+01	   4.0134869e-01	   1.9684506e-01	   1.2137639e-01	
   6.3360000e+01	   3.9646201e-01	   1.9902485e-01	   1.1648050e-01	
   6.3415000e+01	   3.9204587e-01	   2.0340538e-01	   1.1191324e-01	
   6.3470000e+01	   3.8817195e-01	   2.0990429e-01	   1.0772135e-01	
   6.3525000e+01	   3.8488945e-01	   2.1838785e-01	   1.0394799e-01	
   6.3580000e+01	   3.8221945e-01	   2.2867336e-01	   1.0063338e-01	
   6.3635000e+01	   3.8015356e-01	   2.4053358e-01	   9.7813534e-02	
   6.3690000e+01	   3.7865674e-01	   2.5370222e-01	   9.5518147e-02	
   6.3745000e+01	   3.7767225e-01	   2.6787935e-01	   9.3769448e-02	
   6.3800000e+01	   3.7712681e-01	   2.8273770e-01	   9.2583023e-02	
   6.3855000e+01	   3.7693531e-01	   2.9793267e-01	   9.1969954e-02	
   6.3910000e+01	   3.7700497e-01	   3.1311763e-01	   9.1939068e-02	
   6.3965000e+01	   3.7723892e-01	   3.2796327e-01	   9.2498388e-02	
   6.4020000e+01	   3.7753904e-01	   3.4217711e-01	   9.3655478e-02	
   6.4075000e+01	   3.7780814e-01	   3.5551960e-01	   9.5416327e-02	
   6.4130000e+01	   3.7795139e-01	   3.6781288e-01	   9.7782273e-02	
   6.4185000e+01	   3.7787669e-01	   3.7893980e-01	   1.0074557e-01	
   6.4240000e+01	   3.7749418e-01	   3.8883502e-01	   1.0428582e-01	
   6.4295000e+01	   3.7671635e-01	   3.9747344e-01	   1.0836914e-01	
   6.4350000e+01	   3.7545973e-01	   4.0485966e-01	   1.1294921e-01	
   6.4405000e+01	   3.7364823e-01	   4.1101878e-01	   1.1796766e-01	
   6.4460000e+01	   3.7121781e-01	   4.1598771e-01	   1.2335261e-01	
   6.4515000e+01	   3.6812172e-01	   4.1980772e-01	   1.2901667e-01	
   6.4570000e+01	   3.6433434e-01	   4.2251955e-01	   1.3485609e-01	
   6.4625000e+01	   3.5985143e-01	   4.2416127e-01	   1.4075237e-01	
   6.4680000e+01	   3.5468625e-01	   4.2476894e-01	   1.4657670e-01	
   6.4735000e+01	   3.4886369e-01	   4.2437910e-01	   1.5219643e-01	
   6.4790000e+01	   3.4241474e-01	   4.2303092e-01	   1.5748203e-01	
   6.4845000e+01	   3.3537239e-01	   4.2076737e-01	   1.6231380e-01	
   6.4900000e+01	   3.2776916e-01	   4.1763662e-01	   1.6658849e-01	
   6.4955000e+01	   3.1963643e-01	   4.1369520e-01	   1.7022528e-01	
   6.5010000e+01	   3.1100549e-01	   4.0901266e-01	   1.7316943e-01	
   6.5065000e+01	   3.0190963e-01	   4.0367575e-01	   1.7539250e-01	
   6.5120000e+01	   2.9238623e-01	   3.9778932e-01	   1.7688933e-01	
   6.5175000e+01	   2.8247827e-01	   3.9147317e-01	   1.7767311e-01	
   6.5230000e+01	   2.7223529e-01	   3.8485575e-01	   1.7777040e-01	
   6.5285000e+01	   2.6171407e-01	   3.7806742e-01	   1.7721717e-01	
   6.5340000e+01	   2.5097907e-01	   3.7123523e-01	   1.7605659e-01	
   6.5395000e+01	   2.4010263e-01	   3.6448019e-01	   1.7433773e-01	
   6.5450000e+01	   2.2916505e-01	   3.5791642e-01	   1.7211392e-01	
   6.5505000e+01	   2.1825463e-01	   3.5165049e-01	   1.6944147e-01	
   6.5560000e+01	   2.0746707e-01	   3.4577906e-01	   1.6637940e-01	
   6.5615000e+01	   1.9690478e-01	   3.4038495e-01	   1.6299065e-01	
   6.5670000e+01	   1.8667588e-01	   3.3553411e-01	   1.5934318e-01	
   6.5725000e+01	   1.7689270e-01	   3.3127393e-01	   1.5550923e-01	
   6.5780000e+01	   1.6766873e-01	   3.2763189e-01	   1.5156266e-01	
   6.5835000e+01	   1.5911417e-01	   3.2461327e-01	   1.4757495e-01	
   6.5890000e+01	   1.5133140e-01	   3.2219833e-01	   1.4361037e-01	
   6.5945000e+01	   1.4441121e-01	   3.2034024e-01	   1.3972048e-01	
   6.6000000e+01	   1.3843027e-01	   3.1896610e-01	   1.3593905e-01	
   6.6055000e+01	   1.3344993e-01	   3.1798205e-01	   1.3227993e-01	
   6.6110000e+01	   1.2951679e-01	   3.1728163e-01	   1.2873931e-01	
   6.6165000e+01	   1.2666326e-01	   3.1675373e-01	   1.2530115e-01	
   6.6220000e+01	   1.2490667e-01	   3.1628761e-01	   1.2194268e-01	
   6.6275000e+01	   1.2424651e-01	   3.1577536e-01	   1.1863782e-01	
   6.6330000e+01	   1.2466196e-01	   3.1511331e-01	   1.1535853e-01	
   6.6385000e+01	   1.2611165e-01	   3.1420263e-01	   1.1207401e-01	
   6.6440000e+01	   1.2853599e-01	   3.1294788e-01	   1.0874797e-01	
   6.6495000e+01	   1.3186102e-01	   3.1125366e-01	   1.0533613e-01	
   6.6550000e+01	   1.3600225e-01	   3.0902164e-01	   1.0178696e-01	
   6.6605000e+01	   1.4086771e-01	   3.0615024e-01	   9.8047224e-02	
   6.6660000e+01	   1.4635992e-01	   3.0253790e-01	   9.4070634e-02	
   6.6715000e+01	   1.5237689e-01	   2.9808864e-01	   8.9826595e-02	
   6.6770000e+01	   1.5881258e-01	   2.9271777e-01	   8.5306386e-02	
   6.6825000e+01	   1.6555697e-01	   2.8635671e-01	   8.0525992e-02	
   6.6880000e+01	   1.7249575e-01	   2.7895642e-01	   7.5525567e-02	
   6.6935000e+01	   1.7951045e-01	   2.7049062e-01	   7.0365538e-02	
   6.6990000e+01	   1.8648009e-01	   2.6096077e-01	   6.5119805e-02	
   6.7045000e+01	   1.9328534e-01	   2.5040284e-01	   5.9867219e-02	
   6.7100000e+01	   1.9981443e-01	   2.3889315e-01	   5.4683122e-02	
   6.7155000e+01	   2.0596979e-01	   2.2655083e-01	   4.9633208e-02	
   6.7210000e+01	   2.1167470e-01	   2.1353773e-01	   4.4771416e-02	
   6.7265000e+01	   2.1687975e-01	   2.0005703e-01	   4.0142080e-02	
   6.7320000e+01	   2.2156811e-01	   1.8635004e-01	   3.5785058e-02	
   6.7375000e+01	   2.2575802e-01	   1.7269107e-01	   3.1741953e-02	
   6.7430000e+01	   2.2950110e-01	   1.5938137e-01	   2.8061839e-02	
   6.7485000e+01	   2.3287680e-01	   1.4674245e-01	   2.4804936e-02	
   6.7540000e+01	   2.3598414e-01	   1.3510670e-01	   2.2042389e-02	
   6.7595000e+01	   2.3893352e-01	   1.2480458e-01	   1.9851615e-02	
   6.7650000e+01	   2.4184030e-01	   1.1615015e-01	   1.8309050e-02	
   6.7705000e+01	   2.4482010e-01	   1.0942689e-01	   1.7482432e-02	
   6.7760000e+01	   2.4798386e-01	   1.0487369e-01	   1.7423581e-02	
   6.7815000e+01	   2.5143119e-01	   1.0267090e-01	   1.8162859e-02	
   6.7870000e+01	   2.5524266e-01	   1.0292844e-01	   1.9706953e-02	
   6.7925000e+01	   2.5947311e-01	   1.0567889e-01	   2.2040270e-02	
   6.7980000e+01	   2.6414705e-01	   1.1087658e-01	   2.5128860e-02	
   6.8035000e+01	   2.6925677e-01	   1.1840248e-01	   2.8926195e-02	
   6.8090000e+01	   2.7476324e-01	   1.2807371e-01	   3.3380624e-02	
   6.8145000e+01	   2.8060002e-01	   1.3965508e-01	   3.8443005e-02	
   6.8200000e+01	   2.8667934e-01	   1.5286994e-01	   4.4071880e-02	
   6.8255000e+01	   2.9289949e-01	   1.6740966e-01	   5.0235050e-02	
   6.8310000e+01	   2.9915307e-01	   1.8294300e-01	   5.6908732e-02	
   6.8365000e+01	   3.0533498e-01	   1.9912661e-01	   6.4076038e-02	
   6.8420000e+01	   3.1134896e-01	   2.1561626e-01	   7.1725768e-02	
   6.8475000e+01	   3.1711096e-01	   2.3207783e-01	   7.9851774e-02	
   6.8530000e+01	   3.2254961e-01	   2.4819762e-01	   8.8452754e-02	
   6.8585000e+01	   3.2760462e-01	   2.6369230e-01	   9.7531840e-02	
   6.8640000e+01	   3.3222449e-01	   2.7831792e-01	   1.0709529e-01	
   6.8695000e+01	   3.3636372e-01	   2.9187521e-01	   1.1715015e-01	
   6.8750000e+01	   3.3998032e-01	   3.0420972e-01	   1.2770113e-01	
   6.8805000e+01	   3.4303466e-01	   3.1520743e-01	   1.3874718e-01	
   6.8860000e+01	   3.4549055e-01	   3.2478859e-01	   1.5027761e-01	
   6.8915000e+01	   3.4731790e-01	   3.3290332e-01	   1.6226783e-01	
   6.8970000e+01	   3.4849589e-01	   3.3953096e-01	   1.7467520e-01	
   6.9025000e+01	   3.4901571e-01	   3.4468233e-01	   1.8743629e-01	
   6.9080000e+01	   3.4888310e-01	   3.4840251e-01	   2.0046679e-01	
   6.9135000e+01	   3.4812000e-01	   3.5077157e-01	   2.1366399e-01	
   6.9190000e+01	   3.4676517e-01	   3.5190223e-01	   2.2691062e-01	
   6.9245000e+01	   3.4487376e-01	   3.5193434e-01	   2.4008013e-01	
   6.9300000e+01	   3.4251624e-01	   3.5102720e-01	   2.5304301e-01	
   6.9355000e+01	   3.3977591e-01	   3.4935156e-01	   2.6567341e-01	
   6.9410000e+01	   3.3674444e-01	   3.4708333e-01	   2.7785578e-01	
   6.9465000e+01	   3.3351678e-01	   3.4439973e-01	   2.8949171e-01	
   6.9520000e+01	   3.3018657e-01	   3.4147673e-01	   3.0050653e-01	
   6.9575000e+01	   3.2684256e-01	   3.3848663e-01	   3.1085382e-01	
   6.9630000e+01	   3.2356584e-01	   3.3559554e-01	   3.2051708e-01	
   6.9685000e+01	   3.2042790e-01	   3.3296078e-01	   3.2950831e-01	
   6.9740000e+01	   3.1748930e-01	   3.3072761e-01	   3.3786360e-01	
   6.9795000e+01	   3.1479872e-01	   3.2902518e-01	   3.4563575e-01	
   6.9850000e+01	   3.1239278e-01	   3.2796345e-01	   3.5288571e-01	
   6.9905000e+01	   3.1029677e-01	   3.2763289e-01	   3.5967553e-01	
   6.9960000e+01	   3.0852615e-01	   3.2810690e-01	   3.6606368e-01	
   7.0015000e+01	   3.0708835e-01	   3.2944450e-01	   3.7210195e-01	
   7.0070000e+01	   3.0598378e-01	   3.3169037e-01	   3.7783309e-01	
   7.0125000e+01	   3.0520528e-01	   3.3487136e-01	   3.8328976e-01	
   7.0180000e+01	   3.0473637e-01	   3.3899033e-01	   3.8849465e-01	
   7.0235000e+01	   3.0455009e-01	   3.4402043e-01	   3.9346223e-01	
   7.0290000e+01	   3.0460957e-01	   3.4990207e-01	   3.9820231e-01	
   7.0345000e+01	   3.0487005e-01	   3.5654404e-01	   4.0272553e-01	
   7.0400000e+01	   3.0528144e-01	   3.6382815e-01	   4.0705025e-01	
   7.0455000e+01	   3.0579021e-01	   3.7161586e-01	   4.1120990e-01	
   7.0510000e+01	   3.0634016e-01	   3.7975513e-01	   4.1525838e-01	
   7.0565000e+01	   3.0687228e-01	   3.8808742e-01	   4.1927163e-01	
   7.0620000e+01	   3.0732407e-01	   3.9645552e-01	   4.2334509e-01	
   7.0675000e+01	   3.0762848e-01	   4.0471256e-01	   4.2758758e-01	
   7.0730000e+01	   3.0771301e-01	   4.1272998e-01	   4.3211299e-01	
   7.0785000e+01	   3.0749986e-01	   4.2040208e-01	   4.3703145e-01	
   7.0840000e+01	   3.0690816e-01	   4.2764580e-01	   4.4244107e-01	
   7.0895000e+01	   3.0585778e-01	   4.3439679e-01	   4.4841986e-01	
   7.0950000e+01	   3.0427388e-01	   4.4060387e-01	   4.5501745e-01	
   7.1005000e+01	   3.0209152e-01	   4.4622418e-01	   4.6224899e-01	
   7.1060000e+01	   2.9926038e-01	   4.5122069e-01	   4.7009347e-01	
   7.1115000e+01	   2.9574807e-01	   4.5556263e-01	   4.7849662e-01	
   7.1170000e+01	   2.9154100e-01	   4.5922858e-01	   4.8737646e-01	
   7.1225000e+01	   2.8664277e-01	   4.6221147e-01	   4.9662982e-01	
   7.1280000e+01	   2.8107180e-01	   4.6452360e-01	   5.0613928e-01	
   7.1335000e+01	   2.7485934e-01	   4.6620001e-01	   5.1577933e-01	
   7.1390000e+01	   2.6804775e-01	   4.6729915e-01	   5.2542115e-01	
   7.1445000e+01	   2.6068885e-01	   4.6790052e-01	   5.3493652e-01	
   7.1500000e+01	   2.5284233e-01	   4.6809926e-01	   5.4420121e-01	
   7.1555000e+01	   2.4457492e-01	   4.6799713e-01	   5.5309804e-01	
   7.1610000e+01	   2.3596032e-01	   4.6769177e-01	   5.6151944e-01	
   7.1665000e+01	   2.2707954e-01	   4.6726912e-01	   5.6937047e-01	
   7.1720000e+01	   2.1802125e-01	   4.6680276e-01	   5.7657266e-01	
   7.1775000e+01	   2.0888142e-01	   4.6635940e-01	   5.8306706e-01	
   7.1830000e+01	   1.9976151e-01	   4.6600655e-01	   5.8881552e-01	
   7.1885000e+01	   1.9076471e-01	   4.6582023e-01	   5.9380000e-01	
   7.1940000e+01	   1.8199130e-01	   4.6589092e-01	   5.9802082e-01	
   7.1995000e+01	   1.7353457e-01	   4.6632646e-01	   6.0149452e-01	
   7.2050000e+01	   1.6547772e-01	   4.6725074e-01	   6.0425262e-01	
   7.2105000e+01	   1.5789125e-01	   4.6879841e-01	   6.0634211e-01	
   7.2160000e+01	   1.5083030e-01	   4.7110695e-01	   6.0782717e-01	
   7.2215000e+01	   1.4433129e-01	   4.7430633e-01	   6.0878961e-01	
   7.2270000e+01	   1.3840794e-01	   4.7850636e-01	   6.0932560e-01	
   7.2325000e+01	   1.3304772e-01	   4.8378230e-01	   6.0953862e-01	
   7.2380000e+01	   1.2821005e-01	   4.9016129e-01	   6.0953064e-01	
   7.2435000e+01	   1.2382727e-01	   4.9761282e-01	   6.0939432e-01	
   7.2490000e+01	   1.1980853e-01	   5.0604535e-01	   6.0920760e-01	
   7.2545000e+01	   1.1604576e-01	   5.1530894e-01	   6.0903051e-01	
   7.2600000e+01	   1.1242120e-01	   5.2520291e-01	   6.0890355e-01	
   7.2655000e+01	   1.0881509e-01	   5.3548735e-01	   6.0884765e-01	
   7.2710000e+01	   1.0511222e-01	   5.4589751e-01	   6.0886587e-01	
   7.2765000e+01	   1.0120612e-01	   5.5616017e-01	   6.0894569e-01	
   7.2820000e+01	   9.7001468e-02	   5.6600959e-01	   6.0906109e-01	
   7.2875000e+01	   9.2415276e-02	   5.7520036e-01	   6.0917475e-01	
   7.2930000e+01	   8.7377052e-02	   5.8351598e-01	   6.0924023e-01	
   7.2985000e+01	   8.1827829e-02	   5.9077353e-01	   6.0920393e-01	
   7.3040000e+01	   7.5719202e-02	   5.9682583e-01	   6.0900726e-01	
   7.3095000e+01	   6.9013899e-02	   6.0156260e-01	   6.0858945e-01	
   7.3150000e+01	   6.1688105e-02	   6.0491131e-01	   6.0789086e-01	
   7.3205000e+01	   5.3734617e-02	   6.0683672e-01	   6.0685641e-01	
   7.3260000e+01	   4.5166305e-02	   6.0733870e-01	   6.0543875e-01	
   7.3315000e+01	   3.6019735e-02	   6.0644863e-01	   6.0360099e-01	
   7.3370000e+01	   2.6357953e-02	   6.0422539e-01	   6.0131848e-01	
   7.3425000e+01	   1.6271007e-02	   6.0075189e-01	   5.9857974e-01	
   7.3480000e+01	   5.8738990e-03	   5.9613220e-01	   5.9538643e-01	
   7.3535000e+01	  -4.6975585e-03	   5.9048808e-01	   5.9175266e-01	
   7.3590000e+01	  -1.5292687e-02	   5.8395295e-01	   5.8770262e-01	
   7.3645000e+01	  -2.5753034e-02	   5.7666309e-01	   5.8326624e-01	
   7.3700000e+01	  -3.5919160e-02	   5.6874784e-01	   5.7847445e-01	
   7.3755000e+01	  -4.5635929e-02	   5.6032067e-01	   5.7335627e-01	
   7.3810000e+01	  -5.4756513e-02	   5.5147246e-01	   5.6793862e-01	
   7.3865000e+01	  -6.3146244e-02	   5.4226808e-01	   5.6224718e-01	
   7.3920000e+01	  -7.0687093e-02	   5.3274606e-01	   5.5630639e-01	
   7.3975000e+01	  -7.7282666e-02	   5.2292118e-01	   5.5013831e-01	
   7.4030000e+01	  -8.2863201e-02	   5.1278927e-01	   5.4376154e-01	
   7.4085000e+01	  -8.7390091e-02	   5.0233398e-01	   5.3719092e-01	
   7.4140000e+01	  -9.0859096e-02	   4.9153475e-01	   5.3043842e-01	
   7.4195000e+01	  -9.3301333e-02	   4.8037536e-01	   5.2351492e-01	
   7.4250000e+01	  -9.4781966e-02	   4.6885200e-01	   5.1643198e-01	
   7.4305000e+01	  -9.5397324e-02	   4.5697921e-01	   5.0920182e-01	
   7.4360000e+01	  -9.5270586e-02	   4.4479341e-01	   5.0183493e-01	
   7.4415000e+01	  -9.4545101e-02	   4.3235527e-01	   4.9433624e-01	
   7.4470000e+01	  -9.3374790e-02	   4.1975188e-01	   4.8670190e-01	
   7.4525000e+01	  -9.1913026e-02	   4.0709838e-01	   4.7891752e-01	
   7.4580000e+01	  -9.0302829e-02	   3.9453695e-01	   4.7095880e-01	
   7.4635000e+01	  -8.8670424e-02	   3.8223198e-01	   4.6279520e-01	
   7.4690000e+01	  -8.7122413e-02	   3.7036177e-01	   4.5439603e-01	
   7.4745000e+01	  -8.5745872e-02	   3.5910881e-01	   4.4573726e-01	
   7.4800000e+01	  -8.4610223e-02	   3.4864996e-01	   4.3680717e-01	
   7.4855000e+01	  -8.3769420e-02	   3.3914683e-01	   4.2761051e-01	
   7.4910000e+01	  -8.3263982e-02	   3.3073626e-01	   4.1817115e-01	
   7.4965000e+01	  -8.3123887e-02	   3.2352095e-01	   4.0853241e-01	
   7.5020000e+01	  -8.3372831e-02	   3.1756164e-01	   3.9875413e-01	
   7.5075000e+01	  -8.4032488e-02	   3.1287206e-01	   3.8890667e-01	
   7.5130000e+01	  -8.5125313e-02	   3.0941727e-01	   3.7906370e-01	
   7.5185000e+01	  -8.6675842e-02	   3.0711414e-01	   3.6929546e-01	
   7.5240000e+01	  -8.8710698e-02	   3.0583316e-01	   3.5966349e-01	
   7.5295000e+01	  -9.1256629e-02	   3.0540289e-01	   3.5021832e-01	
   7.5350000e+01	  -9.4336239e-02	   3.0561850e-01	   3.4100043e-01	
   7.5405000e+01	  -9.7962838e-02	   3.0625372e-01	   3.3204345e-01	
   7.5460000e+01	  -1.0213639e-01	   3.0707342e-01	   3.2337771e-01	
   7.5515000e+01	  -1.0684112e-01	   3.0784530e-01	   3.1503320e-01	
   7.5570000e+01	  -1.1204444e-01	   3.0835027e-01	   3.0704103e-01	
   7.5625000e+01	  -1.1769736e-01	   3.0839097e-01	   2.9943317e-01	
   7.5680000e+01	  -1.2373767e-01	   3.0779710e-01	   2.9224070e-01	
   7.5735000e+01	  -1.3009534e-01	   3.0642724e-01	   2.8549102e-01	
   7.5790000e+01	  -1.3669806e-01	   3.0416906e-01	   2.7920337e-01	
   7.5845000e+01	  -1.4347452e-01	   3.0094057e-01	   2.7338302e-01	
   7.5900000e+01	  -1.5035493e-01	   2.9669295e-01	   2.6801526e-01	
   7.5955000e+01	  -1.5726935e-01	   2.9141440e-01	   2.6306136e-01	
   7.6010000e+01	  -1.6414501e-01	   2.8513451e-01	   2.5845747e-01	
   7.6065000e+01	  -1.7090328e-01	   2.7792899e-01	   2.5411748e-01	
   7.6120000e+01	  -1.7745732e-01	   2.6992300e-01	   2.4993969e-01	
   7.6175000e+01	  -1.8371126e-01	   2.6129025e-01	   2.4581635e-01	
   7.6230000e+01	  -1.8956142e-01	   2.5224574e-01	   2.4164441e-01	
   7.6285000e+01	  -1.9489915e-01	   2.4303301e-01	   2.3733590e-01	
   7.6340000e+01	  -1.9961472e-01	   2.3390898e-01	   2.3282632e-01	
   7.6395000e+01	  -2.0360249e-01	   2.2512829e-01	   2.2807989e-01	
   7.6450000e+01	  -2.0676646e-01	   2.1692783e-01	   2.2309133e-01	
   7.6505000e+01	  -2.0902544e-01	   2.0951229e-01	   2.1788436e-01	
   7.6560000e+01	  -2.1031672e-01	   2.0304301e-01	   2.1250687e-01	
   7.6615000e+01	  -2.1059831e-01	   1.9763233e-01	   2.0702390e-01	
   7.6670000e+01	  -2.0984931e-01	   1.9334271e-01	   2.0150996e-01	
   7.6725000e+01	  -2.0806844e-01	   1.9018766e-01	   1.9604127e-01	
   7.6780000e+01	  -2.0527186e-01	   1.8813257e-01	   1.9068708e-01	
   7.6835000e+01	  -2.0149165e-01	   1.8709647e-01	   1.8550050e-01	
   7.6890000e+01	  -1.9677485e-01	   1.8695697e-01	   1.8051160e-01	
   7.6945000e+01	  -1.9118201e-01	   1.8755820e-01	   1.7572499e-01	
   7.7000000e+01	  -1.8478542e-01	   1.8871937e-01	   1.7112169e-01	
   7.7055000e+01	  -1.7766774e-01	   1.9024215e-01	   1.6666340e-01	
   7.7110000e+01	  -1.6992139e-01	   1.9191738e-01	   1.6229836e-01	
   7.7165000e+01	  -1.6164777e-01	   1.9353289e-01	   1.5796827e-01	
   7.7220000e+01	  -1.5295556e-01	   1.9488270e-01	   1.5361594e-01	
   7.7275000e+01	  -1.4395760e-01	   1.9577746e-01	   1.4919289e-01	
   7.7330000e+01	  -1.3476688e-01	   1.9605480e-01	   1.4466607e-01	
   7.7385000e+01	  -1.2549206e-01	   1.9558893e-01	   1.4002274e-01	
   7.7440000e+01	  -1.1623317e-01	   1.9429777e-01	   1.3527251e-01	
   7.7495000e+01	  -1.0707839e-01	   1.9214604e-01	   1.3044512e-01	
   7.7550000e+01	  -9.8102246e-02	   1.8914483e-01	   1.2558419e-01	
   7.7605000e+01	  -8.9365109e-02	   1.8534973e-01	   1.2073916e-01	
   7.7660000e+01	  -8.0913923e-02	   1.8085675e-01	   1.1595766e-01	
   7.7715000e+01	  -7.2784464e-02	   1.7579486e-01	   1.1127875e-01	
   7.7770000e+01	  -6.5004093e-02	   1.7031606e-01	   1.0672775e-01	
   7.7825000e+01	  -5.7593151e-02	   1.6458533e-01	   1.0231369e-01	
   7.7880000e+01	  -5.0564111e-02	   1.5877075e-01	   9.8028752e-02	
   7.7935000e+01	  -4.3919790e-02	   1.5303322e-01	   9.3848924e-02	
   7.7990000e+01	  -3.7652574e-02	   1.4751692e-01	   8.9736096e-02	
   7.8045000e+01	  -3.1745082e-02	   1.4234337e-01	   8.5642604e-02	
   7.8100000e+01	  -2.6171132e-02	   1.3761012e-01	   8.1518492e-02	
   7.8155000e+01	  -2.0896449e-02	   1.3339132e-01	   7.7320816e-02	
   7.8210000e+01	  -1.5880029e-02	   1.2973802e-01	   7.3023833e-02	
   7.8265000e+01	  -1.1077221e-02	   1.2667819e-01	   6.8628768e-02	
   7.8320000e+01	  -6.4444596e-03	   1.2421700e-01	   6.4171305e-02	
   7.8375000e+01	  -1.9446910e-03	   1.2233714e-01	   5.9724687e-02	
   7.8430000e+01	   2.4479014e-03	   1.2099931e-01	   5.5397240e-02	
   7.8485000e+01	   6.7454557e-03	   1.2014422e-01	   5.1325064e-02	
   7.8540000e+01	   1.0947347e-02	   1.1969650e-01	   4.7661737e-02	
   7.8595000e+01	   1.5044058e-02	   1.1956957e-01	   4.4566321e-02	
   7.8650000e+01	   1.9022337e-02	   1.1967089e-01	   4.2190275e-02	
   7.8705000e+01	   2.2869987e-02	   1.1990831e-01	   4.0664711e-02	
   7.8760000e+01	   2.6579528e-02	   1.2019737e-01	   4.0090722e-02	
   7.8815000e+01	   3.0150302e-02	   1.2046733e-01	   4.0534500e-02	
   7.8870000e+01	   3.3588908e-02	   1.2066419e-01	   4.2026839e-02	
   7.8925000e+01	   3.6908681e-02	   1.2075209e-01	   4.4566049e-02	
   7.8980000e+01	   4.0129272e-02	   1.2071442e-01	   4.8123199e-02	
   7.9035000e+01	   4.3276191e-02	   1.2055412e-01	   5.2647864e-02	
   7.9090000e+01	   4.6379230e-02	   1.2029194e-01	   5.8072864e-02	
   7.9145000e+01	   4.9469488e-02	   1.1996326e-01	   6.4318478e-02	
   7.9200000e+01	   5.2575791e-02	   1.1961581e-01	   7.1297130e-02	
   7.9255000e+01	   5.5721107e-02	   1.1930930e-01	   7.8917798e-02	
   7.9310000e+01	   5.8919322e-02	   1.1911525e-01	   8.7088524e-02	
   7.9365000e+01	   6.2173834e-02	   1.1911524e-01	   9.5716768e-02	
   7.9420000e+01	   6.5480028e-02	   1.1939738e-01	   1.0470889e-01	
   7.9475000e+01	   6.8831866e-02	   1.2005240e-01	   1.1396974e-01	
   7.9530000e+01	   7.2229835e-02	   1.2116993e-01	   1.2340222e-01	
   7.9585000e+01	   7.5686595e-02	   1.2283490e-01	   1.3290636e-01	
   7.9640000e+01	   7.9228559e-02	   1.2512319e-01	   1.4237854e-01	
   7.9695000e+01	   8.2893745e-02	   1.2809591e-01	   1.5171166e-01	
   7.9750000e+01	   8.6726681e-02	   1.3179228e-01	   1.6079628e-01	
   7.9805000e+01	   9.0771326e-02	   1.3622256e-01	   1.6952245e-01	
   7.9860000e+01	   9.5063694e-02	   1.4136308e-01	   1.7778212e-01	
   7.9915000e+01	   9.9625689e-02	   1.4715429e-01	   1.8547203e-01	
   7.9970000e+01	   1.0446032e-01	   1.5350093e-01	   1.9249722e-01	
   8.0025000e+01	   1.0954808e-01	   1.6027426e-01	   1.9877602e-01	
   8.0080000e+01	   1.1484521e-01	   1.6731761e-01	   2.0424680e-01	
   8.0135000e+01	   1.2028473e-01	   1.7445507e-01	   2.0887502e-01	
   8.0190000e+01	   1.2578045e-01	   1.8150069e-01	   2.1265734e-01	
   8.0245000e+01	   1.3123341e-01	   1.8826592e-01	   2.1562027e-01	
   8.0300000e+01	   1.3654009e-01	   1.9456563e-01	   2.1781384e-01	
   8.0355000e+01	   1.4160097e-01	   2.0022372e-01	   2.1930355e-01	
   8.0410000e+01	   1.4632743e-01	   2.0507815e-01	   2.2016387e-01	
   8.0465000e+01	   1.5064600e-01	   2.0898440e-01	   2.2047416e-01	
   8.0520000e+01	   1.5450096e-01	   2.1181786e-01	   2.2031652e-01	
   8.0575000e+01	   1.5785644e-01	   2.1347726e-01	   2.1977409e-01	
   8.0630000e+01	   1.6069838e-01	   2.1388924e-01	   2.1892867e-01	
   8.0685000e+01	   1.6303603e-01	   2.1301189e-01	   2.1785696e-01	
   8.0740000e+01	   1.6490221e-01	   2.1083559e-01	   2.1662521e-01	
   8.0795000e+01	   1.6635163e-01	   2.0738191e-01	   2.1528408e-01	
   8.0850000e+01	   1.6745725e-01	   2.0270193e-01	   2.1386570e-01	
   8.0905000e+01	   1.6830551e-01	   1.9687434e-01	   2.1238452e-01	
   8.0960000e+01	   1.6899131e-01	   1.9000289e-01	   2.1084224e-01	
   8.1015000e+01	   1.6961344e-01	   1.8221274e-01	   2.0923529e-01	
   8.1070000e+01	   1.7027053e-01	   1.7364515e-01	   2.0756217e-01	
   8.1125000e+01	   1.7105742e-01	   1.6445130e-01	   2.0582845e-01	
   8.1180000e+01	   1.7206232e-01	   1.5478710e-01	   2.0404839e-01	
   8.1235000e+01	   1.7336507e-01	   1.4480938e-01	   2.0224278e-01	
   8.1290000e+01	   1.7503631e-01	   1.3467199e-01	   2.0043413e-01	
   8.1345000e+01	   1.7713673e-01	   1.2452117e-01	   1.9864167e-01	
   8.1400000e+01	   1.7971551e-01	   1.1449209e-01	   1.9687953e-01	
   8.1455000e+01	   1.8280856e-01	   1.0470818e-01	   1.9515950e-01	
   8.1510000e+01	   1.8643734e-01	   9.5282221e-02	   1.9349699e-01	
   8.1565000e+01	   1.9060795e-01	   8.6317201e-02	   1.9191693e-01	
   8.1620000e+01	   1.9530971e-01	   7.7905479e-02	   1.9045756e-01	
   8.1675000e+01	   2.0051292e-01	   7.0126218e-02	   1.8917236e-01	
   8.1730000e+01	   2.0616685e-01	   6.3042578e-02	   1.8812995e-01	
   8.1785000e+01	   2.1219926e-01	   5.6700297e-02	   1.8741107e-01	
   8.1840000e+01	   2.1851873e-01	   5.1127645e-02	   1.8710199e-01	
   8.1895000e+01	   2.2502042e-01	   4.6335530e-02	   1.8728630e-01	
   8.1950000e+01	   2.3159393e-01	   4.2317239e-02	   1.8803672e-01	
   8.2005000e+01	   2.3813098e-01	   3.9048968e-02	   1.8940782e-01	
   8.2060000e+01	   2.4453128e-01	   3.6493284e-02	   1.9143012e-01	
   8.2115000e+01	   2.5070588e-01	   3.4606389e-02	   1.9410643e-01	
   8.2170000e+01	   2.5657859e-01	   3.3347579e-02	   1.9741083e-01	
   8.2225000e+01	   2.6208586e-01	   3.2688381e-02	   2.0128898e-01	
   8.2280000e+01	   2.6717577e-01	   3.2619771e-02	   2.0565961e-01	
   8.2335000e+01	   2.7180651e-01	   3.3156633e-02	   2.1041873e-01	
   8.2390000e+01	   2.7594466e-01	   3.4338577e-02	   2.1544757e-01	
   8.2445000e+01	   2.7956361e-01	   3.6226770e-02	   2.2062252e-01	
   8.2500000e+01	   2.8264234e-01	   3.8897273e-02	   2.2582453e-01	
   8.2555000e+01	   2.8516573e-01	   4.2431136e-02	   2.3094707e-01	
   8.2610000e+01	   2.8712669e-01	   4.6900950e-02	   2.3590200e-01	
   8.2665000e+01	   2.8852922e-01	   5.2355038e-02	   2.4062245e-01	
   8.2720000e+01	   2.8939139e-01	   5.8803459e-02	   2.4506237e-01	
   8.2775000e+01	   2.8974704e-01	   6.6211276e-02	   2.4919435e-01	
   8.2830000e+01	   2.8964568e-01	   7.4501913e-02	   2.5300707e-01	
   8.2885000e+01	   2.8914979e-01	   8.3568085e-02	   2.5650247e-01	
   8.2940000e+01	   2.8833047e-01	   9.3284758e-02	   2.5969294e-01	
   8.2995000e+01	   2.8726228e-01	   1.0351988e-01	   2.6259959e-01	
   8.3050000e+01	   2.8601847e-01	   1.1414076e-01	   2.6525205e-01	
   8.3105000e+01	   2.8466718e-01	   1.2501465e-01	   2.6768877e-01	
   8.3160000e+01	   2.8326923e-01	   1.3600449e-01	   2.6995633e-01	
   8.3215000e+01	   2.8187778e-01	   1.4696369e-01	   2.7210757e-01	
   8.3270000e+01	   2.8053957e-01	   1.5773522e-01	   2.7419905e-01	
   8.3325000e+01	   2.7929660e-01	   1.6815640e-01	   2.7628782e-01	
   8.3380000e+01	   2.7818592e-01	   1.7806708e-01	   2.7842639e-01	
   8.3435000e+01	   2.7723666e-01	   1.8731728e-01	   2.8065765e-01	
   8.3490000e+01	   2.7646555e-01	   1.9577314e-01	   2.8301292e-01	
   8.3545000e+01	   2.7587293e-01	   2.0332069e-01	   2.8551424e-01	
   8.3600000e+01	   2.7544075e-01	   2.0986760e-01	   2.8817826e-01	
   8.3655000e+01	   2.7513237e-01	   2.1534172e-01	   2.9101850e-01	
   8.3710000e+01	   2.7489334e-01	   2.1968716e-01	   2.9404455e-01	
   8.3765000e+01	   2.7465293e-01	   2.2285921e-01	   2.9725901e-01	
   8.3820000e+01	   2.7432676e-01	   2.2482079e-01	   3.0065353e-01	
   8.3875000e+01	   2.7382148e-01	   2.2554224e-01	   3.0420508e-01	
   8.3930000e+01	   2.7304175e-01	   2.2500508e-01	   3.0787274e-01	
   8.3985000e+01	   2.7189857e-01	   2.2320732e-01	   3.1159541e-01	
   8.4040000e+01	   2.7031701e-01	   2.2016638e-01	   3.1529112e-01	
   8.4095000e+01	   2.6824212e-01	   2.1591757e-01	   3.1885868e-01	
   8.4150000e+01	   2.6564221e-01	   2.1050901e-01	   3.2218132e-01	
   8.4205000e+01	   2.6251039e-01	   2.0399656e-01	   3.2513162e-01	
   8.4260000e+01	   2.5886436e-01	   1.9644158e-01	   3.2757676e-01	
   8.4315000e+01	   2.5474428e-01	   1.8791191e-01	   3.2938337e-01	
   8.4370000e+01	   2.5020873e-01	   1.7848355e-01	   3.3042233e-01	
   8.4425000e+01	   2.4532943e-01	   1.6824121e-01	   3.3057395e-01	
   8.4480000e+01	   2.4018604e-01	   1.5727713e-01	   3.2973279e-01	
   8.4535000e+01	   2.3486115e-01	   1.4568849e-01	   3.2781093e-01	
   8.4590000e+01	   2.2943617e-01	   1.3357433e-01	   3.2474045e-01	
   8.4645000e+01	   2.2398879e-01	   1.2103318e-01	   3.2047630e-01	
   8.4700000e+01	   2.1859238e-01	   1.0816116e-01	   3.1499930e-01	
   8.4755000e+01	   2.1331693e-01	   9.5050395e-02	   3.0831779e-01	
   8.4810000e+01	   2.0823044e-01	   8.1789306e-02	   3.0046702e-01	
   8.4865000e+01	   2.0340001e-01	   6.8466364e-02	   2.9150693e-01	
   8.4920000e+01	   1.9889169e-01	   5.5176987e-02	   2.8151923e-01	
   8.4975000e+01	   1.9476946e-01	   4.2030875e-02	   2.7060475e-01	
   8.5030000e+01	   1.9109339e-01	   2.9156756e-02	   2.5888093e-01	
   8.5085000e+01	   1.8791763e-01	   1.6703200e-02	   2.4647885e-01	
   8.5140000e+01	   1.8528871e-01	   4.8357431e-03	   2.3353999e-01	
   8.5195000e+01	   1.8324484e-01	  -6.2690984e-03	   2.2021257e-01	
   8.5250000e+01	   1.8181592e-01	  -1.6432060e-02	   2.0664748e-01	
   8.5305000e+01	   1.8102435e-01	  -2.5480376e-02	   1.9299373e-01	
   8.5360000e+01	   1.8088614e-01	  -3.3257453e-02	   1.7939453e-01	
   8.5415000e+01	   1.8141135e-01	  -3.9632308e-02	   1.6598601e-01	
   8.5470000e+01	   1.8260299e-01	  -4.4506168e-02	   1.5289999e-01	
   8.5525000e+01	   1.8445435e-01	  -4.7813441e-02	   1.4026979e-01	
   8.5580000e+01	   1.8694587e-01	  -4.9517923e-02	   1.2823606e-01	
   8.5635000e+01	   1.9004169e-01	  -4.9608476e-02	   1.1695019e-01	
   8.5690000e+01	   1.9368677e-01	  -4.8097605e-02	   1.0657514e-01	
   8.5745000e+01	   1.9780581e-01	  -4.5023209e-02	   9.7283956e-02	
   8.5800000e+01	   2.0230458e-01	  -4.0452304e-02	   8.9255642e-02	
   8.5855000e+01	   2.0707349e-01	  -3.4485656e-02	   8.2667010e-02	
   8.5910000e+01	   2.1199174e-01	  -2.7261744e-02	   7.7680208e-02	
   8.5965000e+01	   2.1693148e-01	  -1.8957452e-02	   7.4428372e-02	
   8.6020000e+01	   2.2176220e-01	  -9.7833583e-03	   7.3002979e-02	
   8.6075000e+01	   2.2635585e-01	   2.6380384e-05	   7.3445258e-02	
   8.6130000e+01	   2.3059251e-01	   1.0227650e-02	   7.5742125e-02	
   8.6185000e+01	   2.3436566e-01	   2.0580976e-02	   7.9825544e-02	
   8.6240000e+01	   2.3758632e-01	   3.0864618e-02	   8.5573440e-02	
   8.6295000e+01	   2.4018459e-01	   4.0884213e-02	   9.2811533e-02	
   8.6350000e+01	   2.4210816e-01	   5.0477721e-02	   1.0131777e-01	
   8.6405000e+01	   2.4331820e-01	   5.9515340e-02	   1.1083133e-01	
   8.6460000e+01	   2.4378509e-01	   6.7895238e-02	   1.2106573e-01	
   8.6515000e+01	   2.4348559e-01	   7.5537193e-02	   1.3172297e-01	
   8.6570000e+01	   2.4240186e-01	   8.2377162e-02	   1.4250542e-01	
   8.6625000e+01	   2.4052207e-01	   8.8365806e-02	   1.5312376e-01	
   8.6680000e+01	   2.3784232e-01	   9.3471863e-02	   1.6330228e-01	
   8.6735000e+01	   2.3436890e-01	   9.7687535e-02	   1.7278373e-01	
   8.6790000e+01	   2.3011902e-01	   1.0103122e-01	   1.8133494e-01	
   8.6845000e+01	   2.2511941e-01	   1.0354500e-01	   1.8875410e-01	
   8.6900000e+01	   2.1940363e-01	   1.0528785e-01	   1.9487961e-01	
   8.6955000e+01	   2.1300995e-01	   1.0632768e-01	   1.9959847e-01	
   8.7010000e+01	   2.0597992e-01	   1.0673466e-01	   2.0285187e-01	
   8.7065000e+01	   1.9835703e-01	   1.0657771e-01	   2.0463640e-01	
   8.7120000e+01	   1.9018527e-01	   1.0592315e-01	   2.0500195e-01	
   8.7175000e+01	   1.8150761e-01	   1.0483317e-01	   2.0404600e-01	
   8.7230000e+01	   1.7236457e-01	   1.0336288e-01	   2.0190467e-01	
   8.7285000e+01	   1.6279295e-01	   1.0155698e-01	   1.9874257e-01	
   8.7340000e+01	   1.5282542e-01	   9.9448084e-02	   1.9474469e-01	
   8.7395000e+01	   1.4249102e-01	   9.7057950e-02	   1.9011122e-01	
   8.7450000e+01	   1.3181613e-01	   9.4401725e-02	   1.8505385e-01	
   8.7505000e+01	   1.2082577e-01	   9.1493778e-02	   1.7979254e-01	
   8.7560000e+01	   1.0954546e-01	   8.8353801e-02	   1.7455203e-01	
   8.7615000e+01	   9.8003386e-02	   8.5011948e-02	   1.6955725e-01	
   8.7670000e+01	   8.6232263e-02	   8.1511283e-02	   1.6502710e-01	
   8.7725000e+01	   7.4269929e-02	   7.7906248e-02	   1.6116707e-01	
   8.7780000e+01	   6.2158765e-02	   7.4258038e-02	   1.5816103e-01	
   8.7835000e+01	   4.9944746e-02	   7.0629260e-02	   1.5616262e-01	
   8.7890000e+01	   3.7677179e-02	   6.7079922e-02	   1.5528682e-01	
   8.7945000e+01	   2.5409347e-02	   6.3666019e-02	   1.5560304e-01	
   8.8000000e+01	   1.3199942e-02	   6.0440306e-02	   1.5713127e-01	
   8.8055000e+01	   1.1152878e-03	   5.7452267e-02	   1.5984211e-01	
   8.8110000e+01	  -1.0768104e-02	   5.4744146e-02	   1.6366013e-01	
   8.8165000e+01	  -2.2361776e-02	   5.2343786e-02	   1.6846961e-01	
   8.8220000e+01	  -3.3565161e-02	   5.0258685e-02	   1.7412218e-01	
   8.8275000e+01	  -4.4267433e-02	   4.8473992e-02	   1.8044496e-01	
   8.8330000e+01	  -5.4352077e-02	   4.6952927e-02	   1.8724754e-01	
   8.8385000e+01	  -6.3704440e-02	   4.5637536e-02	   1.9432659e-01	
   8.8440000e+01	  -7.2220765e-02	   4.4450499e-02	   2.0146882e-01	
   8.8495000e+01	  -7.9816305e-02	   4.3299701e-02	   2.0845419e-01	
   8.8550000e+01	  -8.6431022e-02	   4.2085331e-02	   2.1506044e-01	
   8.8605000e+01	  -9.2032789e-02	   4.0708128e-02	   2.2106904e-01	
   8.8660000e+01	  -9.6618547e-02	   3.9078275e-02	   2.2627231e-01	
   8.8715000e+01	  -1.0021360e-01	   3.7124598e-02	   2.3048123e-01	
   8.8770000e+01	  -1.0286963e-01	   3.4802425e-02	   2.3353297e-01	
   8.8825000e+01	  -1.0466212e-01	   3.2098628e-02	   2.3529671e-01	
   8.8880000e+01	  -1.0568748e-01	   2.9034275e-02	   2.3567817e-01	
   8.8935000e+01	  -1.0605893e-01	   2.5665739e-02	   2.3462296e-01	
   8.8990000e+01	  -1.0590114e-01	   2.2083390e-02	   2.3211813e-01	
   8.9045000e+01	  -1.0534376e-01	   1.8406434e-02	   2.2819026e-01	
   8.9100000e+01	  -1.0451488e-01	   1.4774082e-02	   2.2290121e-01	
   8.9155000e+01	  -1.0353462e-01	   1.1334709e-02	   2.1634345e-01	
   8.9210000e+01	  -1.0250997e-01	   8.2349724e-03	   2.0863669e-01	
   8.9265000e+01	  -1.0153190e-01	   5.6107778e-03	   1.9992500e-01	
   8.9320000e+01	  -1.0067501e-01	   3.5813771e-03	   1.9037355e-01	
   8.9375000e+01	  -9.9998741e-02	   2.2463508e-03	   1.8016496e-01	
   8.9430000e+01	  -9.9549071e-02	   1.6838173e-03	   1.6949576e-01	
   8.9485000e+01	  -9.9360725e-02	   1.9482511e-03	   1.5857305e-01	
   8.9540000e+01	  -9.9460027e-02	   3.0676489e-03	   1.4761081e-01	
   8.9595000e+01	  -9.9868161e-02	   5.0411001e-03	   1.3682679e-01	
   8.9650000e+01	  -1.0060443e-01	   7.8375760e-03	   1.2643967e-01	
   8.9705000e+01	  -1.0168909e-01	   1.1395397e-02	   1.1666507e-01	
   8.9760000e+01	  -1.0314492e-01	   1.5621902e-02	   1.0770842e-01	
   8.9815000e+01	  -1.0499636e-01	   2.0394561e-02	   9.9754768e-02	
   8.9870000e+01	  -1.0726567e-01	   2.5564971e-02	   9.2958522e-02	
   8.9925000e+01	  -1.0996686e-01	   3.0965371e-02	   8.7435482e-02	
   8.9980000e+01	  -1.1309954e-01	   3.6416582e-02	   8.3258459e-02	
   9.0035000e+01	  -1.1664428e-01	   4.1737276e-02	   8.0457153e-02	
   9.0090000e+01	  -1.2056054e-01	   4.6754690e-02	   7.9022155e-02	
   9.0145000e+01	  -1.2478761e-01	   5.1315459e-02	   7.8911076e-02	
   9.0200000e+01	  -1.2924923e-01	   5.5294161e-02	   8.0054442e-02	
   9.0255000e+01	  -1.3386112e-01	   5.8598409e-02	   8.2361225e-02	
   9.0310000e+01	  -1.3853964e-01	   6.1170639e-02	   8.5725189e-02	
   9.0365000e+01	  -1.4320997e-01	   6.2987024e-02	   9.0032081e-02	
   9.0420000e+01	  -1.4781290e-01	   6.4054571e-02	   9.5166610e-02	
   9.0475000e+01	  -1.5230907e-01	   6.4408250e-02	   1.0101872e-01	
   9.0530000e+01	  -1.5667986e-01	   6.4108655e-02	   1.0748906e-01	
   9.0585000e+01	  -1.6092544e-01	   6.3238769e-02	   1.1449264e-01	
   9.0640000e+01	  -1.6506133e-01	   6.1898874e-02	   1.2195876e-01	
   9.0695000e+01	  -1.6911458e-01	   6.0201015e-02	   1.2982651e-01	
   9.0750000e+01	  -1.7311988e-01	   5.8264960e-02	   1.3803695e-01	
   9.0805000e+01	  -1.7711611e-01	   5.6214776e-02	   1.4652403e-01	
   9.0860000e+01	  -1.8114492e-01	   5.4173447e-02	   1.5520593e-01	
   9.0915000e+01	  -1.8525129e-01	   5.2254940e-02	   1.6397887e-01	
   9.0970000e+01	  -1.8948539e-01	   5.0555299e-02	   1.7271486e-01	
   9.1025000e+01	  -1.9390446e-01	   4.9143949e-02	   1.8126337e-01	
   9.1080000e+01	  -1.9857397e-01	   4.8056236e-02	   1.8945598e-01	
   9.1135000e+01	  -2.0356763e-01	   4.7289626e-02	   1.9711343e-01	
   9.1190000e+01	  -2.0896512e-01	   4.6805715e-02	   2.0405397e-01	
   9.1245000e+01	  -2.1484700e-01	   4.6537011e-02	   2.1010084e-01	
   9.1300000e+01	  -2.2128763e-01	   4.6395197e-02	   2.1508817e-01	
   9.1355000e+01	  -2.2834746e-01	   4.6278750e-02	   2.1886582e-01	
   9.1410000e+01	  -2.3606657e-01	   4.6079752e-02	   2.2130444e-01	
   9.1465000e+01	  -2.4446091e-01	   4.5690036e-02	   2.2230024e-01	
   9.1520000e+01	  -2.5352230e-01	   4.5006685e-02	   2.2177764e-01	
   9.1575000e+01	  -2.6322185e-01	   4.3937639e-02	   2.1968973e-01	
   9.1630000e+01	  -2.7351507e-01	   4.2408065e-02	   2.1601838e-01	
   9.1685000e+01	  -2.8434737e-01	   4.0365406e-02	   2.1077585e-01	
   9.1740000e+01	  -2.9565908e-01	   3.7779149e-02	   2.0400773e-01	
   9.1795000e+01	  -3.0738955e-01	   3.4634691e-02	   1.9579557e-01	
   9.1850000e+01	  -3.1947935e-01	   3.0924904e-02	   1.8625741e-01	
   9.1905000e+01	  -3.3187017e-01	   2.6641878e-02	   1.7554526e-01	
   9.1960000e+01	  -3.4450287e-01	   2.1768666e-02	   1.6383939e-01	
   9.2015000e+01	  -3.5731500e-01	   1.6271636e-02	   1.5134074e-01	
   9.2070000e+01	  -3.7023901e-01	   1.0095941e-02	   1.3826287e-01	
   9.2125000e+01	  -3.8320122e-01	   3.1656182e-03	   1.2482410e-01	
   9.2180000e+01	  -3.9612137e-01	  -4.6123315e-03	   1.1124008e-01	
   9.2235000e+01	  -4.0891273e-01	  -1.3340962e-02	   9.7716870e-02	
   9.2290000e+01	  -4.2148385e-01	  -2.3124300e-02	   8.4445494e-02	
   9.2345000e+01	  -4.3374237e-01	  -3.4057881e-02	   7.1597526e-02	
   9.2400000e+01	  -4.4560082e-01	  -4.6221448e-02	   5.9319630e-02	
   9.2455000e+01	  -4.5698319e-01	  -5.9674841e-02	   4.7726117e-02	
   9.2510000e+01	  -4.6783031e-01	  -7.4455546e-02	   3.6892428e-02	
   9.2565000e+01	  -4.7810165e-01	  -9.0576462e-02	   2.6853391e-02	
   9.2620000e+01	  -4.8777346e-01	  -1.0802442e-01	   1.7606805e-02	
   9.2675000e+01	  -4.9683533e-01	  -1.2675968e-01	   9.1199691e-03	
   9.2730000e+01	  -5.0528763e-01	  -1.4671467e-01	   1.3373419e-03	
   9.2785000e+01	  -5.1314027e-01	  -1.6779035e-01	  -5.8113910e-03	
   9.2840000e+01	  -5.2041225e-01	  -1.8985131e-01	  -1.2404395e-02	
   9.2895000e+01	  -5.2713241e-01	  -2.1272256e-01	  -1.8523307e-02	
   9.2950000e+01	  -5.3334078e-01	  -2.3619066e-01	  -2.4250694e-02	
   9.3005000e+01	  -5.3908938e-01	  -2.6001027e-01	  -2.9667760e-02	
   9.3060000e+01	  -5.4444214e-01	  -2.8391590e-01	  -3.4851954e-02	
   9.3115000e+01	  -5.4947434e-01	  -3.0763696e-01	  -3.9875159e-02	
   9.3170000e+01	  -5.5427161e-01	  -3.3091250e-01	  -4.4802904e-02	
   9.3225000e+01	  -5.5892719e-01	  -3.5350307e-01	  -4.9694586e-02	
   9.3280000e+01	  -5.6353721e-01	  -3.7519935e-01	  -5.4604292e-02	
   9.3335000e+01	  -5.6819546e-01	  -3.9582905e-01	  -5.9581192e-02	
   9.3390000e+01	  -5.7298862e-01	  -4.1526190e-01	  -6.4668635e-02	
   9.3445000e+01	  -5.7799162e-01	  -4.3341087e-01	  -6.9902493e-02	
   9.3500000e+01	  -5.8326210e-01	  -4.5022887e-01	  -7.5310353e-02	
   9.3555000e+01	  -5.8883537e-01	  -4.6570186e-01	  -8.0912735e-02	
   9.3610000e+01	  -5.9472163e-01	  -4.7984100e-01	  -8.6726285e-02	
   9.3665000e+01	  -6.0090700e-01	  -4.9267602e-01	  -9.2767630e-02	
   9.3720000e+01	  -6.0735762e-01	  -5.0425120e-01	  -9.9056165e-02	
   9.3775000e+01	  -6.1402515e-01	  -5.1462398e-01	  -1.0561466e-01	
   9.3830000e+01	  -6.2085183e-01	  -5.2386442e-01	  -1.1246768e-01	
   9.3885000e+01	  -6.2777421e-01	  -5.3205361e-01	  -1.1963872e-01	
   9.3940000e+01	  -6.3472590e-01	  -5.3928002e-01	  -1.2714760e-01	
   9.3995000e+01	  -6.4164035e-01	  -5.4563385e-01	  -1.3500912e-01	
   9.4050000e+01	  -6.4845356e-01	  -5.5120037e-01	  -1.4323214e-01	
   9.4105000e+01	  -6.5510558e-01	  -5.5605240e-01	  -1.5181721e-01	
   9.4160000e+01	  -6.6153958e-01	  -5.6024291e-01	  -1.6075218e-01	
   9.4215000e+01	  -6.6769998e-01	  -5.6379993e-01	  -1.7000804e-01	
   9.4270000e+01	  -6.7353139e-01	  -5.6672673e-01	  -1.7953744e-01	
   9.4325000e+01	  -6.7897938e-01	  -5.6900802e-01	  -1.8927652e-01	
   9.4380000e+01	  -6.8399264e-01	  -5.7061995e-01	  -1.9914931e-01	
   9.4435000e+01	  -6.8852531e-01	  -5.7154148e-01	  -2.0907328e-01	
   9.4490000e+01	  -6.9253825e-01	  -5.7176473e-01	  -2.1896455e-01	
   9.4545000e+01	  -6.9599867e-01	  -5.7130146e-01	  -2.2874061e-01	
   9.4600000e+01	  -6.9887805e-01	  -5.7018437e-01	  -2.3831972e-01	
   9.4655000e+01	  -7.0114964e-01	  -5.6846489e-01	  -2.4761802e-01	
   9.4710000e+01	  -7.0278675e-01	  -5.6621027e-01	  -2.5654667e-01	
   9.4765000e+01	  -7.0376302e-01	  -5.6350143e-01	  -2.6501106e-01	
   9.4820000e+01	  -7.0405426e-01	  -5.6043169e-01	  -2.7291200e-01	
   9.4875000e+01	  -7.0364123e-01	  -5.5710480e-01	  -2.8014850e-01	
   9.4930000e+01	  -7.0251343e-01	  -5.5363095e-01	  -2.8662182e-01	
   9.4985000e+01	  -7.0067352e-01	  -5.5012053e-01	  -2.9223927e-01	
   9.5040000e+01	  -6.9814136e-01	  -5.4667689e-01	  -2.9691635e-01	
   9.5095000e+01	  -6.9495605e-01	  -5.4338902e-01	  -3.0057765e-01	
   9.5150000e+01	  -6.9117640e-01	  -5.4032609e-01	  -3.0315836e-01	
   9.5205000e+01	  -6.8688068e-01	  -5.3753539e-01	  -3.0460796e-01	
   9.5260000e+01	  -6.8216591e-01	  -5.3504451e-01	  -3.0489520e-01	
   9.5315000e+01	  -6.7714612e-01	  -5.3286662e-01	  -3.0401263e-01	
   9.5370000e+01	  -6.7194926e-01	  -5.3100798e-01	  -3.0197980e-01	
   9.5425000e+01	  -6.6671352e-01	  -5.2947525e-01	  -2.9884617e-01	
   9.5480000e+01	  -6.6158342e-01	  -5.2828013e-01	  -2.9469457e-01	
   9.5535000e+01	  -6.5670512e-01	  -5.2744037e-01	  -2.8964431e-01	
