
0   5   7
   0.0000000e+00	  -2.1326344e-01	   1.1052648e-02	
   5.5000000e-02	  -2.3581306e-01	  -3.2615470e-03	
   1.1000000e-01	  -2.5774816e-01	  -1.7404729e-02	
   1.6500000e-01	  -2.7876111e-01	  -3.1119919e-02	
   2.2000000e-01	  -2.9857003e-01	  -4.4165988e-02	
   2.7500000e-01	  -3.1692961e-01	  -5.6327816e-02	
   3.3000000e-01	  -3.3363918e-01	  -6.7424197e-02	
   3.8500000e-01	  -3.4854610e-01	  -7.7312003e-02	
   4.4000000e-01	  -3.6154520e-01	  -8.5886428e-02	
   4.9500000e-01	  -3.7257676e-01	  -9.3078652e-02	
   5.5000000e-01	  -3.8162497e-01	  -9.8852829e-02	
   6.0500000e-01	  -3.8871678e-01	  -1.0320394e-01	
   6.6000000e-01	  -3.9392009e-01	  -1.0615726e-01	
   7.1500000e-01	  -3.9734029e-01	  -1.0776881e-01	
   7.7000000e-01	  -3.9911431e-01	  -1.0812553e-01	
   8.2500000e-01	  -3.9940232e-01	  -1.0734376e-01	
   8.8000000e-01	  -3.9837834e-01	  -1.0556590e-01	
   9.3500000e-01	  -3.9622154e-01	  -1.0295555e-01	
   9.9000000e-01	  -3.9310897e-01	  -9.9690919e-02	
   1.0450000e+00	  -3.8921036e-01	  -9.5956570e-02	
   1.1000000e+00	  -3.8468483e-01	  -9.1934435e-02	
   1.1550000e+00	  -3.7967885e-01	  -8.7795380e-02	
   1.2100000e+00	  -3.7432397e-01	  -8.3692070e-02	
   1.2650000e+00	  -3.6873487e-01	  -7.9753592e-02	
   1.3200000e+00	  -3.6300979e-01	  -7.6082612e-02	
   1.3750000e+00	  -3.5723435e-01	  -7.2755637e-02	
   1.4300000e+00	  -3.5148660e-01	  -6.9825955e-02	
   1.4850000e+00	  -3.4584001e-01	  -6.7328108e-02	
   1.5400000e+00	  -3.4036269e-01	  -6.5282804e-02	
   1.5950000e+00	  -3.3511430e-01	  -6.3701404e-02	
   1.6500000e+00	  -3.3014237e-01	  -6.2588785e-02	
   1.7050000e+00	  -3.2547856e-01	  -6.1943254e-02	
   1.7600000e+00	  -3.2113421e-01	  -6.1753455e-02	
   1.8150000e+00	  -3.1709610e-01	  -6.1994137e-02	
   1.8700000e+00	  -3.1332396e-01	  -6.2622797e-02	
   1.9250000e+00	  -3.0975060e-01	  -6.3578047e-02	
   1.9800000e+00	  -3.0628516e-01	  -6.4780297e-02	
   2.0350000e+00	  -3.0281961e-01	  -6.6135634e-02	
   2.0900000e+00	  -2.9923787e-01	  -6.7542881e-02	
   2.1450000e+00	  -2.9542532e-01	  -6.8902205e-02	
   2.2000000e+00	  -2.9127706e-01	  -7.0123370e-02	
   2.2550000e+00	  -2.8670471e-01	  -7.1132597e-02	
   2.3100000e+00	  -2.8164164e-01	  -7.1877319e-02	
   2.3650000e+00	  -2.7604569e-01	  -7.2327961e-02	
   2.4200000e+00	  -2.6989899e-01	  -7.2476680e-02	
   2.4750000e+00	  -2.6320557e-01	  -7.2334320e-02	
   2.5300000e+00	  -2.5598858e-01	  -7.1927004e-02	
   2.5850000e+00	  -2.4828796e-01	  -7.1292797e-02	
   2.6400000e+00	  -2.4015831e-01	  -7.0478405e-02	
   2.6950000e+00	  -2.3166677e-01	  -6.9536321e-02	
   2.7500000e+00	  -2.2289087e-01	  -6.8523157e-02	
   2.8050000e+00	  -2.1391631e-01	  -6.7499257e-02	
   2.8600000e+00	  -2.0483416e-01	  -6.6528875e-02	
   2.9150000e+00	  -1.9573836e-01	  -6.5680025e-02	
   2.9700000e+00	  -1.8672376e-01	  -6.5023195e-02	
   3.0250000e+00	  -1.7788388e-01	  -6.4628260e-02	
   3.0800000e+00	  -1.6930738e-01	  -6.4559811e-02	
   3.1350000e+00	  -1.6107375e-01	  -6.4872305e-02	
   3.1900000e+00	  -1.5324982e-01	  -6.5606531e-02	
   3.2450000e+00	  -1.4588870e-01	  -6.6787911e-02	
   3.3000000e+00	  -1.3903125e-01	  -6.8426282e-02	
   3.3550000e+00	  -1.3270901e-01	  -7.0516856e-02	
   3.4100000e+00	  -1.2694701e-01	  -7.3042221e-02	
   3.4650000e+00	  -1.2176559e-01	  -7.5974958e-02	
   3.5200000e+00	  -1.1718135e-01	  -7.9279651e-02	
   3.5750000e+00	  -1.1320784e-01	  -8.2913378e-02	
   3.6300000e+00	  -1.0985702e-01	  -8.6825155e-02	
   3.6850000e+00	  -1.0714126e-01	  -9.0956025e-02	
   3.7400000e+00	  -1.0507503e-01	  -9.5240797e-02	
   3.7950000e+00	  -1.0367531e-01	  -9.9611047e-02	
   3.8500000e+00	  -1.0296138e-01	  -1.0399854e-01	
   3.9050000e+00	  -1.0295485e-01	  -1.0833864e-01	
   3.9600000e+00	  -1.0367917e-01	  -1.1257315e-01	
   4.0150000e+00	  -1.0515709e-01	  -1.1665239e-01	
   4.0700000e+00	  -1.0740685e-01	  -1.2053643e-01	
   4.1250000e+00	  -1.1043837e-01	  -1.2419591e-01	
   4.1800000e+00	  -1.1424985e-01	  -1.2761223e-01	
   4.2350000e+00	  -1.1882461e-01	  -1.3077655e-01	
   4.2900000e+00	  -1.2412957e-01	  -1.3368791e-01	
   4.3450000e+00	  -1.3011563e-01	  -1.3635120e-01	
   4.4000000e+00	  -1.3671895e-01	  -1.3877523e-01	
   4.4550000e+00	  -1.4386228e-01	  -1.4097084e-01	
   4.5100000e+00	  -1.5145717e-01	  -1.4294969e-01	
   4.5650000e+00	  -1.5940831e-01	  -1.4472412e-01	
   4.6200000e+00	  -1.6761997e-01	  -1.4630791e-01	
   4.6750000e+00	  -1.7600257e-01	  -1.4771630e-01	
   4.7300000e+00	  -1.8447753e-01	  -1.4896475e-01	
   4.7850000e+00	  -1.9298016e-01	  -1.5006669e-01	
   4.8400000e+00	  -2.0146183e-01	  -1.5103110e-01	
   4.8950000e+00	  -2.0989200e-01	  -1.5186053e-01	
   4.9500000e+00	  -2.1825838e-01	  -1.5254975e-01	
   5.0050000e+00	  -2.2656429e-01	  -1.5308548e-01	
   5.0600000e+00	  -2.3482374e-01	  -1.5344752e-01	
   5.1150000e+00	  -2.4305482e-01	  -1.5361054e-01	
   5.1700000e+00	  -2.5127285e-01	  -1.5354598e-01	
   5.2250000e+00	  -2.5948573e-01	  -1.5322439e-01	
   5.2800000e+00	  -2.6769343e-01	  -1.5261839e-01	
   5.3350000e+00	  -2.7589033e-01	  -1.5170507e-01	
   5.3900000e+00	  -2.8406812e-01	  -1.5046662e-01	
   5.4450000e+00	  -2.9221823e-01	  -1.4888969e-01	
   5.5000000e+00	  -3.0033373e-01	  -1.4696470e-01	
   5.5550000e+00	  -3.0841045e-01	  -1.4468616e-01	
   5.6100000e+00	  -3.1644649e-01	  -1.4205368e-01	
   5.6650000e+00	  -3.2443951e-01	  -1.3907330e-01	
   5.7200000e+00	  -3.3238286e-01	  -1.3575914e-01	
   5.7750000e+00	  -3.4026235e-01	  -1.3213528e-01	
   5.8300000e+00	  -3.4805575e-01	  -1.2823767e-01	
   5.8850000e+00	  -3.5573505e-01	  -1.2411533e-01	
   5.9400000e+00	  -3.6326994e-01	  -1.1982971e-01	
   5.9950000e+00	  -3.7063058e-01	  -1.1545112e-01	
   6.0500000e+00	  -3.7778765e-01	  -1.1105224e-01	
   6.1050000e+00	  -3.8470981e-01	  -1.0669999e-01	
   6.1600000e+00	  -3.9136052e-01	  -1.0244819e-01	
   6.2150000e+00	  -3.9769573e-01	  -9.8332792e-02	
   6.2700000e+00	  -4.0366249e-01	  -9.4369762e-02	
   6.3250000e+00	  -4.0919817e-01	  -9.0555748e-02	
   6.3800000e+00	  -4.1423024e-01	  -8.6871463e-02	
   6.4350000e+00	  -4.1867657e-01	  -8.3286467e-02	
   6.4900000e+00	  -4.2244599e-01	  -7.9763202e-02	
   6.5450000e+00	  -4.2543908e-01	  -7.6259142e-02	
   6.6000000e+00	  -4.2755022e-01	  -7.2727526e-02	
   6.6550000e+00	  -4.2867138e-01	  -6.9117781e-02	
   6.7100000e+00	  -4.2869749e-01	  -6.5376597e-02	
   6.7650000e+00	  -4.2753317e-01	  -6.1450523e-02	
   6.8200000e+00	  -4.2510060e-01	  -5.7290538e-02	
   6.8750000e+00	  -4.2134779e-01	  -5.2858244e-02	
   6.9300000e+00	  -4.1625553e-01	  -4.8132485e-02	
   6.9850000e+00	  -4.0984217e-01	  -4.3115052e-02	
   7.0400000e+00	  -4.0216638e-01	  -3.7834310e-02	
   7.0950000e+00	  -3.9332839e-01	  -3.2345625e-02	
   7.1500000e+00	  -3.8346844e-01	  -2.6727713e-02	
   7.2050000e+00	  -3.7276073e-01	  -2.1075182e-02	
   7.2600000e+00	  -3.6140335e-01	  -1.5489229e-02	
   7.3150000e+00	  -3.4960674e-01	  -1.0068897e-02	
   7.3700000e+00	  -3.3758359e-01	  -4.9042079e-03	
   7.4250000e+00	  -3.2554095e-01	  -7.1420513e-05	
   7.4800000e+00	  -3.1367393e-01	   4.3694344e-03	
   7.5350000e+00	  -3.0215953e-01	   8.3747723e-03	
   7.5900000e+00	  -2.9114949e-01	   1.1916446e-02	
   7.6450000e+00	  -2.8076280e-01	   1.4980789e-02	
   7.7000000e+00	  -2.7107975e-01	   1.7567810e-02	
   7.7550000e+00	  -2.6213968e-01	   1.9689810e-02	
   7.8100000e+00	  -2.5394199e-01	   2.1369598e-02	
   7.8650000e+00	  -2.4644953e-01	   2.2639181e-02	
   7.9200000e+00	  -2.3959347e-01	   2.3538957e-02	
   7.9750000e+00	  -2.3328018e-01	   2.4116333e-02	
   8.0300000e+00	  -2.2739957e-01	   2.4423358e-02	
   8.0850000e+00	  -2.2183329e-01	   2.4514351e-02	
   8.1400000e+00	  -2.1646129e-01	   2.4444375e-02	
   8.1950000e+00	  -2.1116685e-01	   2.4267794e-02	
   8.2500000e+00	  -2.0584167e-01	   2.4035428e-02	
   8.3050000e+00	  -2.0039144e-01	   2.3790053e-02	
   8.3600000e+00	  -1.9474157e-01	   2.3561346e-02	
   8.4150000e+00	  -1.8884149e-01	   2.3361781e-02	
   8.4700000e+00	  -1.8266606e-01	   2.3184961e-02	
   8.5250000e+00	  -1.7621282e-01	   2.3007484e-02	
   8.5800000e+00	  -1.6949578e-01	   2.2794055e-02	
   8.6350000e+00	  -1.6253899e-01	   2.2503917e-02	
   8.6900000e+00	  -1.5537299e-01	   2.2096561e-02	
   8.7450000e+00	  -1.4803369e-01	   2.1536058e-02	
   8.8000000e+00	  -1.4056123e-01	   2.0794369e-02	
   8.8550000e+00	  -1.3299762e-01	   1.9853954e-02	
   8.9100000e+00	  -1.2538341e-01	   1.8709520e-02	
   8.9650000e+00	  -1.1775480e-01	   1.7368591e-02	
   9.0200000e+00	  -1.1014163e-01	   1.5850954e-02	
   9.0750000e+00	  -1.0256661e-01	   1.4187462e-02	
   9.1300000e+00	  -9.5045024e-02	   1.2418858e-02	
   9.1850000e+00	  -8.7584574e-02	   1.0594973e-02	
   9.2400000e+00	  -8.0185022e-02	   8.7740657e-03	
   9.2950000e+00	  -7.2838489e-02	   7.0216582e-03	
   9.3500000e+00	  -6.5531424e-02	   5.4081874e-03	
   9.4050000e+00	  -5.8248898e-02	   4.0052069e-03	
   9.4600000e+00	  -5.0980459e-02	   2.8804141e-03	
   9.5150000e+00	  -4.3725710e-02	   2.0921121e-03	
   9.5700000e+00	  -3.6497942e-02	   1.6840021e-03	
   9.6250000e+00	  -2.9325077e-02	   1.6816699e-03	
   9.6800000e+00	  -2.2248052e-02	   2.0921586e-03	
   9.7350000e+00	  -1.5317307e-02	   2.9066753e-03	
   9.7900000e+00	  -8.5882829e-03	   4.1047289e-03	
   9.8450000e+00	  -2.1166717e-03	   5.6578673e-03	
   9.9000000e+00	   4.0461562e-03	   7.5324439e-03	
   9.9550000e+00	   9.8572797e-03	   9.6915753e-03	
   1.0010000e+01	   1.5285757e-02	   1.2096270e-02	
   1.0065000e+01	   2.0315266e-02	   1.4705604e-02	
   1.0120000e+01	   2.4945377e-02	   1.7476116e-02	
   1.0175000e+01	   2.9191085e-02	   2.0360966e-02	
   1.0230000e+01	   3.3080576e-02	   2.3309229e-02	
   1.0285000e+01	   3.6651800e-02	   2.6265431e-02	
   1.0340000e+01	   3.9949449e-02	   2.9169885e-02	
   1.0395000e+01	   4.3023887e-02	   3.1960577e-02	
   1.0450000e+01	   4.5931244e-02	   3.4576129e-02	
   1.0505000e+01	   4.8732176e-02	   3.6958393e-02	
   1.0560000e+01	   5.1488708e-02	   3.9054230e-02	
   1.0615000e+01	   5.4260925e-02	   4.0817147e-02	
   1.0670000e+01	   5.7104528e-02	   4.2208744e-02	
   1.0725000e+01	   6.0068501e-02	   4.3199074e-02	
   1.0780000e+01	   6.3192619e-02	   4.3765723e-02	
   1.0835000e+01	   6.6505851e-02	   4.3892392e-02	
   1.0890000e+01	   7.0026539e-02	   4.3567727e-02	
   1.0945000e+01	   7.3764273e-02	   4.2784962e-02	
   1.1000000e+01	   7.7723090e-02	   4.1543163e-02	
   1.1055000e+01	   8.1905092e-02	   3.9850305e-02	
   1.1110000e+01	   8.6312840e-02	   3.7726919e-02	
   1.1165000e+01	   9.0949355e-02	   3.5208314e-02	
   1.1220000e+01	   9.5816235e-02	   3.2344508e-02	
   1.1275000e+01	   1.0091113e-01	   2.9198341e-02	
   1.1330000e+01	   1.0622527e-01	   2.5842557e-02	
   1.1385000e+01	   1.1174114e-01	   2.2356198e-02	
   1.1440000e+01	   1.1743046e-01	   1.8820581e-02	
   1.1495000e+01	   1.2325336e-01	   1.5315418e-02	
   1.1550000e+01	   1.2915912e-01	   1.1915425e-02	
   1.1605000e+01	   1.3508702e-01	   8.6871154e-03	
   1.1660000e+01	   1.4096595e-01	   5.6856746e-03	
   1.1715000e+01	   1.4671323e-01	   2.9529242e-03	
   1.1770000e+01	   1.5223516e-01	   5.1739473e-04	
   1.1825000e+01	   1.5743017e-01	  -1.6039656e-03	
   1.1880000e+01	   1.6219379e-01	  -3.4038395e-03	
   1.1935000e+01	   1.6642353e-01	  -4.8831511e-03	
   1.1990000e+01	   1.7002257e-01	  -6.0502557e-03	
   1.2045000e+01	   1.7290171e-01	  -6.9206556e-03	
   1.2100000e+01	   1.7498112e-01	  -7.5172719e-03	
   1.2155000e+01	   1.7619382e-01	  -7.8708960e-03	
   1.2210000e+01	   1.7649157e-01	  -8.0200167e-03	
   1.2265000e+01	   1.7585198e-01	  -8.0096317e-03	
   1.2320000e+01	   1.7428431e-01	  -7.8893149e-03	
   1.2375000e+01	   1.7183164e-01	  -7.7106299e-03	
   1.2430000e+01	   1.6856829e-01	  -7.5235910e-03	
   1.2485000e+01	   1.6459371e-01	  -7.3723597e-03	
   1.2540000e+01	   1.6002462e-01	  -7.2909739e-03	
   1.2595000e+01	   1.5498758e-01	  -7.2997884e-03	
   1.2650000e+01	   1.4961328e-01	  -7.4031880e-03	
   1.2705000e+01	   1.4403236e-01	  -7.5895217e-03	
   1.2760000e+01	   1.3837136e-01	  -7.8340877e-03	
   1.2815000e+01	   1.3274805e-01	  -8.1046451e-03	
   1.2870000e+01	   1.2726703e-01	  -8.3673977e-03	
   1.2925000e+01	   1.2201671e-01	  -8.5913042e-03	
   1.2980000e+01	   1.1706841e-01	  -8.7497828e-03	
   1.3035000e+01	   1.1247818e-01	  -8.8200599e-03	
   1.3090000e+01	   1.0829091e-01	  -8.7809992e-03	
   1.3145000e+01	   1.0454495e-01	  -8.6105616e-03	
   1.3200000e+01	   1.0127545e-01	  -8.2840738e-03	
   1.3255000e+01	   9.8515354e-02	  -7.7738955e-03	
   1.3310000e+01	   9.6295194e-02	  -7.0502233e-03	
   1.3365000e+01	   9.4642913e-02	  -6.0826707e-03	
   1.3420000e+01	   9.3583835e-02	  -4.8428478e-03	
   1.3475000e+01	   9.3139980e-02	  -3.3080564e-03	
   1.3530000e+01	   9.3329326e-02	  -1.4650247e-03	
   1.3585000e+01	   9.4166452e-02	   6.8804414e-04	
   1.3640000e+01	   9.5664540e-02	   3.1418674e-03	
   1.3695000e+01	   9.7836674e-02	   5.8782173e-03	
   1.3750000e+01	   1.0069512e-01	   8.8726878e-03	
   1.3805000e+01	   1.0424960e-01	   1.2097368e-02	
   1.3860000e+01	   1.0850595e-01	   1.5522789e-02	
   1.3915000e+01	   1.1346449e-01	   1.9118520e-02	
   1.3970000e+01	   1.1911733e-01	   2.2852423e-02	
   1.4025000e+01	   1.2544533e-01	   2.6689142e-02	
   1.4080000e+01	   1.3241643e-01	   3.0588320e-02	
   1.4135000e+01	   1.3998574e-01	   3.4502965e-02	
   1.4190000e+01	   1.4809677e-01	   3.8379086e-02	
   1.4245000e+01	   1.5668299e-01	   4.2157885e-02	
   1.4300000e+01	   1.6566982e-01	   4.5780223e-02	
   1.4355000e+01	   1.7497785e-01	   4.9191478e-02	
   1.4410000e+01	   1.8452777e-01	   5.2345203e-02	
   1.4465000e+01	   1.9424655e-01	   5.5205413e-02	
   1.4520000e+01	   2.0407345e-01	   5.7747686e-02	
   1.4575000e+01	   2.1396446e-01	   5.9958654e-02	
   1.4630000e+01	   2.2389446e-01	   6.1833628e-02	
   1.4685000e+01	   2.3385741e-01	   6.3373040e-02	
   1.4740000e+01	   2.4386456e-01	   6.4578625e-02	
   1.4795000e+01	   2.5394120e-01	   6.5450083e-02	
   1.4850000e+01	   2.6412235e-01	   6.5983124e-02	
   1.4905000e+01	   2.7444806e-01	   6.6169993e-02	
   1.4960000e+01	   2.8495895e-01	   6.6002380e-02	
   1.5015000e+01	   2.9569275e-01	   6.5474901e-02	
   1.5070000e+01	   3.0668157e-01	   6.4587309e-02	
   1.5125000e+01	   3.1794988e-01	   6.3345413e-02	
   1.5180000e+01	   3.2951294e-01	   6.1761702e-02	
   1.5235000e+01	   3.4137510e-01	   5.9855731e-02	
   1.5290000e+01	   3.5352735e-01	   5.7653192e-02	
   1.5345000e+01	   3.6594522e-01	   5.5182895e-02	
   1.5400000e+01	   3.7858869e-01	   5.2472090e-02	
   1.5455000e+01	   3.9140418e-01	   4.9541376e-02	
   1.5510000e+01	   4.0432762e-01	   4.6400741e-02	
   1.5565000e+01	   4.1728772e-01	   4.3047997e-02	
   1.5620000e+01	   4.3020950e-01	   3.9470143e-02	
   1.5675000e+01	   4.4301781e-01	   3.5647240e-02	
   1.5730000e+01	   4.5563958e-01	   3.1557812e-02	
   1.5785000e+01	   4.6800405e-01	   2.7184782e-02	
   1.5840000e+01	   4.8004164e-01	   2.2520907e-02	
   1.5895000e+01	   4.9168315e-01	   1.7572506e-02	
   1.5950000e+01	   5.0285974e-01	   1.2360465e-02	
   1.6005000e+01	   5.1350353e-01	   6.9186400e-03	
   1.6060000e+01	   5.2354879e-01	   1.2907825e-03	
   1.6115000e+01	   5.3293365e-01	  -4.4731428e-03	
   1.6170000e+01	   5.4160202e-01	  -1.0321185e-02	
   1.6225000e+01	   5.4950550e-01	  -1.6203915e-02	
   1.6280000e+01	   5.5660518e-01	  -2.2078021e-02	
   1.6335000e+01	   5.6287306e-01	  -2.7907844e-02	
   1.6390000e+01	   5.6829195e-01	  -3.3664782e-02	
   1.6445000e+01	   5.7285363e-01	  -3.9325245e-02	
   1.6500000e+01	   5.7655635e-01	  -4.4867884e-02	
   1.6555000e+01	   5.7940341e-01	  -5.0270817e-02	
   1.6610000e+01	   5.8140341e-01	  -5.5509386e-02	
   1.6665000e+01	   5.8257100e-01	  -6.0554735e-02	
   1.6720000e+01	   5.8292718e-01	  -6.5373318e-02	
   1.6775000e+01	   5.8249893e-01	  -6.9927601e-02	
   1.6830000e+01	   5.8131826e-01	  -7.4178501e-02	
   1.6885000e+01	   5.7942097e-01	  -7.8089550e-02	
   1.6940000e+01	   5.7684536e-01	  -8.1631543e-02	
   1.6995000e+01	   5.7363112e-01	  -8.4785963e-02	
   1.7050000e+01	   5.6981835e-01	  -8.7546178e-02	
   1.7105000e+01	   5.6544725e-01	  -8.9916541e-02	
   1.7160000e+01	   5.6055776e-01	  -9.1910238e-02	
   1.7215000e+01	   5.5518871e-01	  -9.3546835e-02	
   1.7270000e+01	   5.4937633e-01	  -9.4850632e-02	
   1.7325000e+01	   5.4315252e-01	  -9.5850738e-02	
   1.7380000e+01	   5.3654454e-01	  -9.6582528e-02	
   1.7435000e+01	   5.2957699e-01	  -9.7089029e-02	
   1.7490000e+01	   5.2227528e-01	  -9.7421248e-02	
   1.7545000e+01	   5.1466805e-01	  -9.7637403e-02	
   1.7600000e+01	   5.0678741e-01	  -9.7800900e-02	
   1.7655000e+01	   4.9866852e-01	  -9.7976805e-02	
   1.7710000e+01	   4.9034897e-01	  -9.8227491e-02	
   1.7765000e+01	   4.8186742e-01	  -9.8608835e-02	
   1.7820000e+01	   4.7326151e-01	  -9.9167500e-02	
   1.7875000e+01	   4.6456639e-01	  -9.9938850e-02	
   1.7930000e+01	   4.5581431e-01	  -1.0094545e-01	
   1.7985000e+01	   4.4703412e-01	  -1.0219713e-01	
   1.8040000e+01	   4.3825005e-01	  -1.0369329e-01	
   1.8095000e+01	   4.2948058e-01	  -1.0542696e-01	
   1.8150000e+01	   4.2073752e-01	  -1.0738962e-01	
   1.8205000e+01	   4.1202562e-01	  -1.0957587e-01	
   1.8260000e+01	   4.0334306e-01	  -1.1198727e-01	
   1.8315000e+01	   3.9468326e-01	  -1.1463478e-01	
   1.8370000e+01	   3.8603778e-01	  -1.1753910e-01	
   1.8425000e+01	   3.7739897e-01	  -1.2072855e-01	
   1.8480000e+01	   3.6876113e-01	  -1.2423518e-01	
   1.8535000e+01	   3.6011953e-01	  -1.2808991e-01	
   1.8590000e+01	   3.5146786e-01	  -1.3231776e-01	
   1.8645000e+01	   3.4279597e-01	  -1.3693341e-01	
   1.8700000e+01	   3.3408907e-01	  -1.4193757e-01	
   1.8755000e+01	   3.2532913e-01	  -1.4731408e-01	
   1.8810000e+01	   3.1649848e-01	  -1.5302808e-01	
   1.8865000e+01	   3.0758421e-01	  -1.5902637e-01	
   1.8920000e+01	   2.9858113e-01	  -1.6524050e-01	
   1.8975000e+01	   2.8949213e-01	  -1.7159185e-01	
   1.9030000e+01	   2.8032728e-01	  -1.7799753e-01	
   1.9085000e+01	   2.7110217e-01	  -1.8437587e-01	
   1.9140000e+01	   2.6183530e-01	  -1.9065075e-01	
   1.9195000e+01	   2.5254537e-01	  -1.9675358e-01	
   1.9250000e+01	   2.4324983e-01	  -2.0262270e-01	
   1.9305000e+01	   2.3396462e-01	  -2.0820183e-01	
   1.9360000e+01	   2.2470334e-01	  -2.1343984e-01	
   1.9415000e+01	   2.1547563e-01	  -2.1829218e-01	
   1.9470000e+01	   2.0628563e-01	  -2.2272296e-01	
   1.9525000e+01	   1.9713098e-01	  -2.2670660e-01	
   1.9580000e+01	   1.8800228e-01	  -2.3022955e-01	
   1.9635000e+01	   1.7888267e-01	  -2.3329197e-01	
   1.9690000e+01	   1.6974828e-01	  -2.3590864e-01	
   1.9745000e+01	   1.6056988e-01	  -2.3810832e-01	
   1.9800000e+01	   1.5131572e-01	  -2.3993190e-01	
   1.9855000e+01	   1.4195561e-01	  -2.4142911e-01	
   1.9910000e+01	   1.3246634e-01	  -2.4265374e-01	
   1.9965000e+01	   1.2283804e-01	  -2.4365715e-01	
   2.0020000e+01	   1.1307987e-01	  -2.4448137e-01	
   2.0075000e+01	   1.0322292e-01	  -2.4515287e-01	
   2.0130000e+01	   9.3319557e-02	  -2.4567856e-01	
   2.0185000e+01	   8.3439527e-02	  -2.4604469e-01	
   2.0240000e+01	   7.3663623e-02	  -2.4621890e-01	
   2.0295000e+01	   6.4075375e-02	  -2.4615477e-01	
   2.0350000e+01	   5.4752254e-02	  -2.4579790e-01	
   2.0405000e+01	   4.5758505e-02	  -2.4509194e-01	
   2.0460000e+01	   3.7140954e-02	  -2.4398352e-01	
   2.0515000e+01	   2.8927447e-02	  -2.4242554e-01	
   2.0570000e+01	   2.1126667e-02	  -2.4037835e-01	
   2.0625000e+01	   1.3728188e-02	  -2.3780978e-01	
   2.0680000e+01	   6.7020216e-03	  -2.3469559e-01	
   2.0735000e+01	  -2.2290605e-06	  -2.3102202e-01	
   2.0790000e+01	  -6.4549313e-03	  -2.2678943e-01	
   2.0845000e+01	  -1.2742643e-02	  -2.2201476e-01	
   2.0900000e+01	  -1.8960847e-02	  -2.1673167e-01	
   2.0955000e+01	  -2.5205206e-02	  -2.1098925e-01	
   2.1010000e+01	  -3.1563319e-02	  -2.0485033e-01	
   2.1065000e+01	  -3.8107696e-02	  -1.9838934e-01	
   2.1120000e+01	  -4.4890033e-02	  -1.9168893e-01	
   2.1175000e+01	  -5.1936928e-02	  -1.8483513e-01	
   2.1230000e+01	  -5.9246971e-02	  -1.7791142e-01	
   2.1285000e+01	  -6.6788984e-02	  -1.7099273e-01	
   2.1340000e+01	  -7.4501476e-02	  -1.6414065e-01	
   2.1395000e+01	  -8.2293649e-02	  -1.5740046e-01	
   2.1450000e+01	  -9.0048255e-02	  -1.5079996e-01	
   2.1505000e+01	  -9.7626463e-02	  -1.4434970e-01	
   2.1560000e+01	  -1.0487474e-01	  -1.3804495e-01	
   2.1615000e+01	  -1.1163321e-01	  -1.3186954e-01	
   2.1670000e+01	  -1.1774404e-01	  -1.2580099e-01	
   2.1725000e+01	  -1.2305857e-01	  -1.1981545e-01	
   2.1780000e+01	  -1.2744320e-01	  -1.1389075e-01	
   2.1835000e+01	  -1.3078496e-01	  -1.0800657e-01	
   2.1890000e+01	  -1.3299685e-01	  -1.0214262e-01	
   2.1945000e+01	  -1.3402142e-01	  -9.6275542e-02	
   2.2000000e+01	  -1.3383046e-01	  -9.0375485e-02	
   2.2055000e+01	  -1.3242082e-01	  -8.4403837e-02	
   2.2110000e+01	  -1.2980896e-01	  -7.8313750e-02	
   2.2165000e+01	  -1.2602659e-01	  -7.2053884e-02	
   2.2220000e+01	  -1.2111777e-01	  -6.5574452e-02	
   2.2275000e+01	  -1.1513676e-01	  -5.8834394e-02	
   2.2330000e+01	  -1.0814651e-01	  -5.1808107e-02	
   2.2385000e+01	  -1.0021779e-01	  -4.4489839e-02	
   2.2440000e+01	  -9.1429014e-02	  -3.6894796e-02	
   2.2495000e+01	  -8.1866533e-02	  -2.9057527e-02	
   2.2550000e+01	  -7.1625449e-02	  -2.1028503e-02	
   2.2605000e+01	  -6.0809893e-02	  -1.2869007e-02	
   2.2660000e+01	  -4.9532006e-02	  -4.6443956e-03	
   2.2715000e+01	  -3.7909528e-02	   3.5832242e-03	
   2.2770000e+01	  -2.6062304e-02	   1.1761300e-02	
   2.2825000e+01	  -1.4107791e-02	   1.9851085e-02	
   2.2880000e+01	  -2.1558623e-03	   2.7829489e-02	
   2.2935000e+01	   9.6960787e-03	   3.5688249e-02	
   2.2990000e+01	   2.1366499e-02	   4.3430072e-02	
   2.3045000e+01	   3.2791320e-02	   5.1062387e-02	
   2.3100000e+01	   4.3924320e-02	   5.8590634e-02	
   2.3155000e+01	   5.4736786e-02	   6.6012757e-02	
   2.3210000e+01	   6.5215884e-02	   7.3315334e-02	
   2.3265000e+01	   7.5361205e-02	   8.0471592e-02	
   2.3320000e+01	   8.5179986e-02	   8.7441901e-02	
   2.3375000e+01	   9.4682101e-02	   9.4176601e-02	
   2.3430000e+01	   1.0387571e-01	   1.0062023e-01	
   2.3485000e+01	   1.1276419e-01	   1.0671620e-01	
   2.3540000e+01	   1.2134450e-01	   1.1241126e-01	
   2.3595000e+01	   1.2960645e-01	   1.1765861e-01	
   2.3650000e+01	   1.3753209e-01	   1.2241899e-01	
   2.3705000e+01	   1.4509484e-01	   1.2665961e-01	
   2.3760000e+01	   1.5225845e-01	   1.3035166e-01	
   2.3815000e+01	   1.5897696e-01	   1.3346769e-01	
   2.3870000e+01	   1.6519576e-01	   1.3597971e-01	
   2.3925000e+01	   1.7085300e-01	   1.3785799e-01	
   2.3980000e+01	   1.7588018e-01	   1.3907113e-01	
   2.4035000e+01	   1.8020206e-01	   1.3958800e-01	
   2.4090000e+01	   1.8373750e-01	   1.3938161e-01	
   2.4145000e+01	   1.8640170e-01	   1.3843381e-01	
   2.4200000e+01	   1.8810934e-01	   1.3673896e-01	
   2.4255000e+01	   1.8877872e-01	   1.3430671e-01	
   2.4310000e+01	   1.8833771e-01	   1.3116359e-01	
   2.4365000e+01	   1.8673126e-01	   1.2735307e-01	
   2.4420000e+01	   1.8392957e-01	   1.2293339e-01	
   2.4475000e+01	   1.7993543e-01	   1.1797391e-01	
   2.4530000e+01	   1.7478888e-01	   1.1255048e-01	
   2.4585000e+01	   1.6856757e-01	   1.0674030e-01	
   2.4640000e+01	   1.6138284e-01	   1.0061704e-01	
   2.4695000e+01	   1.5337352e-01	   9.4247794e-02	
   2.4750000e+01	   1.4469954e-01	   8.7692815e-02	
   2.4805000e+01	   1.3553580e-01	   8.1007775e-02	
   2.4860000e+01	   1.2606532e-01	   7.4247356e-02	
   2.4915000e+01	   1.1647140e-01	   6.7468324e-02	
   2.4970000e+01	   1.0692919e-01	   6.0730402e-02	
   2.5025000e+01	   9.7598103e-02	   5.4094693e-02	
   2.5080000e+01	   8.8616197e-02	   4.7621129e-02	
   2.5135000e+01	   8.0097593e-02	   4.1366549e-02	
   2.5190000e+01	   7.2132821e-02	   3.5383414e-02	
   2.5245000e+01	   6.4790373e-02	   2.9717766e-02	
   2.5300000e+01	   5.8116630e-02	   2.4405634e-02	
   2.5355000e+01	   5.2133008e-02	   1.9468548e-02	
   2.5410000e+01	   4.6832186e-02	   1.4909677e-02	
   2.5465000e+01	   4.2176710e-02	   1.0712099e-02	
   2.5520000e+01	   3.8101936e-02	   6.8405414e-03	
   2.5575000e+01	   3.4522787e-02	   3.2470436e-03	
   2.5630000e+01	   3.1342047e-02	  -1.2067094e-04	
   2.5685000e+01	   2.8457838e-02	  -3.3105530e-03	
   2.5740000e+01	   2.5768778e-02	  -6.3591999e-03	
   2.5795000e+01	   2.3176294e-02	  -9.2871270e-03	
   2.5850000e+01	   2.0584487e-02	  -1.2096561e-02	
   2.5905000e+01	   1.7898888e-02	  -1.4772105e-02	
   2.5960000e+01	   1.5025841e-02	  -1.7284174e-02	
   2.6015000e+01	   1.1873483e-02	  -1.9594042e-02	
   2.6070000e+01	   8.3541019e-03	  -2.1658868e-02	
   2.6125000e+01	   4.3875951e-03	  -2.3435508e-02	
   2.6180000e+01	  -9.3952600e-05	  -2.4882379e-02	
   2.6235000e+01	  -5.1411902e-03	  -2.5959184e-02	
   2.6290000e+01	  -1.0783342e-02	  -2.6625253e-02	
   2.6345000e+01	  -1.7025969e-02	  -2.6838057e-02	
   2.6400000e+01	  -2.3850371e-02	  -2.6552908e-02	
   2.6455000e+01	  -3.1213757e-02	  -2.5723706e-02	
   2.6510000e+01	  -3.9050130e-02	  -2.4304452e-02	
   2.6565000e+01	  -4.7272518e-02	  -2.2251994e-02	
   2.6620000e+01	  -5.5776833e-02	  -1.9530444e-02	
   2.6675000e+01	  -6.4447052e-02	  -1.6116605e-02	
   2.6730000e+01	  -7.3160977e-02	  -1.2004649e-02	
   2.6785000e+01	  -8.1795302e-02	  -7.2083069e-03	
   2.6840000e+01	  -9.0229037e-02	  -1.7601426e-03	
   2.6895000e+01	  -9.8345679e-02	   4.2911400e-03	
   2.6950000e+01	  -1.0603530e-01	   1.0884134e-02	
   2.7005000e+01	  -1.1319706e-01	   1.7948173e-02	
   2.7060000e+01	  -1.1974208e-01	   2.5406242e-02	
   2.7115000e+01	  -1.2559643e-01	   3.3177161e-02	
   2.7170000e+01	  -1.3070337e-01	   4.1177540e-02	
   2.7225000e+01	  -1.3502394e-01	   4.9324099e-02	
   2.7280000e+01	  -1.3853528e-01	   5.7536014e-02	
   2.7335000e+01	  -1.4122785e-01	   6.5736560e-02	
   2.7390000e+01	  -1.4310232e-01	   7.3854127e-02	
   2.7445000e+01	  -1.4416629e-01	   8.1823501e-02	
   2.7500000e+01	  -1.4443077e-01	   8.9587997e-02	
   2.7555000e+01	  -1.4390718e-01	   9.7102061e-02	
   2.7610000e+01	  -1.4260492e-01	   1.0433372e-01	
   2.7665000e+01	  -1.4052922e-01	   1.1126667e-01	
   2.7720000e+01	  -1.3767986e-01	   1.1790127e-01	
   2.7775000e+01	  -1.3405270e-01	   1.2425316e-01	
   2.7830000e+01	  -1.2964462e-01	   1.3034951e-01	
   2.7885000e+01	  -1.2446017e-01	   1.3622408e-01	
   2.7940000e+01	  -1.1851713e-01	   1.4191265e-01	
   2.7995000e+01	  -1.1185006e-01	   1.4744853e-01	
   2.8050000e+01	  -1.0451206e-01	   1.5285821e-01	
   2.8105000e+01	  -9.6576128e-02	   1.5815797e-01	
   2.8160000e+01	  -8.8136135e-02	   1.6335257e-01	
   2.8215000e+01	  -7.9306923e-02	   1.6843647e-01	
   2.8270000e+01	  -7.0222596e-02	   1.7339687e-01	
   2.8325000e+01	  -6.1032809e-02	   1.7821752e-01	
   2.8380000e+01	  -5.1897478e-02	   1.8288201e-01	
   2.8435000e+01	  -4.2980512e-02	   1.8737598e-01	
   2.8490000e+01	  -3.4442550e-02	   1.9168829e-01	
   2.8545000e+01	  -2.6432020e-02	   1.9581157e-01	
   2.8600000e+01	  -1.9075035e-02	   1.9974235e-01	
   2.8655000e+01	  -1.2467130e-02	   2.0347953e-01	
   2.8710000e+01	  -6.6704018e-03	   2.0702012e-01	
   2.8765000e+01	  -1.7166757e-03	   2.1035336e-01	
   2.8820000e+01	   2.3863987e-03	   2.1345545e-01	
   2.8875000e+01	   5.6499261e-03	   2.1628731e-01	
   2.8930000e+01	   8.1005670e-03	   2.1879629e-01	
   2.8985000e+01	   9.7793342e-03	   2.2092188e-01	
   2.9040000e+01	   1.0741437e-02	   2.2260423e-01	
   2.9095000e+01	   1.1055732e-02	   2.2379305e-01	
   2.9150000e+01	   1.0802504e-02	   2.2445465e-01	
   2.9205000e+01	   1.0069816e-02	   2.2457591e-01	
   2.9260000e+01	   8.9498944e-03	   2.2416529e-01	
   2.9315000e+01	   7.5361055e-03	   2.2325106e-01	
   2.9370000e+01	   5.9194628e-03	   2.2187704e-01	
   2.9425000e+01	   4.1838423e-03	   2.2009693e-01	
   2.9480000e+01	   2.4004977e-03	   2.1796897e-01	
   2.9535000e+01	   6.2292086e-04	   2.1555182e-01	
   2.9590000e+01	  -1.1169452e-03	   2.1290187e-01	
   2.9645000e+01	  -2.8100904e-03	   2.1007231e-01	
   2.9700000e+01	  -4.4689477e-03	   2.0711374e-01	
   2.9755000e+01	  -6.1237642e-03	   2.0407580e-01	
   2.9810000e+01	  -7.8183855e-03	   2.0100797e-01	
   2.9865000e+01	  -9.6066965e-03	   1.9795861e-01	
   2.9920000e+01	  -1.1549833e-02	   1.9497284e-01	
   2.9975000e+01	  -1.3713556e-02	   1.9209012e-01	
   3.0030000e+01	  -1.6165307e-02	   1.8934179e-01	
   3.0085000e+01	  -1.8970588e-02	   1.8674870e-01	
   3.0140000e+01	  -2.2188250e-02	   1.8431986e-01	
   3.0195000e+01	  -2.5865223e-02	   1.8205276e-01	
   3.0250000e+01	  -3.0032448e-02	   1.7993570e-01	
   3.0305000e+01	  -3.4703061e-02	   1.7795157e-01	
   3.0360000e+01	  -3.9871813e-02	   1.7608267e-01	
   3.0415000e+01	  -4.5514391e-02	   1.7431575e-01	
   3.0470000e+01	  -5.1586983e-02	   1.7264586e-01	
   3.0525000e+01	  -5.8027214e-02	   1.7107801e-01	
   3.0580000e+01	  -6.4756876e-02	   1.6962618e-01	
   3.0635000e+01	  -7.1686202e-02	   1.6831018e-01	
   3.0690000e+01	  -7.8719334e-02	   1.6715061e-01	
   3.0745000e+01	  -8.5760507e-02	   1.6616335e-01	
   3.0800000e+01	  -9.2719478e-02	   1.6535610e-01	
   3.0855000e+01	  -9.9514233e-02	   1.6472920e-01	
   3.0910000e+01	  -1.0607099e-01	   1.6428046e-01	
   3.0965000e+01	  -1.1232375e-01	   1.6401134e-01	
   3.1020000e+01	  -1.1821453e-01	   1.6393125e-01	
   3.1075000e+01	  -1.2369283e-01	   1.6405952e-01	
   3.1130000e+01	  -1.2871404e-01	   1.6442473e-01	
   3.1185000e+01	  -1.3323771e-01	   1.6506184e-01	
   3.1240000e+01	  -1.3722683e-01	   1.6600753e-01	
   3.1295000e+01	  -1.4064788e-01	   1.6729489e-01	
   3.1350000e+01	  -1.4347166e-01	   1.6894821e-01	
   3.1405000e+01	  -1.4567439e-01	   1.7097831e-01	
   3.1460000e+01	  -1.4723821e-01	   1.7337955e-01	
   3.1515000e+01	  -1.4815044e-01	   1.7612973e-01	
   3.1570000e+01	  -1.4840262e-01	   1.7919246e-01	
   3.1625000e+01	  -1.4799087e-01	   1.8252004e-01	
   3.1680000e+01	  -1.4691822e-01	   1.8605541e-01	
   3.1735000e+01	  -1.4519807e-01	   1.8973332e-01	
   3.1790000e+01	  -1.4285740e-01	   1.9348084e-01	
   3.1845000e+01	  -1.3993855e-01	   1.9721760e-01	
   3.1900000e+01	  -1.3649953e-01	   2.0085586e-01	
   3.1955000e+01	  -1.3261287e-01	   2.0430089e-01	
   3.2010000e+01	  -1.2836362e-01	   2.0745193e-01	
   3.2065000e+01	  -1.2384699e-01	   2.1020398e-01	
   3.2120000e+01	  -1.1916693e-01	   2.1245015e-01	
   3.2175000e+01	  -1.1443575e-01	   2.1408570e-01	
   3.2230000e+01	  -1.0977394e-01	   2.1501427e-01	
   3.2285000e+01	  -1.0530823e-01	   2.1515605e-01	
   3.2340000e+01	  -1.0116767e-01	   2.1445615e-01	
   3.2395000e+01	  -9.7478462e-02	   2.1289169e-01	
   3.2450000e+01	  -9.4358590e-02	   2.1047660e-01	
   3.2505000e+01	  -9.1913424e-02	   2.0726307e-01	
   3.2560000e+01	  -9.0233031e-02	   2.0333851e-01	
   3.2615000e+01	  -8.9391499e-02	   1.9881847e-01	
   3.2670000e+01	  -8.9447508e-02	   1.9383701e-01	
   3.2725000e+01	  -9.0445012e-02	   1.8853612e-01	
   3.2780000e+01	  -9.2413251e-02	   1.8305521e-01	
   3.2835000e+01	  -9.5365717e-02	   1.7752231e-01	
   3.2890000e+01	  -9.9298271e-02	   1.7204834e-01	
   3.2945000e+01	  -1.0418729e-01	   1.6672507e-01	
   3.3000000e+01	  -1.0998877e-01	   1.6162573e-01	
   3.3055000e+01	  -1.1663834e-01	   1.5680718e-01	
   3.3110000e+01	  -1.2405183e-01	   1.5231260e-01	
   3.3165000e+01	  -1.3212695e-01	   1.4817347e-01	
   3.3220000e+01	  -1.4074669e-01	   1.4441013e-01	
   3.3275000e+01	  -1.4978448e-01	   1.4103062e-01	
   3.3330000e+01	  -1.5910990e-01	   1.3802837e-01	
   3.3385000e+01	  -1.6859407e-01	   1.3537970e-01	
   3.3440000e+01	  -1.7811407e-01	   1.3304240e-01	
   3.3495000e+01	  -1.8755592e-01	   1.3095729e-01	
   3.3550000e+01	  -1.9681620e-01	   1.2905301e-01	
   3.3605000e+01	  -2.0580322e-01	   1.2725274e-01	
   3.3660000e+01	  -2.1443828e-01	   1.2548050e-01	
   3.3715000e+01	  -2.2265723e-01	   1.2366637e-01	
   3.3770000e+01	  -2.3041149e-01	   1.2175079e-01	
   3.3825000e+01	  -2.3766758e-01	   1.1968767e-01	
   3.3880000e+01	  -2.4440506e-01	   1.1744529e-01	
   3.3935000e+01	  -2.5061385e-01	   1.1500461e-01	
   3.3990000e+01	  -2.5629130e-01	   1.1235603e-01	
   3.4045000e+01	  -2.6143907e-01	   1.0949642e-01	
   3.4100000e+01	  -2.6605999e-01	   1.0642758e-01	
   3.4155000e+01	  -2.7015601e-01	   1.0315666e-01	
   3.4210000e+01	  -2.7372702e-01	   9.9698278e-02	
   3.4265000e+01	  -2.7677009e-01	   9.6077556e-02	
   3.4320000e+01	  -2.7927915e-01	   9.2332775e-02	
   3.4375000e+01	  -2.8124593e-01	   8.8515658e-02	
   3.4430000e+01	  -2.8266114e-01	   8.4689063e-02	
   3.4485000e+01	  -2.8351398e-01	   8.0923295e-02	
   3.4540000e+01	  -2.8379007e-01	   7.7292012e-02	
   3.4595000e+01	  -2.8347035e-01	   7.3867870e-02	
   3.4650000e+01	  -2.8253190e-01	   7.0718531e-02	
   3.4705000e+01	  -2.8094949e-01	   6.7904239e-02	
   3.4760000e+01	  -2.7869686e-01	   6.5477110e-02	
   3.4815000e+01	  -2.7574759e-01	   6.3481195e-02	
   3.4870000e+01	  -2.7207671e-01	   6.1952676e-02	
   3.4925000e+01	  -2.6766388e-01	   6.0920169e-02	
   3.4980000e+01	  -2.6249848e-01	   6.0404660e-02	
   3.5035000e+01	  -2.5658504e-01	   6.0418272e-02	
   3.5090000e+01	  -2.4994660e-01	   6.0962183e-02	
   3.5145000e+01	  -2.4262416e-01	   6.2024931e-02	
   3.5200000e+01	  -2.3467316e-01	   6.3581785e-02	
   3.5255000e+01	  -2.2615929e-01	   6.5594745e-02	
   3.5310000e+01	  -2.1715507e-01	   6.8012826e-02	
   3.5365000e+01	  -2.0773725e-01	   7.0773177e-02	
   3.5420000e+01	  -1.9798427e-01	   7.3803782e-02	
   3.5475000e+01	  -1.8797444e-01	   7.7027420e-02	
   3.5530000e+01	  -1.7778463e-01	   8.0365770e-02	
   3.5585000e+01	  -1.6748905e-01	   8.3742949e-02	
   3.5640000e+01	  -1.5715675e-01	   8.7088559e-02	
   3.5695000e+01	  -1.4684870e-01	   9.0340071e-02	
   3.5750000e+01	  -1.3661557e-01	   9.3443758e-02	
   3.5805000e+01	  -1.2649734e-01	   9.6353622e-02	
   3.5860000e+01	  -1.1652418e-01	   9.9028487e-02	
   3.5915000e+01	  -1.0671903e-01	   1.0142772e-01	
   3.5970000e+01	  -9.7101485e-02	   1.0350647e-01	
   3.6025000e+01	  -8.7692504e-02	   1.0521184e-01	
   3.6080000e+01	  -7.8519149e-02	   1.0648145e-01	
   3.6135000e+01	  -6.9618701e-02	   1.0724463e-01	
   3.6190000e+01	  -6.1040876e-02	   1.0742610e-01	
   3.6245000e+01	  -5.2846972e-02	   1.0695157e-01	
   3.6300000e+01	  -4.5105778e-02	   1.0575431e-01	
   3.6355000e+01	  -3.7887548e-02	   1.0378110e-01	
   3.6410000e+01	  -3.1258041e-02	   1.0099621e-01	
   3.6465000e+01	  -2.5273765e-02	   9.7383417e-02	
   3.6520000e+01	  -1.9978464e-02	   9.2946498e-02	
   3.6575000e+01	  -1.5400604e-02	   8.7708702e-02	
   3.6630000e+01	  -1.1551796e-02	   8.1710530e-02	
   3.6685000e+01	  -8.4260367e-03	   7.5005797e-02	
   3.6740000e+01	  -5.9991587e-03	   6.7656623e-02	
   3.6795000e+01	  -4.2278952e-03	   5.9728128e-02	
   3.6850000e+01	  -3.0491436e-03	   5.1283491e-02	
   3.6905000e+01	  -2.3807906e-03	   4.2380448e-02	
   3.6960000e+01	  -2.1244534e-03	   3.3070565e-02	
   3.7015000e+01	  -2.1692204e-03	   2.3401392e-02	
   3.7070000e+01	  -2.3957058e-03	   1.3419866e-02	
   3.7125000e+01	  -2.6806119e-03	   3.1751293e-03	
   3.7180000e+01	  -2.9022716e-03	  -7.2798702e-03	
   3.7235000e+01	  -2.9474309e-03	  -1.7887924e-02	
   3.7290000e+01	  -2.7189742e-03	  -2.8588089e-02	
   3.7345000e+01	  -2.1434604e-03	  -3.9316920e-02	
   3.7400000e+01	  -1.1769596e-03	  -5.0010071e-02	
   3.7455000e+01	   1.9199809e-04	  -6.0604196e-02	
   3.7510000e+01	   1.9427975e-03	  -7.1038890e-02	
   3.7565000e+01	   4.0256377e-03	  -8.1258032e-02	
   3.7620000e+01	   6.3655025e-03	  -9.1210320e-02	
   3.7675000e+01	   8.8666109e-03	  -1.0084954e-01	
   3.7730000e+01	   1.1417629e-02	  -1.1013539e-01	
   3.7785000e+01	   1.3897701e-02	  -1.1903504e-01	
   3.7840000e+01	   1.6183237e-02	  -1.2752455e-01	
   3.7895000e+01	   1.8155466e-02	  -1.3558926e-01	
   3.7950000e+01	   1.9707977e-02	  -1.4322335e-01	
   3.8005000e+01	   2.0752507e-02	  -1.5042945e-01	
   3.8060000e+01	   2.1221733e-02	  -1.5721860e-01	
   3.8115000e+01	   2.1069326e-02	  -1.6360981e-01	
   3.8170000e+01	   2.0268432e-02	  -1.6962864e-01	
   3.8225000e+01	   1.8809829e-02	  -1.7530504e-01	
   3.8280000e+01	   1.6700870e-02	  -1.8067019e-01	
   3.8335000e+01	   1.3965661e-02	  -1.8575287e-01	
   3.8390000e+01	   1.0645580e-02	  -1.9057646e-01	
   3.8445000e+01	   6.7987349e-03	  -1.9515762e-01	
   3.8500000e+01	   2.4977955e-03	  -1.9950705e-01	
   3.8555000e+01	  -2.1736018e-03	  -2.0363160e-01	
   3.8610000e+01	  -7.1257317e-03	  -2.0753734e-01	
   3.8665000e+01	  -1.2268414e-02	  -2.1123262e-01	
   3.8720000e+01	  -1.7515714e-02	  -2.1472930e-01	
   3.8775000e+01	  -2.2787856e-02	  -2.1804089e-01	
   3.8830000e+01	  -2.8010407e-02	  -2.2117807e-01	
   3.8885000e+01	  -3.3113055e-02	  -2.2414403e-01	
   3.8940000e+01	  -3.8030165e-02	  -2.2693154e-01	
   3.8995000e+01	  -4.2702899e-02	  -2.2952224e-01	
   3.9050000e+01	  -4.7081095e-02	  -2.3188809e-01	
   3.9105000e+01	  -5.1123683e-02	  -2.3399467e-01	
   3.9160000e+01	  -5.4797556e-02	  -2.3580573e-01	
   3.9215000e+01	  -5.8075334e-02	  -2.3728757e-01	
   3.9270000e+01	  -6.0932993e-02	  -2.3841267e-01	
   3.9325000e+01	  -6.3348697e-02	  -2.3916217e-01	
   3.9380000e+01	  -6.5303104e-02	  -2.3952737e-01	
   3.9435000e+01	  -6.6779547e-02	  -2.3950975e-01	
   3.9490000e+01	  -6.7762438e-02	  -2.3911949e-01	
   3.9545000e+01	  -6.8234447e-02	  -2.3837334e-01	
   3.9600000e+01	  -6.8174759e-02	  -2.3729302e-01	
   3.9655000e+01	  -6.7560081e-02	  -2.3590471e-01	
   3.9710000e+01	  -6.6368275e-02	  -2.3423954e-01	
   3.9765000e+01	  -6.4583481e-02	  -2.3233515e-01	
   3.9820000e+01	  -6.2201282e-02	  -2.3023745e-01	
   3.9875000e+01	  -5.9232345e-02	  -2.2800208e-01	
   3.9930000e+01	  -5.5703754e-02	  -2.2569466e-01	
   3.9985000e+01	  -5.1658938e-02	  -2.2338999e-01	
   4.0040000e+01	  -4.7157760e-02	  -2.2116987e-01	
   4.0095000e+01	  -4.2277001e-02	  -2.1911938e-01	
   4.0150000e+01	  -3.7109917e-02	  -2.1732192e-01	
   4.0205000e+01	  -3.1764195e-02	  -2.1585432e-01	
   4.0260000e+01	  -2.6359171e-02	  -2.1478337e-01	
   4.0315000e+01	  -2.1022673e-02	  -2.1416402e-01	
   4.0370000e+01	  -1.5886689e-02	  -2.1403851e-01	
   4.0425000e+01	  -1.1081547e-02	  -2.1443640e-01	
   4.0480000e+01	  -6.7293514e-03	  -2.1537533e-01	
   4.0535000e+01	  -2.9376265e-03	  -2.1686272e-01	
   4.0590000e+01	   2.0600006e-04	  -2.1889771e-01	
   4.0645000e+01	   2.6373460e-03	  -2.2147256e-01	
   4.0700000e+01	   4.3168322e-03	  -2.2457294e-01	
   4.0755000e+01	   5.2283227e-03	  -2.2817698e-01	
   4.0810000e+01	   5.3768321e-03	  -2.3225377e-01	
   4.0865000e+01	   4.7867774e-03	  -2.3676181e-01	
   4.0920000e+01	   3.5016179e-03	  -2.4164809e-01	
   4.0975000e+01	   1.5843482e-03	  -2.4684797e-01	
   4.1030000e+01	  -8.8217195e-04	  -2.5228624e-01	
   4.1085000e+01	  -3.7957104e-03	  -2.5787934e-01	
   4.1140000e+01	  -7.0366413e-03	  -2.6353864e-01	
   4.1195000e+01	  -1.0471897e-02	  -2.6917428e-01	
   4.1250000e+01	  -1.3960050e-02	  -2.7469809e-01	
   4.1305000e+01	  -1.7355944e-02	  -2.8002412e-01	
   4.1360000e+01	  -2.0514610e-02	  -2.8506678e-01	
   4.1415000e+01	  -2.3295264e-02	  -2.8973848e-01	
   4.1470000e+01	  -2.5565335e-02	  -2.9394829e-01	
   4.1525000e+01	  -2.7203920e-02	  -2.9760266e-01	
   4.1580000e+01	  -2.8104811e-02	  -3.0060867e-01	
   4.1635000e+01	  -2.8179161e-02	  -3.0287872e-01	
   4.1690000e+01	  -2.7356582e-02	  -3.0433501e-01	
   4.1745000e+01	  -2.5584070e-02	  -3.0491216e-01	
   4.1800000e+01	  -2.2824685e-02	  -3.0455866e-01	
   4.1855000e+01	  -1.9058442e-02	  -3.0323804e-01	
   4.1910000e+01	  -1.4285262e-02	  -3.0093005e-01	
   4.1965000e+01	  -8.5278275e-03	  -2.9763163e-01	
   4.2020000e+01	  -1.8329082e-03	  -2.9335780e-01	
   4.2075000e+01	   5.7287848e-03	  -2.8814231e-01	
   4.2130000e+01	   1.4063758e-02	  -2.8203729e-01	
   4.2185000e+01	   2.3057603e-02	  -2.7511149e-01	
   4.2240000e+01	   3.2577227e-02	  -2.6744839e-01	
   4.2295000e+01	   4.2473362e-02	  -2.5914503e-01	
   4.2350000e+01	   5.2584008e-02	  -2.5031156e-01	
   4.2405000e+01	   6.2739582e-02	  -2.4107044e-01	
   4.2460000e+01	   7.2769417e-02	  -2.3155467e-01	
   4.2515000e+01	   8.2508683e-02	  -2.2190412e-01	
   4.2570000e+01	   9.1805537e-02	  -2.1225970e-01	
   4.2625000e+01	   1.0052852e-01	  -2.0275542e-01	
   4.2680000e+01	   1.0857310e-01	  -1.9350926e-01	
   4.2735000e+01	   1.1586568e-01	  -1.8461524e-01	
   4.2790000e+01	   1.2236500e-01	  -1.7613855e-01	
   4.2845000e+01	   1.2806219e-01	  -1.6811413e-01	
   4.2900000e+01	   1.3298064e-01	  -1.6054805e-01	
   4.2955000e+01	   1.3717486e-01	  -1.5342136e-01	
   4.3010000e+01	   1.4072696e-01	  -1.4669557e-01	
   4.3065000e+01	   1.4374064e-01	  -1.4031894e-01	
   4.3120000e+01	   1.4633411e-01	  -1.3423266e-01	
   4.3175000e+01	   1.4863310e-01	  -1.2837676e-01	
   4.3230000e+01	   1.5076442e-01	  -1.2269491e-01	
   4.3285000e+01	   1.5285093e-01	  -1.1713662e-01	
   4.3340000e+01	   1.5500871e-01	  -1.1165639e-01	
   4.3395000e+01	   1.5734678e-01	  -1.0621077e-01	
   4.3450000e+01	   1.5996830e-01	  -1.0075517e-01	
   4.3505000e+01	   1.6297200e-01	  -9.5241676e-02	
   4.3560000e+01	   1.6645218e-01	  -8.9618004e-02	
   4.3615000e+01	   1.7049656e-01	  -8.3828137e-02	
   4.3670000e+01	   1.7518184e-01	  -7.7814419e-02	
   4.3725000e+01	   1.8056860e-01	  -7.1520733e-02	
   4.3780000e+01	   1.8669681e-01	  -6.4896558e-02	
   4.3835000e+01	   1.9358265e-01	  -5.7902210e-02	
   4.3890000e+01	   2.0121687e-01	  -5.0514869e-02	
   4.3945000e+01	   2.0956490e-01	  -4.2733607e-02	
   4.4000000e+01	   2.1856931e-01	  -3.4581310e-02	
   4.4055000e+01	   2.2815381e-01	  -2.6102950e-02	
   4.4110000e+01	   2.3822699e-01	  -1.7361457e-02	
   4.4165000e+01	   2.4868543e-01	  -8.4328395e-03	
   4.4220000e+01	   2.5941643e-01	   5.9850210e-04	
   4.4275000e+01	   2.7030054e-01	   9.6437778e-03	
   4.4330000e+01	   2.8121330e-01	   1.8612943e-02	
   4.4385000e+01	   2.9202671e-01	   2.7417137e-02	
   4.4440000e+01	   3.0261139e-01	   3.5970537e-02	
   4.4495000e+01	   3.1283984e-01	   4.4191255e-02	
   4.4550000e+01	   3.2258955e-01	   5.2001035e-02	
   4.4605000e+01	   3.3174487e-01	   5.9324217e-02	
   4.4660000e+01	   3.4019807e-01	   6.6086815e-02	
   4.4715000e+01	   3.4785049e-01	   7.2216278e-02	
   4.4770000e+01	   3.5461411e-01	   7.7642043e-02	
   4.4825000e+01	   3.6041363e-01	   8.2297260e-02	
   4.4880000e+01	   3.6518980e-01	   8.6122543e-02	
   4.4935000e+01	   3.6890447e-01	   8.9071855e-02	
   4.4990000e+01	   3.7154537e-01	   9.1118928e-02	
   4.5045000e+01	   3.7312817e-01	   9.2262075e-02	
   4.5100000e+01	   3.7369512e-01	   9.2526444e-02	
   4.5155000e+01	   3.7331173e-01	   9.1963604e-02	
   4.5210000e+01	   3.7206292e-01	   9.0648428e-02	
   4.5265000e+01	   3.7004953e-01	   8.8673409e-02	
   4.5320000e+01	   3.6738437e-01	   8.6141114e-02	
   4.5375000e+01	   3.6418686e-01	   8.3155781e-02	
   4.5430000e+01	   3.6057644e-01	   7.9815112e-02	
   4.5485000e+01	   3.5666608e-01	   7.6203439e-02	
   4.5540000e+01	   3.5255723e-01	   7.2387320e-02	
   4.5595000e+01	   3.4833635e-01	   6.8414071e-02	
   4.5650000e+01	   3.4407161e-01	   6.4312827e-02	
   4.5705000e+01	   3.3980845e-01	   6.0097330e-02	
   4.5760000e+01	   3.3556457e-01	   5.5769946e-02	
   4.5815000e+01	   3.3132696e-01	   5.1326529e-02	
   4.5870000e+01	   3.2705233e-01	   4.6760982e-02	
   4.5925000e+01	   3.2267003e-01	   4.2068013e-02	
   4.5980000e+01	   3.1808572e-01	   3.7243663e-02	
   4.6035000e+01	   3.1318511e-01	   3.2284098e-02	
   4.6090000e+01	   3.0783796e-01	   2.7183175e-02	
   4.6145000e+01	   3.0190297e-01	   2.1929303e-02	
   4.6200000e+01	   2.9523438e-01	   1.6502683e-02	
   4.6255000e+01	   2.8768968e-01	   1.0874213e-02	
   4.6310000e+01	   2.7913706e-01	   5.0066777e-03	
   4.6365000e+01	   2.6946131e-01	  -1.1419403e-03	
   4.6420000e+01	   2.5856877e-01	  -7.6134540e-03	
   4.6475000e+01	   2.4639276e-01	  -1.4443600e-02	
   4.6530000e+01	   2.3289876e-01	  -2.1656739e-02	
   4.6585000e+01	   2.1808768e-01	  -2.9262357e-02	
   4.6640000e+01	   2.0199615e-01	  -3.7253347e-02	
   4.6695000e+01	   1.8469439e-01	  -4.5605464e-02	
   4.6750000e+01	   1.6628191e-01	  -5.4278188e-02	
   4.6805000e+01	   1.4688038e-01	  -6.3217773e-02	
   4.6860000e+01	   1.2662467e-01	  -7.2362117e-02	
   4.6915000e+01	   1.0565408e-01	  -8.1645668e-02	
   4.6970000e+01	   8.4106201e-02	  -9.1002709e-02	
   4.7025000e+01	   6.2113505e-02	  -1.0036879e-01	
   4.7080000e+01	   3.9801111e-02	  -1.0968095e-01	
   4.7135000e+01	   1.7285572e-02	  -1.1887753e-01	
   4.7190000e+01	  -5.3247770e-03	  -1.2789831e-01	
   4.7245000e+01	  -2.7928034e-02	  -1.3668556e-01	
   4.7300000e+01	  -5.0426392e-02	  -1.4518586e-01	
   4.7355000e+01	  -7.2724310e-02	  -1.5335225e-01	
   4.7410000e+01	  -9.4728315e-02	  -1.6114628e-01	
   4.7465000e+01	  -1.1634899e-01	  -1.6853948e-01	
   4.7520000e+01	  -1.3750479e-01	  -1.7551345e-01	
   4.7575000e+01	  -1.5812653e-01	  -1.8205802e-01	
   4.7630000e+01	  -1.7816151e-01	  -1.8816795e-01	
   4.7685000e+01	  -1.9757618e-01	  -1.9383919e-01	
   4.7740000e+01	  -2.1635714e-01	  -1.9906546e-01	
   4.7795000e+01	  -2.3450967e-01	  -2.0383509e-01	
   4.7850000e+01	  -2.5205361e-01	  -2.0812853e-01	
   4.7905000e+01	  -2.6901711e-01	  -2.1191777e-01	
   4.7960000e+01	  -2.8543017e-01	  -2.1516885e-01	
   4.8015000e+01	  -3.0131923e-01	  -2.1784694e-01	
   4.8070000e+01	  -3.1670256e-01	  -2.1992286e-01	
   4.8125000e+01	  -3.3158619e-01	  -2.2137895e-01	
   4.8180000e+01	  -3.4596135e-01	  -2.2221322e-01	
   4.8235000e+01	  -3.5980428e-01	  -2.2244093e-01	
   4.8290000e+01	  -3.7307844e-01	  -2.2209345e-01	
   4.8345000e+01	  -3.8573937e-01	  -2.2121542e-01	
   4.8400000e+01	  -3.9774157e-01	  -2.1986169e-01	
   4.8455000e+01	  -4.0904592e-01	  -2.1809497e-01	
   4.8510000e+01	  -4.1962502e-01	  -2.1598357e-01	
   4.8565000e+01	  -4.2946571e-01	  -2.1359920e-01	
   4.8620000e+01	  -4.3856958e-01	  -2.1101528e-01	
   4.8675000e+01	  -4.4695260e-01	  -2.0830587e-01	
   4.8730000e+01	  -4.5464295e-01	  -2.0554476e-01	
   4.8785000e+01	  -4.6167710e-01	  -2.0280456e-01	
   4.8840000e+01	  -4.6809476e-01	  -2.0015548e-01	
   4.8895000e+01	  -4.7393324e-01	  -1.9766266e-01	
   4.8950000e+01	  -4.7922140e-01	  -1.9538162e-01	
   4.9005000e+01	  -4.8397393e-01	  -1.9335341e-01	
   4.9060000e+01	  -4.8818779e-01	  -1.9160124e-01	
   4.9115000e+01	  -4.9184182e-01	  -1.9012965e-01	
   4.9170000e+01	  -4.9489933e-01	  -1.8892573e-01	
   4.9225000e+01	  -4.9731217e-01	  -1.8796221e-01	
   4.9280000e+01	  -4.9902518e-01	  -1.8720162e-01	
   4.9335000e+01	  -4.9997962e-01	  -1.8660066e-01	
   4.9390000e+01	  -5.0011569e-01	  -1.8611385e-01	
   4.9445000e+01	  -4.9937528e-01	  -1.8569633e-01	
   4.9500000e+01	  -4.9770601e-01	  -1.8530563e-01	
   4.9555000e+01	  -4.9506693e-01	  -1.8490222e-01	
   4.9610000e+01	  -4.9143483e-01	  -1.8444828e-01	
   4.9665000e+01	  -4.8680898e-01	  -1.8390554e-01	
   4.9720000e+01	  -4.8121281e-01	  -1.8323335e-01	
   4.9775000e+01	  -4.7469291e-01	  -1.8238817e-01	
   4.9830000e+01	  -4.6731639e-01	  -1.8132487e-01	
   4.9885000e+01	  -4.5916738e-01	  -1.7999931e-01	
   4.9940000e+01	  -4.5034379e-01	  -1.7837225e-01	
   4.9995000e+01	  -4.4095518e-01	  -1.7641435e-01	
   5.0050000e+01	  -4.3112104e-01	  -1.7411106e-01	
   5.0105000e+01	  -4.2096836e-01	  -1.7146621e-01	
   5.0160000e+01	  -4.1062819e-01	  -1.6850381e-01	
   5.0215000e+01	  -4.0023201e-01	  -1.6526813e-01	
   5.0270000e+01	  -3.8990873e-01	  -1.6182158e-01	
   5.0325000e+01	  -3.7978257e-01	  -1.5824014e-01	
   5.0380000e+01	  -3.6997137e-01	  -1.5460720e-01	
   5.0435000e+01	  -3.6058466e-01	  -1.5100726e-01	
   5.0490000e+01	  -3.5172055e-01	  -1.4752055e-01	
   5.0545000e+01	  -3.4346153e-01	  -1.4421865e-01	
   5.0600000e+01	  -3.3587029e-01	  -1.4116159e-01	
   5.0655000e+01	  -3.2898707e-01	  -1.3839663e-01	
   5.0710000e+01	  -3.2282902e-01	  -1.3595889e-01	
   5.0765000e+01	  -3.1738985e-01	  -1.3387280e-01	
   5.0820000e+01	  -3.1263873e-01	  -1.3215368e-01	
   5.0875000e+01	  -3.0851985e-01	  -1.3080977e-01	
   5.0930000e+01	  -3.0495505e-01	  -1.2984480e-01	
   5.0985000e+01	  -3.0185029e-01	  -1.2926016e-01	
   5.1040000e+01	  -2.9910472e-01	  -1.2905567e-01	
   5.1095000e+01	  -2.9662045e-01	  -1.2922871e-01	
   5.1150000e+01	  -2.9431139e-01	  -1.2977199e-01	
   5.1205000e+01	  -2.9210944e-01	  -1.3067091e-01	
   5.1260000e+01	  -2.8996745e-01	  -1.3190223e-01	
   5.1315000e+01	  -2.8785937e-01	  -1.3343516e-01	
   5.1370000e+01	  -2.8577850e-01	  -1.3523511e-01	
   5.1425000e+01	  -2.8373405e-01	  -1.3726889e-01	
   5.1480000e+01	  -2.8174631e-01	  -1.3950994e-01	
   5.1535000e+01	  -2.7984146e-01	  -1.4194232e-01	
   5.1590000e+01	  -2.7804716e-01	  -1.4456305e-01	
   5.1645000e+01	  -2.7638926e-01	  -1.4738224e-01	
   5.1700000e+01	  -2.7488880e-01	  -1.5042069e-01	
   5.1755000e+01	  -2.7355957e-01	  -1.5370535e-01	
   5.1810000e+01	  -2.7240690e-01	  -1.5726358e-01	
   5.1865000e+01	  -2.7142718e-01	  -1.6111727e-01	
   5.1920000e+01	  -2.7060684e-01	  -1.6527734e-01	
   5.1975000e+01	  -2.6992101e-01	  -1.6973954e-01	
   5.2030000e+01	  -2.6933422e-01	  -1.7448279e-01	
   5.2085000e+01	  -2.6880428e-01	  -1.7947005e-01	
   5.2140000e+01	  -2.6828803e-01	  -1.8465076e-01	
   5.2195000e+01	  -2.6774630e-01	  -1.8996419e-01	
   5.2250000e+01	  -2.6714717e-01	  -1.9534393e-01	
   5.2305000e+01	  -2.6646881e-01	  -2.0072321e-01	
   5.2360000e+01	  -2.6570282e-01	  -2.0604010e-01	
   5.2415000e+01	  -2.6485836e-01	  -2.1124156e-01	
   5.2470000e+01	  -2.6396653e-01	  -2.1628652e-01	
   5.2525000e+01	  -2.6308399e-01	  -2.2114798e-01	
   5.2580000e+01	  -2.6229420e-01	  -2.2581396e-01	
   5.2635000e+01	  -2.6170447e-01	  -2.3028656e-01	
   5.2690000e+01	  -2.6143924e-01	  -2.3457983e-01	
   5.2745000e+01	  -2.6163092e-01	  -2.3871720e-01	
   5.2800000e+01	  -2.6240938e-01	  -2.4272846e-01	
   5.2855000e+01	  -2.6389048e-01	  -2.4664650e-01	
   5.2910000e+01	  -2.6616500e-01	  -2.5050435e-01	
   5.2965000e+01	  -2.6929014e-01	  -2.5433322e-01	
   5.3020000e+01	  -2.7328541e-01	  -2.5816093e-01	
   5.3075000e+01	  -2.7813279e-01	  -2.6200985e-01	
   5.3130000e+01	  -2.8378014e-01	  -2.6589381e-01	
   5.3185000e+01	  -2.9014641e-01	  -2.6981483e-01	
   5.3240000e+01	  -2.9712653e-01	  -2.7376041e-01	
   5.3295000e+01	  -3.0459575e-01	  -2.7770248e-01	
   5.3350000e+01	  -3.1241445e-01	  -2.8159877e-01	
   5.3405000e+01	  -3.2043467e-01	  -2.8539617e-01	
   5.3460000e+01	  -3.2850742e-01	  -2.8903523e-01	
   5.3515000e+01	  -3.3648917e-01	  -2.9245531e-01	
   5.3570000e+01	  -3.4424731e-01	  -2.9560011e-01	
   5.3625000e+01	  -3.5166469e-01	  -2.9842296e-01	
   5.3680000e+01	  -3.5864280e-01	  -3.0089010e-01	
   5.3735000e+01	  -3.6510255e-01	  -3.0298073e-01	
   5.3790000e+01	  -3.7098312e-01	  -3.0468377e-01	
   5.3845000e+01	  -3.7624038e-01	  -3.0599353e-01	
   5.3900000e+01	  -3.8084549e-01	  -3.0690626e-01	
   5.3955000e+01	  -3.8478271e-01	  -3.0741822e-01	
   5.4010000e+01	  -3.8804597e-01	  -3.0752537e-01	
   5.4065000e+01	  -3.9063552e-01	  -3.0722479e-01	
   5.4120000e+01	  -3.9255529e-01	  -3.0651744e-01	
   5.4175000e+01	  -3.9381008e-01	  -3.0541120e-01	
   5.4230000e+01	  -3.9440259e-01	  -3.0392314e-01	
   5.4285000e+01	  -3.9433194e-01	  -3.0208053e-01	
   5.4340000e+01	  -3.9359379e-01	  -2.9991969e-01	
   5.4395000e+01	  -3.9218073e-01	  -2.9748202e-01	
   5.4450000e+01	  -3.9008261e-01	  -2.9480847e-01	
   5.4505000e+01	  -3.8728820e-01	  -2.9193452e-01	
   5.4560000e+01	  -3.8378794e-01	  -2.8888654e-01	
   5.4615000e+01	  -3.7957664e-01	  -2.8567955e-01	
   5.4670000e+01	  -3.7465521e-01	  -2.8231691e-01	
   5.4725000e+01	  -3.6903224e-01	  -2.7879299e-01	
   5.4780000e+01	  -3.6272576e-01	  -2.7509867e-01	
   5.4835000e+01	  -3.5576469e-01	  -2.7122725e-01	
   5.4890000e+01	  -3.4818937e-01	  -2.6717877e-01	
   5.4945000e+01	  -3.4005229e-01	  -2.6296185e-01	
   5.5000000e+01	  -3.3141921e-01	  -2.5859339e-01	
   5.5055000e+01	  -3.2236942e-01	  -2.5409648e-01	
   5.5110000e+01	  -3.1299351e-01	  -2.4949706e-01	
   5.5165000e+01	  -3.0338925e-01	  -2.4482029e-01	
   5.5220000e+01	  -2.9365679e-01	  -2.4008803e-01	
   5.5275000e+01	  -2.8389356e-01	  -2.3531739e-01	
   5.5330000e+01	  -2.7418856e-01	  -2.3051981e-01	
   5.5385000e+01	  -2.6461728e-01	  -2.2570130e-01	
   5.5440000e+01	  -2.5523935e-01	  -2.2086383e-01	
   5.5495000e+01	  -2.4609951e-01	  -2.1600825e-01	
   5.5550000e+01	  -2.3723104e-01	  -2.1113836e-01	
   5.5605000e+01	  -2.2865989e-01	  -2.0626649e-01	
   5.5660000e+01	  -2.2040800e-01	  -2.0141886e-01	
   5.5715000e+01	  -2.1249422e-01	  -1.9663860e-01	
   5.5770000e+01	  -2.0493278e-01	  -1.9198518e-01	
   5.5825000e+01	  -1.9773177e-01	  -1.8753108e-01	
   5.5880000e+01	  -1.9089381e-01	  -1.8335698e-01	
   5.5935000e+01	  -1.8441894e-01	  -1.7954582e-01	
   5.5990000e+01	  -1.7830809e-01	  -1.7617619e-01	
   5.6045000e+01	  -1.7256616e-01	  -1.7331633e-01	
   5.6100000e+01	  -1.6720495e-01	  -1.7101989e-01	
   5.6155000e+01	  -1.6224520e-01	  -1.6932354e-01	
   5.6210000e+01	  -1.5771650e-01	  -1.6824561e-01	
   5.6265000e+01	  -1.5365481e-01	  -1.6778609e-01	
   5.6320000e+01	  -1.5009837e-01	  -1.6792839e-01	
   5.6375000e+01	  -1.4708280e-01	  -1.6864220e-01	
   5.6430000e+01	  -1.4463594e-01	  -1.6988674e-01	
   5.6485000e+01	  -1.4277368e-01	  -1.7161401e-01	
   5.6540000e+01	  -1.4149820e-01	  -1.7377219e-01	
   5.6595000e+01	  -1.4079905e-01	  -1.7630839e-01	
   5.6650000e+01	  -1.4065620e-01	  -1.7916964e-01	
   5.6705000e+01	  -1.4104378e-01	  -1.8230216e-01	
   5.6760000e+01	  -1.4193330e-01	  -1.8565029e-01	
   5.6815000e+01	  -1.4329586e-01	  -1.8915634e-01	
   5.6870000e+01	  -1.4510359e-01	  -1.9276167e-01	
   5.6925000e+01	  -1.4733022e-01	  -1.9640910e-01	
   5.6980000e+01	  -1.4995110e-01	  -2.0004689e-01	
   5.7035000e+01	  -1.5294266e-01	  -2.0363365e-01	
   5.7090000e+01	  -1.5628111e-01	  -2.0714318e-01	
   5.7145000e+01	  -1.5994078e-01	  -2.1056751e-01	
   5.7200000e+01	  -1.6389284e-01	  -2.1391782e-01	
   5.7255000e+01	  -1.6810496e-01	  -2.1722279e-01	
   5.7310000e+01	  -1.7254143e-01	  -2.2052425e-01	
   5.7365000e+01	  -1.7716302e-01	  -2.2387037e-01	
   5.7420000e+01	  -1.8192687e-01	  -2.2730813e-01	
   5.7475000e+01	  -1.8678695e-01	  -2.3087658e-01	
   5.7530000e+01	  -1.9169444e-01	  -2.3460135e-01	
   5.7585000e+01	  -1.9659710e-01	  -2.3849040e-01	
   5.7640000e+01	  -2.0143791e-01	  -2.4253180e-01	
   5.7695000e+01	  -2.0615419e-01	  -2.4669412e-01	
   5.7750000e+01	  -2.1067826e-01	  -2.5092949e-01	
   5.7805000e+01	  -2.1493901e-01	  -2.5517773e-01	
   5.7860000e+01	  -2.1886427e-01	  -2.5937046e-01	
   5.7915000e+01	  -2.2238338e-01	  -2.6343425e-01	
   5.7970000e+01	  -2.2542923e-01	  -2.6729218e-01	
   5.8025000e+01	  -2.2793882e-01	  -2.7086365e-01	
   5.8080000e+01	  -2.2985308e-01	  -2.7406400e-01	
   5.8135000e+01	  -2.3111717e-01	  -2.7680522e-01	
   5.8190000e+01	  -2.3168196e-01	  -2.7899798e-01	
   5.8245000e+01	  -2.3150715e-01	  -2.8055518e-01	
   5.8300000e+01	  -2.3056578e-01	  -2.8139681e-01	
   5.8355000e+01	  -2.2884887e-01	  -2.8145548e-01	
   5.8410000e+01	  -2.2636856e-01	  -2.8068148e-01	
   5.8465000e+01	  -2.2315830e-01	  -2.7904645e-01	
   5.8520000e+01	  -2.1927057e-01	  -2.7654541e-01	
   5.8575000e+01	  -2.1477330e-01	  -2.7319738e-01	
   5.8630000e+01	  -2.0974612e-01	  -2.6904452e-01	
   5.8685000e+01	  -2.0427615e-01	  -2.6414971e-01	
   5.8740000e+01	  -1.9845226e-01	  -2.5859266e-01	
   5.8795000e+01	  -1.9235822e-01	  -2.5246493e-01	
   5.8850000e+01	  -1.8606621e-01	  -2.4586454e-01	
   5.8905000e+01	  -1.7963143e-01	  -2.3889033e-01	
   5.8960000e+01	  -1.7308798e-01	  -2.3163719e-01	
   5.9015000e+01	  -1.6644686e-01	  -2.2419397e-01	
   5.9070000e+01	  -1.5969645e-01	  -2.1664437e-01	
   5.9125000e+01	  -1.5280444e-01	  -2.0906870e-01	
   5.9180000e+01	  -1.4572012e-01	  -2.0154435e-01	
   5.9235000e+01	  -1.3837686e-01	  -1.9414359e-01	
   5.9290000e+01	  -1.3069546e-01	  -1.8692922e-01	
   5.9345000e+01	  -1.2258933e-01	  -1.7994920e-01	
   5.9400000e+01	  -1.1397151e-01	  -1.7323205e-01	
   5.9455000e+01	  -1.0476239e-01	  -1.6678490e-01	
   5.9510000e+01	  -9.4896108e-02	  -1.6059434e-01	
   5.9565000e+01	  -8.4324148e-02	  -1.5462854e-01	
   5.9620000e+01	  -7.3016397e-02	  -1.4883981e-01	
   5.9675000e+01	  -6.0961086e-02	  -1.4316813e-01	
   5.9730000e+01	  -4.8164358e-02	  -1.3754532e-01	
   5.9785000e+01	  -3.4649336e-02	  -1.3189924e-01	
   5.9840000e+01	  -2.0454036e-02	  -1.2615725e-01	
   5.9895000e+01	  -5.6279354e-03	  -1.2024887e-01	
   5.9950000e+01	   9.7722803e-03	  -1.1410763e-01	
   6.0005000e+01	   2.5687164e-02	  -1.0767184e-01	
   6.0060000e+01	   4.2058580e-02	  -1.0088427e-01	
   6.0115000e+01	   5.8832497e-02	  -9.3692144e-02	
   6.0170000e+01	   7.5959517e-02	  -8.6048281e-02	
   6.0225000e+01	   9.3393420e-02	  -7.7913725e-02	
   6.0280000e+01	   1.1108961e-01	  -6.9260893e-02	
   6.0335000e+01	   1.2900513e-01	  -6.0076839e-02	
   6.0390000e+01	   1.4709979e-01	  -5.0366609e-02	
   6.0445000e+01	   1.6533644e-01	  -4.0156596e-02	
   6.0500000e+01	   1.8367978e-01	  -2.9497189e-02	
   6.0555000e+01	   2.0209402e-01	  -1.8464025e-02	
   6.0610000e+01	   2.2054000e-01	  -7.1573931e-03	
   6.0665000e+01	   2.3897269e-01	   4.3010317e-03	
   6.0720000e+01	   2.5733968e-01	   1.5774929e-02	
   6.0775000e+01	   2.7558107e-01	   2.7122655e-02	
   6.0830000e+01	   2.9362951e-01	   3.8206710e-02	
   6.0885000e+01	   3.1141082e-01	   4.8901432e-02	
   6.0940000e+01	   3.2884643e-01	   5.9098792e-02	
   6.0995000e+01	   3.4585874e-01	   6.8712958e-02	
   6.1050000e+01	   3.6237748e-01	   7.7683633e-02	
   6.1105000e+01	   3.7834415e-01	   8.5977430e-02	
   6.1160000e+01	   3.9371362e-01	   9.3586926e-02	
   6.1215000e+01	   4.0845373e-01	   1.0052748e-01	
   6.1270000e+01	   4.2254404e-01	   1.0683194e-01	
   6.1325000e+01	   4.3597399e-01	   1.1254418e-01	
   6.1380000e+01	   4.4874117e-01	   1.1771297e-01	
   6.1435000e+01	   4.6085079e-01	   1.2238785e-01	
   6.1490000e+01	   4.7231635e-01	   1.2661671e-01	
   6.1545000e+01	   4.8316051e-01	   1.3044467e-01	
   6.1600000e+01	   4.9341530e-01	   1.3391369e-01	
   6.1655000e+01	   5.0312190e-01	   1.3706216e-01	
   6.1710000e+01	   5.1232941e-01	   1.3992372e-01	
   6.1765000e+01	   5.2109207e-01	   1.4252561e-01	
   6.1820000e+01	   5.2946544e-01	   1.4488749e-01	
   6.1875000e+01	   5.3750229e-01	   1.4702104e-01	
   6.1930000e+01	   5.4524875e-01	   1.4892996e-01	
   6.1985000e+01	   5.5274000e-01	   1.5061028e-01	
   6.2040000e+01	   5.5999602e-01	   1.5205173e-01	
   6.2095000e+01	   5.6701846e-01	   1.5324114e-01	
   6.2150000e+01	   5.7379009e-01	   1.5416738e-01	
   6.2205000e+01	   5.8027718e-01	   1.5482679e-01	
   6.2260000e+01	   5.8643396e-01	   1.5522800e-01	
   6.2315000e+01	   5.9220813e-01	   1.5539538e-01	
   6.2370000e+01	   5.9754624e-01	   1.5537044e-01	
   6.2425000e+01	   6.0239826e-01	   1.5521025e-01	
   6.2480000e+01	   6.0672083e-01	   1.5498272e-01	
   6.2535000e+01	   6.1047921e-01	   1.5476024e-01	
   6.2590000e+01	   6.1364882e-01	   1.5461378e-01	
   6.2645000e+01	   6.1621681e-01	   1.5460925e-01	
   6.2700000e+01	   6.1818431e-01	   1.5480635e-01	
   6.2755000e+01	   6.1956922e-01	   1.5525964e-01	
   6.2810000e+01	   6.2040875e-01	   1.5602034e-01	
   6.2865000e+01	   6.2076027e-01	   1.5713748e-01	
   6.2920000e+01	   6.2070003e-01	   1.5865811e-01	
   6.2975000e+01	   6.2032083e-01	   1.6062715e-01	
   6.3030000e+01	   6.1972906e-01	   1.6308659e-01	
   6.3085000e+01	   6.1904065e-01	   1.6607329e-01	
   6.3140000e+01	   6.1837573e-01	   1.6961536e-01	
   6.3195000e+01	   6.1785286e-01	   1.7372789e-01	
   6.3250000e+01	   6.1758418e-01	   1.7840906e-01	
   6.3305000e+01	   6.1767170e-01	   1.8363676e-01	
   6.3360000e+01	   6.1820369e-01	   1.8936635e-01	
   6.3415000e+01	   6.1925022e-01	   1.9553026e-01	
   6.3470000e+01	   6.2085817e-01	   2.0204018e-01	
   6.3525000e+01	   6.2304680e-01	   2.0879062e-01	
   6.3580000e+01	   6.2580505e-01	   2.1566286e-01	
   6.3635000e+01	   6.2909162e-01	   2.2252912e-01	
   6.3690000e+01	   6.3283893e-01	   2.2925773e-01	
   6.3745000e+01	   6.3695993e-01	   2.3571869e-01	
   6.3800000e+01	   6.4135579e-01	   2.4178875e-01	
   6.3855000e+01	   6.4592332e-01	   2.4735516e-01	
   6.3910000e+01	   6.5056202e-01	   2.5231788e-01	
   6.3965000e+01	   6.5517943e-01	   2.5658947e-01	
   6.4020000e+01	   6.5969275e-01	   2.6009317e-01	
   6.4075000e+01	   6.6402685e-01	   2.6276090e-01	
   6.4130000e+01	   6.6810986e-01	   2.6453265e-01	
   6.4185000e+01	   6.7186876e-01	   2.6535720e-01	
   6.4240000e+01	   6.7522691e-01	   2.6519415e-01	
   6.4295000e+01	   6.7810530e-01	   2.6401733e-01	
   6.4350000e+01	   6.8042743e-01	   2.6181941e-01	
   6.4405000e+01	   6.8212543e-01	   2.5861628e-01	
   6.4460000e+01	   6.8314486e-01	   2.5444913e-01	
   6.4515000e+01	   6.8344662e-01	   2.4938311e-01	
   6.4570000e+01	   6.8300634e-01	   2.4350266e-01	
   6.4625000e+01	   6.8181169e-01	   2.3690401e-01	
   6.4680000e+01	   6.7985797e-01	   2.2968597e-01	
   6.4735000e+01	   6.7714341e-01	   2.2194120e-01	
   6.4790000e+01	   6.7366631e-01	   2.1375026e-01	
   6.4845000e+01	   6.6942488e-01	   2.0517948e-01	
   6.4900000e+01	   6.6441858e-01	   1.9628216e-01	
   6.4955000e+01	   6.5864956e-01	   1.8710242e-01	
   6.5010000e+01	   6.5212438e-01	   1.7768049e-01	
   6.5065000e+01	   6.4485557e-01	   1.6805797e-01	
   6.5120000e+01	   6.3686327e-01	   1.5828184e-01	
   6.5175000e+01	   6.2817731e-01	   1.4840703e-01	
   6.5230000e+01	   6.1884019e-01	   1.3849795e-01	
   6.5285000e+01	   6.0890976e-01	   1.2862890e-01	
   6.5340000e+01	   5.9845974e-01	   1.1888242e-01	
   6.5395000e+01	   5.8757690e-01	   1.0934537e-01	
   6.5450000e+01	   5.7635535e-01	   1.0010336e-01	
   6.5505000e+01	   5.6489000e-01	   9.1235581e-02	
   6.5560000e+01	   5.5327132e-01	   8.2812203e-02	
   6.5615000e+01	   5.4158253e-01	   7.4894818e-02	
   6.5670000e+01	   5.2989871e-01	   6.7539053e-02	
   6.5725000e+01	   5.1828624e-01	   6.0797312e-02	
   6.5780000e+01	   5.0680230e-01	   5.4720045e-02	
   6.5835000e+01	   4.9549419e-01	   4.9354843e-02	
   6.5890000e+01	   4.8439880e-01	   4.4743559e-02	
   6.5945000e+01	   4.7354176e-01	   4.0918413e-02	
   6.6000000e+01	   4.6293678e-01	   3.7898267e-02	
   6.6055000e+01	   4.5258588e-01	   3.5685939e-02	
   6.6110000e+01	   4.4248116e-01	   3.4267100e-02	
   6.6165000e+01	   4.3260750e-01	   3.3611142e-02	
   6.6220000e+01	   4.2294507e-01	   3.3673940e-02	
   6.6275000e+01	   4.1347116e-01	   3.4401730e-02	
   6.6330000e+01	   4.0416243e-01	   3.5735659e-02	
   6.6385000e+01	   3.9499836e-01	   3.7616638e-02	
   6.6440000e+01	   3.8596470e-01	   3.9989282e-02	
   6.6495000e+01	   3.7705557e-01	   4.2803694e-02	
   6.6550000e+01	   3.6827515e-01	   4.6015313e-02	
   6.6605000e+01	   3.5963987e-01	   4.9583787e-02	
   6.6660000e+01	   3.5118012e-01	   5.3471195e-02	
   6.6715000e+01	   3.4293970e-01	   5.7639980e-02	
   6.6770000e+01	   3.3497294e-01	   6.2051836e-02	
   6.6825000e+01	   3.2734103e-01	   6.6668758e-02	
   6.6880000e+01	   3.2010800e-01	   7.1455973e-02	
   6.6935000e+01	   3.1333640e-01	   7.6385258e-02	
   6.6990000e+01	   3.0708282e-01	   8.1437429e-02	
   6.7045000e+01	   3.0139492e-01	   8.6603684e-02	
   6.7100000e+01	   2.9631082e-01	   9.1885788e-02	
   6.7155000e+01	   2.9185970e-01	   9.7294826e-02	
   6.7210000e+01	   2.8806160e-01	   1.0284846e-01	
   6.7265000e+01	   2.8492591e-01	   1.0856701e-01	
   6.7320000e+01	   2.8244943e-01	   1.1446885e-01	
   6.7375000e+01	   2.8061508e-01	   1.2056594e-01	
   6.7430000e+01	   2.7939144e-01	   1.2686100e-01	
   6.7485000e+01	   2.7873354e-01	   1.3334780e-01	
   6.7540000e+01	   2.7858467e-01	   1.4001426e-01	
   6.7595000e+01	   2.7887899e-01	   1.4684659e-01	
   6.7650000e+01	   2.7954450e-01	   1.5383269e-01	
   6.7705000e+01	   2.8050585e-01	   1.6096406e-01	
   6.7760000e+01	   2.8168664e-01	   1.6823561e-01	
   6.7815000e+01	   2.8301127e-01	   1.7564329e-01	
   6.7870000e+01	   2.8440705e-01	   1.8317983e-01	
   6.7925000e+01	   2.8580711e-01	   1.9083040e-01	
   6.7980000e+01	   2.8715379e-01	   1.9856945e-01	
   6.8035000e+01	   2.8840119e-01	   2.0635914e-01	
   6.8090000e+01	   2.8951642e-01	   2.1414959e-01	
   6.8145000e+01	   2.9047976e-01	   2.2188149e-01	
   6.8200000e+01	   2.9128498e-01	   2.2949116e-01	
   6.8255000e+01	   2.9193930e-01	   2.3691660e-01	
   6.8310000e+01	   2.9246260e-01	   2.4410290e-01	
   6.8365000e+01	   2.9288566e-01	   2.5100650e-01	
   6.8420000e+01	   2.9324802e-01	   2.5759811e-01	
   6.8475000e+01	   2.9359528e-01	   2.6386339e-01	
   6.8530000e+01	   2.9397556e-01	   2.6980139e-01	
   6.8585000e+01	   2.9443576e-01	   2.7542211e-01	
   6.8640000e+01	   2.9501843e-01	   2.8074458e-01	
   6.8695000e+01	   2.9575966e-01	   2.8579523e-01	
   6.8750000e+01	   2.9668847e-01	   2.9060630e-01	
   6.8805000e+01	   2.9782751e-01	   2.9521441e-01	
   6.8860000e+01	   2.9919521e-01	   2.9965998e-01	
   6.8915000e+01	   3.0080844e-01	   3.0398750e-01	
   6.8970000e+01	   3.0268465e-01	   3.0824592e-01	
   6.9025000e+01	   3.0484249e-01	   3.1248874e-01	
   6.9080000e+01	   3.0730034e-01	   3.1677287e-01	
   6.9135000e+01	   3.1007351e-01	   3.2115571e-01	
   6.9190000e+01	   3.1317090e-01	   3.2569058e-01	
   6.9245000e+01	   3.1659136e-01	   3.3042093e-01	
   6.9300000e+01	   3.2031976e-01	   3.3537473e-01	
   6.9355000e+01	   3.2432325e-01	   3.4055994e-01	
   6.9410000e+01	   3.2854831e-01	   3.4596242e-01	
   6.9465000e+01	   3.3291996e-01	   3.5154730e-01	
   6.9520000e+01	   3.3734476e-01	   3.5726367e-01	
   6.9575000e+01	   3.4171723e-01	   3.6305089e-01	
   6.9630000e+01	   3.4592687e-01	   3.6884414e-01	
   6.9685000e+01	   3.4986365e-01	   3.7457801e-01	
   6.9740000e+01	   3.5342158e-01	   3.8018915e-01	
   6.9795000e+01	   3.5650145e-01	   3.8561890e-01	
   6.9850000e+01	   3.5901288e-01	   3.9081529e-01	
   6.9905000e+01	   3.6087598e-01	   3.9573336e-01	
   6.9960000e+01	   3.6202247e-01	   4.0033414e-01	
   7.0015000e+01	   3.6239648e-01	   4.0458334e-01	
   7.0070000e+01	   3.6195518e-01	   4.0845077e-01	
   7.0125000e+01	   3.6067038e-01	   4.1191139e-01	
   7.0180000e+01	   3.5853195e-01	   4.1494800e-01	
   7.0235000e+01	   3.5555206e-01	   4.1755499e-01	
   7.0290000e+01	   3.5176823e-01	   4.1974149e-01	
   7.0345000e+01	   3.4724381e-01	   4.2153285e-01	
   7.0400000e+01	   3.4206623e-01	   4.2296969e-01	
   7.0455000e+01	   3.3634411e-01	   4.2410478e-01	
   7.0510000e+01	   3.3020370e-01	   4.2499776e-01	
   7.0565000e+01	   3.2378368e-01	   4.2570896e-01	
   7.0620000e+01	   3.1722801e-01	   4.2629366e-01	
   7.0675000e+01	   3.1067827e-01	   4.2679827e-01	
   7.0730000e+01	   3.0426771e-01	   4.2725912e-01	
   7.0785000e+01	   2.9811828e-01	   4.2770348e-01	
   7.0840000e+01	   2.9233993e-01	   4.2815265e-01	
   7.0895000e+01	   2.8703143e-01	   4.2862595e-01	
   7.0950000e+01	   2.8228169e-01	   4.2914454e-01	
   7.1005000e+01	   2.7817074e-01	   4.2973380e-01	
   7.1060000e+01	   2.7476988e-01	   4.3042343e-01	
   7.1115000e+01	   2.7214049e-01	   4.3124513e-01	
   7.1170000e+01	   2.7033152e-01	   4.3222810e-01	
   7.1225000e+01	   2.6937667e-01	   4.3339369e-01	
   7.1280000e+01	   2.6929231e-01	   4.3475034e-01	
   7.1335000e+01	   2.7007596e-01	   4.3628975e-01	
   7.1390000e+01	   2.7170410e-01	   4.3798442e-01	
   7.1445000e+01	   2.7412876e-01	   4.3978701e-01	
   7.1500000e+01	   2.7727447e-01	   4.4163195e-01	
   7.1555000e+01	   2.8103785e-01	   4.4343948e-01	
   7.1610000e+01	   2.8529032e-01	   4.4512138e-01	
   7.1665000e+01	   2.8988297e-01	   4.4658721e-01	
   7.1720000e+01	   2.9465224e-01	   4.4774964e-01	
   7.1775000e+01	   2.9942595e-01	   4.4852851e-01	
   7.1830000e+01	   3.0402947e-01	   4.4885303e-01	
   7.1885000e+01	   3.0829113e-01	   4.4866193e-01	
   7.1940000e+01	   3.1204709e-01	   4.4790187e-01	
   7.1995000e+01	   3.1514716e-01	   4.4652591e-01	
   7.2050000e+01	   3.1746161e-01	   4.4449313e-01	
   7.2105000e+01	   3.1888730e-01	   4.4176993e-01	
   7.2160000e+01	   3.1935142e-01	   4.3833282e-01	
   7.2215000e+01	   3.1881303e-01	   4.3417224e-01	
   7.2270000e+01	   3.1726312e-01	   4.2929626e-01	
   7.2325000e+01	   3.1472304e-01	   4.2373285e-01	
   7.2380000e+01	   3.1124115e-01	   4.1753086e-01	
   7.2435000e+01	   3.0688862e-01	   4.1076053e-01	
   7.2490000e+01	   3.0175449e-01	   4.0351383e-01	
   7.2545000e+01	   2.9594030e-01	   3.9590338e-01	
   7.2600000e+01	   2.8955402e-01	   3.8805883e-01	
   7.2655000e+01	   2.8270438e-01	   3.8012090e-01	
   7.2710000e+01	   2.7549561e-01	   3.7223332e-01	
   7.2765000e+01	   2.6802259e-01	   3.6453385e-01	
   7.2820000e+01	   2.6036632e-01	   3.5714540e-01	
   7.2875000e+01	   2.5259112e-01	   3.5016943e-01	
   7.2930000e+01	   2.4474340e-01	   3.4368300e-01	
   7.2985000e+01	   2.3685164e-01	   3.3773937e-01	
   7.3040000e+01	   2.2892746e-01	   3.3237084e-01	
   7.3095000e+01	   2.2096821e-01	   3.2759222e-01	
   7.3150000e+01	   2.1296161e-01	   3.2340425e-01	
   7.3205000e+01	   2.0489169e-01	   3.1979648e-01	
   7.3260000e+01	   1.9674449e-01	   3.1674944e-01	
   7.3315000e+01	   1.8851200e-01	   3.1423547e-01	
   7.3370000e+01	   1.8019375e-01	   3.1221868e-01	
   7.3425000e+01	   1.7179587e-01	   3.1065418e-01	
   7.3480000e+01	   1.6332824e-01	   3.0948745e-01	
   7.3535000e+01	   1.5480157e-01	   3.0865448e-01	
   7.3590000e+01	   1.4622590e-01	   3.0808387e-01	
   7.3645000e+01	   1.3761144e-01	   3.0770027e-01	
   7.3700000e+01	   1.2897016e-01	   3.0742792e-01	
   7.3755000e+01	   1.2031714e-01	   3.0719345e-01	
   7.3810000e+01	   1.1167126e-01	   3.0692835e-01	
   7.3865000e+01	   1.0305578e-01	   3.0657170e-01	
   7.3920000e+01	   9.4498154e-02	   3.0607255e-01	
   7.3975000e+01	   8.6028413e-02	   3.0539073e-01	
   7.4030000e+01	   7.7676238e-02	   3.0449529e-01	
   7.4085000e+01	   6.9467829e-02	   3.0336123e-01	
   7.4140000e+01	   6.1423194e-02	   3.0196608e-01	
   7.4195000e+01	   5.3554298e-02	   3.0028822e-01	
   7.4250000e+01	   4.5864973e-02	   2.9830831e-01	
   7.4305000e+01	   3.8353005e-02	   2.9601336e-01	
   7.4360000e+01	   3.1013086e-02	   2.9340105e-01	
   7.4415000e+01	   2.3838556e-02	   2.9048285e-01	
   7.4470000e+01	   1.6821262e-02	   2.8728518e-01	
   7.4525000e+01	   9.9504386e-03	   2.8384861e-01	
   7.4580000e+01	   3.2120247e-03	   2.8022480e-01	
   7.4635000e+01	  -3.4107703e-03	   2.7647135e-01	
   7.4690000e+01	  -9.9359052e-03	   2.7264539e-01	
   7.4745000e+01	  -1.6380621e-02	   2.6879738e-01	
   7.4800000e+01	  -2.2759369e-02	   2.6496594e-01	
   7.4855000e+01	  -2.9081596e-02	   2.6117424e-01	
   7.4910000e+01	  -3.5350066e-02	   2.5742900e-01	
   7.4965000e+01	  -4.1560450e-02	   2.5372316e-01	
   7.5020000e+01	  -4.7702469e-02	   2.5004158e-01	
   7.5075000e+01	  -5.3762509e-02	   2.4636809e-01	
   7.5130000e+01	  -5.9726939e-02	   2.4269195e-01	
   7.5185000e+01	  -6.5584395e-02	   2.3901252e-01	
   7.5240000e+01	  -7.1326025e-02	   2.3534155e-01	
   7.5295000e+01	  -7.6944619e-02	   2.3170254e-01	
   7.5350000e+01	  -8.2433893e-02	   2.2812755e-01	
   7.5405000e+01	  -8.7788084e-02	   2.2465244e-01	
   7.5460000e+01	  -9.3001465e-02	   2.2131131e-01	
   7.5515000e+01	  -9.8067610e-02	   2.1813146e-01	
   7.5570000e+01	  -1.0297835e-01	   2.1513013e-01	
   7.5625000e+01	  -1.0772261e-01	   2.1231409e-01	
   7.5680000e+01	  -1.1228618e-01	   2.0968156e-01	
   7.5735000e+01	  -1.1665293e-01	   2.0722490e-01	
   7.5790000e+01	  -1.2080641e-01	   2.0493322e-01	
   7.5845000e+01	  -1.2472982e-01	   2.0279485e-01	
   7.5900000e+01	  -1.2840453e-01	   2.0079952e-01	
   7.5955000e+01	  -1.3180921e-01	   1.9893903e-01	
   7.6010000e+01	  -1.3492157e-01	   1.9720592e-01	
   7.6065000e+01	  -1.3772257e-01	   1.9559046e-01	
   7.6120000e+01	  -1.4020075e-01	   1.9407702e-01	
   7.6175000e+01	  -1.4235450e-01	   1.9264098e-01	
   7.6230000e+01	  -1.4419165e-01	   1.9124757e-01	
   7.6285000e+01	  -1.4572718e-01	   1.8985368e-01	
   7.6340000e+01	  -1.4698049e-01	   1.8841289e-01	
   7.6395000e+01	  -1.4797413e-01	   1.8688200e-01	
   7.6450000e+01	  -1.4873447e-01	   1.8522707e-01	
   7.6505000e+01	  -1.4929360e-01	   1.8342753e-01	
   7.6560000e+01	  -1.4969118e-01	   1.8147845e-01	
   7.6615000e+01	  -1.4997576e-01	   1.7939092e-01	
   7.6670000e+01	  -1.5020581e-01	   1.7719060e-01	
   7.6725000e+01	  -1.5044993e-01	   1.7491434e-01	
   7.6780000e+01	  -1.5078568e-01	   1.7260530e-01	
   7.6835000e+01	  -1.5129683e-01	   1.7030755e-01	
   7.6890000e+01	  -1.5206943e-01	   1.6806098e-01	
   7.6945000e+01	  -1.5318641e-01	   1.6589809e-01	
   7.7000000e+01	  -1.5472163e-01	   1.6384372e-01	
   7.7055000e+01	  -1.5673541e-01	   1.6191690e-01	
   7.7110000e+01	  -1.5927327e-01	   1.6013344e-01	
   7.7165000e+01	  -1.6236688e-01	   1.5850757e-01	
   7.7220000e+01	  -1.6603427e-01	   1.5705255e-01	
   7.7275000e+01	  -1.7027764e-01	   1.5578037e-01	
   7.7330000e+01	  -1.7507977e-01	   1.5470033e-01	
   7.7385000e+01	  -1.8040135e-01	   1.5381654e-01	
   7.7440000e+01	  -1.8617991e-01	   1.5312481e-01	
   7.7495000e+01	  -1.9233126e-01	   1.5261012e-01	
   7.7550000e+01	  -1.9875390e-01	   1.5224499e-01	
   7.7605000e+01	  -2.0533611e-01	   1.5198985e-01	
   7.7660000e+01	  -2.1196268e-01	   1.5179606e-01	
   7.7715000e+01	  -2.1851881e-01	   1.5161118e-01	
   7.7770000e+01	  -2.2489098e-01	   1.5138425e-01	
   7.7825000e+01	  -2.3096646e-01	   1.5107011e-01	
   7.7880000e+01	  -2.3663325e-01	   1.5063266e-01	
   7.7935000e+01	  -2.4178110e-01	   1.5004720e-01	
   7.7990000e+01	  -2.4630352e-01	   1.4930135e-01	
   7.8045000e+01	  -2.5010039e-01	   1.4839464e-01	
   7.8100000e+01	  -2.5308037e-01	   1.4733680e-01	
   7.8155000e+01	  -2.5516292e-01	   1.4614569e-01	
   7.8210000e+01	  -2.5628035e-01	   1.4484553e-01	
   7.8265000e+01	  -2.5638013e-01	   1.4346646e-01	
   7.8320000e+01	  -2.5542727e-01	   1.4204552e-01	
   7.8375000e+01	  -2.5340585e-01	   1.4062790e-01	
   7.8430000e+01	  -2.5031963e-01	   1.3926725e-01	
   7.8485000e+01	  -2.4619225e-01	   1.3802439e-01	
   7.8540000e+01	  -2.4106767e-01	   1.3696458e-01	
   7.8595000e+01	  -2.3500980e-01	   1.3615366e-01	
   7.8650000e+01	  -2.2810045e-01	   1.3565323e-01	
   7.8705000e+01	  -2.2043551e-01	   1.3551464e-01	
   7.8760000e+01	  -2.1212100e-01	   1.3577266e-01	
   7.8815000e+01	  -2.0326989e-01	   1.3644060e-01	
   7.8870000e+01	  -1.9399953e-01	   1.3750786e-01	
   7.8925000e+01	  -1.8442916e-01	   1.3894036e-01	
   7.8980000e+01	  -1.7467654e-01	   1.4068410e-01	
   7.9035000e+01	  -1.6485350e-01	   1.4267165e-01	
   7.9090000e+01	  -1.5506185e-01	   1.4483012e-01	
   7.9145000e+01	  -1.4539092e-01	   1.4708802e-01	
   7.9200000e+01	  -1.3591653e-01	   1.4938026e-01	
   7.9255000e+01	  -1.2670025e-01	   1.5165137e-01	
   7.9310000e+01	  -1.1778893e-01	   1.5385699e-01	
   7.9365000e+01	  -1.0921512e-01	   1.5596306e-01	
   7.9420000e+01	  -1.0099873e-01	   1.5794243e-01	
   7.9475000e+01	  -9.3149233e-02	   1.5976983e-01	
   7.9530000e+01	  -8.5668083e-02	   1.6141670e-01	
   7.9585000e+01	  -7.8550899e-02	   1.6284730e-01	
   7.9640000e+01	  -7.1789063e-02	   1.6401737e-01	
   7.9695000e+01	  -6.5370932e-02	   1.6487598e-01	
   7.9750000e+01	  -5.9282442e-02	   1.6537057e-01	
   7.9805000e+01	  -5.3506681e-02	   1.6545373e-01	
   7.9860000e+01	  -4.8022827e-02	   1.6508979e-01	
   7.9915000e+01	  -4.2805729e-02	   1.6425953e-01	
   7.9970000e+01	  -3.7827128e-02	   1.6296250e-01	
   8.0025000e+01	  -3.3058201e-02	   1.6121723e-01	
   8.0080000e+01	  -2.8472533e-02	   1.5905943e-01	
   8.0135000e+01	  -2.4048855e-02	   1.5653902e-01	
   8.0190000e+01	  -1.9773148e-02	   1.5371619e-01	
   8.0245000e+01	  -1.5639631e-02	   1.5065697e-01	
   8.0300000e+01	  -1.1650490e-02	   1.4742875e-01	
   8.0355000e+01	  -7.8149339e-03	   1.4409690e-01	
   8.0410000e+01	  -4.1490288e-03	   1.4072248e-01	
   8.0465000e+01	  -6.7731624e-04	   1.3736053e-01	
   8.0520000e+01	   2.5648930e-03	   1.3405832e-01	
   8.0575000e+01	   5.5310631e-03	   1.3085382e-01	
   8.0630000e+01	   8.1663832e-03	   1.2777513e-01	
   8.0685000e+01	   1.0413535e-02	   1.2483999e-01	
   8.0740000e+01	   1.2219470e-02	   1.2205520e-01	
   8.0795000e+01	   1.3541478e-02	   1.1941597e-01	
   8.0850000e+01	   1.4351281e-02	   1.1690631e-01	
   8.0905000e+01	   1.4636644e-02	   1.1450091e-01	
   8.0960000e+01	   1.4400977e-02	   1.1216850e-01	
   8.1015000e+01	   1.3662012e-02	   1.0987650e-01	
   8.1070000e+01	   1.2450226e-02	   1.0759668e-01	
   8.1125000e+01	   1.0806951e-02	   1.0531009e-01	
   8.1180000e+01	   8.7820908e-03	   1.0300946e-01	
   8.1235000e+01	   6.4320663e-03	   1.0069936e-01	
   8.1290000e+01	   3.8189144e-03	   9.8395007e-02	
   8.1345000e+01	   1.0103323e-03	   9.6120165e-02	
   8.1400000e+01	  -1.9208151e-03	   9.3903779e-02	
   8.1455000e+01	  -4.8983500e-03	   9.1775059e-02	
   8.1510000e+01	  -7.8450847e-03	   8.9758226e-02	
   8.1565000e+01	  -1.0684486e-02	   8.7868260e-02	
   8.1620000e+01	  -1.3341909e-02	   8.6108740e-02	
   8.1675000e+01	  -1.5746405e-02	   8.4472543e-02	
   8.1730000e+01	  -1.7833842e-02	   8.2945330e-02	
   8.1785000e+01	  -1.9551169e-02	   8.1510495e-02	
   8.1840000e+01	  -2.0860381e-02	   8.0153769e-02	
   8.1895000e+01	  -2.1740416e-02	   7.8866528e-02	
   8.1950000e+01	  -2.2186461e-02	   7.7647750e-02	
   8.2005000e+01	  -2.2207690e-02	   7.6504374e-02	
   8.2060000e+01	  -2.1825063e-02	   7.5449098e-02	
   8.2115000e+01	  -2.1070045e-02	   7.4495473e-02	
   8.2170000e+01	  -1.9983318e-02	   7.3651998e-02	
   8.2225000e+01	  -1.8611321e-02	   7.2917384e-02	
   8.2280000e+01	  -1.6999988e-02	   7.2277950e-02	
   8.2335000e+01	  -1.5187618e-02	   7.1707582e-02	
   8.2390000e+01	  -1.3199229e-02	   7.1170522e-02	
   8.2445000e+01	  -1.1043485e-02	   7.0626021e-02	
   8.2500000e+01	  -8.7122646e-03	   7.0032707e-02	
   8.2555000e+01	  -6.1824032e-03	   6.9351397e-02	
   8.2610000e+01	  -3.4185517e-03	   6.8546748e-02	
   8.2665000e+01	  -3.7588467e-04	   6.7588554e-02	
   8.2720000e+01	   2.9977980e-03	   6.6452507e-02	
   8.2775000e+01	   6.7598359e-03	   6.5119794e-02	
   8.2830000e+01	   1.0969012e-02	   6.3575354e-02	
   8.2885000e+01	   1.5679578e-02	   6.1805167e-02	
   8.2940000e+01	   2.0933660e-02	   5.9793259e-02	
   8.2995000e+01	   2.6754305e-02	   5.7519750e-02	
   8.3050000e+01	   3.3141677e-02	   5.4961588e-02	
   8.3105000e+01	   4.0073202e-02	   5.2096451e-02	
   8.3160000e+01	   4.7506464e-02	   4.8908331e-02	
   8.3215000e+01	   5.5383127e-02	   4.5392673e-02	
   8.3270000e+01	   6.3632996e-02	   4.1560025e-02	
   8.3325000e+01	   7.2177928e-02	   3.7438318e-02	
   8.3380000e+01	   8.0934949e-02	   3.3073570e-02	
   8.3435000e+01	   8.9817387e-02	   2.8527980e-02	
   8.3490000e+01	   9.8733503e-02	   2.3875012e-02	
   8.3545000e+01	   1.0758377e-01	   1.9192878e-02	
   8.3600000e+01	   1.1625841e-01	   1.4558135e-02	
   8.3655000e+01	   1.2463605e-01	   1.0040016e-02	
   8.3710000e+01	   1.3258457e-01	   5.6963165e-03	
   8.3765000e+01	   1.3996548e-01	   1.5722597e-03	
   8.3820000e+01	   1.4664192e-01	  -2.2975032e-03	
   8.3875000e+01	   1.5248832e-01	  -5.8855418e-03	
   8.3930000e+01	   1.5739970e-01	  -9.1684982e-03	
   8.3985000e+01	   1.6129951e-01	  -1.2124509e-02	
   8.4040000e+01	   1.6414468e-01	  -1.4731706e-02	
   8.4095000e+01	   1.6592672e-01	  -1.6968908e-02	
   8.4150000e+01	   1.6666899e-01	  -1.8818645e-02	
   8.4205000e+01	   1.6642192e-01	  -2.0270813e-02	
   8.4260000e+01	   1.6525727e-01	  -2.1325127e-02	
   8.4315000e+01	   1.6326158e-01	  -2.1991935e-02	
   8.4370000e+01	   1.6052928e-01	  -2.2291686e-02	
   8.4425000e+01	   1.5715639e-01	  -2.2253220e-02	
   8.4480000e+01	   1.5323627e-01	  -2.1911165e-02	
   8.4535000e+01	   1.4885786e-01	  -2.1303248e-02	
   8.4590000e+01	   1.4410586e-01	  -2.0468081e-02	
   8.4645000e+01	   1.3906219e-01	  -1.9443299e-02	
   8.4700000e+01	   1.3380848e-01	  -1.8263834e-02	
   8.4755000e+01	   1.2842878e-01	  -1.6960551e-02	
   8.4810000e+01	   1.2301179e-01	  -1.5559555e-02	
   8.4865000e+01	   1.1765200e-01	  -1.4082026e-02	
   8.4920000e+01	   1.1245017e-01	  -1.2544293e-02	
   8.4975000e+01	   1.0751250e-01	  -1.0957929e-02	
   8.5030000e+01	   1.0294776e-01	  -9.3296148e-03	
   8.5085000e+01	   9.8863101e-02	  -7.6604412e-03	
   8.5140000e+01	   9.5359642e-02	  -5.9447267e-03	
   8.5195000e+01	   9.2528635e-02	  -4.1689660e-03	
   8.5250000e+01	   9.0447570e-02	  -2.3116363e-03	
   8.5305000e+01	   8.9176228e-02	  -3.4422978e-04	
   8.5360000e+01	   8.8753641e-02	   1.7666532e-03	
   8.5415000e+01	   8.9197066e-02	   4.0564954e-03	
   8.5470000e+01	   9.0502696e-02	   6.5594646e-03	
   8.5525000e+01	   9.2647180e-02	   9.3046693e-03	
   8.5580000e+01	   9.5590006e-02	   1.2312919e-02	
   8.5635000e+01	   9.9277198e-02	   1.5594884e-02	
   8.5690000e+01	   1.0364543e-01	   1.9150766e-02	
   8.5745000e+01	   1.0862483e-01	   2.2971048e-02	
   8.5800000e+01	   1.1413993e-01	   2.7038133e-02	
   8.5855000e+01	   1.2010942e-01	   3.1328369e-02	
   8.5910000e+01	   1.2644474e-01	   3.5813236e-02	
   8.5965000e+01	   1.3304798e-01	   4.0458797e-02	
   8.6020000e+01	   1.3981068e-01	   4.5224122e-02	
   8.6075000e+01	   1.4661503e-01	   5.0060046e-02	
   8.6130000e+01	   1.5333759e-01	   5.4908642e-02	
   8.6185000e+01	   1.5985470e-01	   5.9703097e-02	
   8.6240000e+01	   1.6604845e-01	   6.4368190e-02	
   8.6295000e+01	   1.7181207e-01	   6.8822047e-02	
   8.6350000e+01	   1.7705463e-01	   7.2979716e-02	
   8.6405000e+01	   1.8170548e-01	   7.6758768e-02	
   8.6460000e+01	   1.8571902e-01	   8.0086339e-02	
   8.6515000e+01	   1.8907953e-01	   8.2905966e-02	
   8.6570000e+01	   1.9180422e-01	   8.5182248e-02	
   8.6625000e+01	   1.9394276e-01	   8.6902196e-02	
   8.6680000e+01	   1.9557330e-01	   8.8073357e-02	
   8.6735000e+01	   1.9679666e-01	   8.8719751e-02	
   8.6790000e+01	   1.9772999e-01	   8.8876928e-02	
   8.6845000e+01	   1.9849998e-01	   8.8587259e-02	
   8.6900000e+01	   1.9923571e-01	   8.7896291e-02	
   8.6955000e+01	   2.0006153e-01	   8.6850754e-02	
   8.7010000e+01	   2.0109062e-01	   8.5498084e-02	
   8.7065000e+01	   2.0241966e-01	   8.3886801e-02	
   8.7120000e+01	   2.0412521e-01	   8.2067251e-02	
   8.7175000e+01	   2.0626204e-01	   8.0092646e-02	
   8.7230000e+01	   2.0886322e-01	   7.8020012e-02	
   8.7285000e+01	   2.1194107e-01	   7.5910100e-02	
   8.7340000e+01	   2.1548858e-01	   7.3825584e-02	
   8.7395000e+01	   2.1948089e-01	   7.1827872e-02	
   8.7450000e+01	   2.2387724e-01	   6.9973279e-02	
   8.7505000e+01	   2.2862305e-01	   6.8309023e-02	
   8.7560000e+01	   2.3365149e-01	   6.6869458e-02	
   8.7615000e+01	   2.3888458e-01	   6.5673418e-02	
   8.7670000e+01	   2.4423430e-01	   6.4723494e-02	
   8.7725000e+01	   2.4960462e-01	   6.4007277e-02	
   8.7780000e+01	   2.5489461e-01	   6.3499950e-02	
   8.7835000e+01	   2.6000207e-01	   6.3167610e-02	
   8.7890000e+01	   2.6482757e-01	   6.2970972e-02	
   8.7945000e+01	   2.6927791e-01	   6.2869003e-02	
   8.8000000e+01	   2.7326903e-01	   6.2822026e-02	
   8.8055000e+01	   2.7672905e-01	   6.2794221e-02	
   8.8110000e+01	   2.7960184e-01	   6.2755553e-02	
   8.8165000e+01	   2.8185078e-01	   6.2682773e-02	
   8.8220000e+01	   2.8346185e-01	   6.2559333e-02	
   8.8275000e+01	   2.8444571e-01	   6.2374982e-02	
   8.8330000e+01	   2.8483858e-01	   6.2126184e-02	
   8.8385000e+01	   2.8470118e-01	   6.1817445e-02	
   8.8440000e+01	   2.8411511e-01	   6.1462619e-02	
   8.8495000e+01	   2.8317704e-01	   6.1085196e-02	
   8.8550000e+01	   2.8199231e-01	   6.0716929e-02	
   8.8605000e+01	   2.8067000e-01	   6.0394631e-02	
   8.8660000e+01	   2.7931989e-01	   6.0155823e-02	
   8.8715000e+01	   2.7805059e-01	   6.0034494e-02	
   8.8770000e+01	   2.7696751e-01	   6.0057739e-02	
   8.8825000e+01	   2.7616967e-01	   6.0243253e-02	
   8.8880000e+01	   2.7574438e-01	   6.0597668e-02	
   8.8935000e+01	   2.7576109e-01	   6.1116384e-02	
   8.8990000e+01	   2.7626608e-01	   6.1785458e-02	
   8.9045000e+01	   2.7727977e-01	   6.2584907e-02	
   8.9100000e+01	   2.7879687e-01	   6.3492125e-02	
   8.9155000e+01	   2.8078880e-01	   6.4484731e-02	
   8.9210000e+01	   2.8320702e-01	   6.5542799e-02	
   8.9265000e+01	   2.8598574e-01	   6.6650230e-02	
   8.9320000e+01	   2.8904344e-01	   6.7794736e-02	
   8.9375000e+01	   2.9228451e-01	   6.8966594e-02	
   8.9430000e+01	   2.9560317e-01	   7.0157151e-02	
   8.9485000e+01	   2.9888975e-01	   7.1357901e-02	
   8.9540000e+01	   3.0203760e-01	   7.2559964e-02	
   8.9595000e+01	   3.0494935e-01	   7.3753857e-02	
   8.9650000e+01	   3.0754271e-01	   7.4930095e-02	
   8.9705000e+01	   3.0975524e-01	   7.6080621e-02	
   8.9760000e+01	   3.1154606e-01	   7.7199945e-02	
   8.9815000e+01	   3.1289373e-01	   7.8285109e-02	
   8.9870000e+01	   3.1379161e-01	   7.9334707e-02	
   8.9925000e+01	   3.1424317e-01	   8.0347259e-02	
   8.9980000e+01	   3.1425821e-01	   8.1318625e-02	
   9.0035000e+01	   3.1384961e-01	   8.2238508e-02	
   9.0090000e+01	   3.1303061e-01	   8.3086944e-02	
   9.0145000e+01	   3.1181348e-01	   8.3831496e-02	
   9.0200000e+01	   3.1020945e-01	   8.4425439e-02	
   9.0255000e+01	   3.0822954e-01	   8.4807632e-02	
   9.0310000e+01	   3.0588614e-01	   8.4905223e-02	
   9.0365000e+01	   3.0319553e-01	   8.4639567e-02	
   9.0420000e+01	   3.0018038e-01	   8.3934105e-02	
   9.0475000e+01	   2.9687069e-01	   8.2722006e-02	
   9.0530000e+01	   2.9330326e-01	   8.0952105e-02	
   9.0585000e+01	   2.8952054e-01	   7.8592990e-02	
   9.0640000e+01	   2.8556967e-01	   7.5635216e-02	
   9.0695000e+01	   2.8150115e-01	   7.2091256e-02	
   9.0750000e+01	   2.7736658e-01	   6.7993114e-02	
   9.0805000e+01	   2.7321512e-01	   6.3388085e-02	
   9.0860000e+01	   2.6908869e-01	   5.8332997e-02	
   9.0915000e+01	   2.6501607e-01	   5.2887453e-02	
   9.0970000e+01	   2.6100708e-01	   4.7107746e-02	
   9.1025000e+01	   2.5704856e-01	   4.1043284e-02	
   9.1080000e+01	   2.5310280e-01	   3.4735608e-02	
   9.1135000e+01	   2.4910758e-01	   2.8218484e-02	
   9.1190000e+01	   2.4497722e-01	   2.1517996e-02	
   9.1245000e+01	   2.4060515e-01	   1.4652903e-02	
   9.1300000e+01	   2.3586894e-01	   7.6355631e-03	
   9.1355000e+01	   2.3063687e-01	   4.7302469e-04	
   9.1410000e+01	   2.2477506e-01	  -6.8320163e-03	
   9.1465000e+01	   2.1815483e-01	  -1.4279943e-02	
   9.1520000e+01	   2.1065976e-01	  -2.1872368e-02	
   9.1575000e+01	   2.0219050e-01	  -2.9610083e-02	
   9.1630000e+01	   1.9266697e-01	  -3.7490953e-02	
   9.1685000e+01	   1.8202889e-01	  -4.5507314e-02	
   9.1740000e+01	   1.7023692e-01	  -5.3643216e-02	
   9.1795000e+01	   1.5727440e-01	  -6.1872824e-02	
   9.1850000e+01	   1.4314957e-01	  -7.0160722e-02	
   9.1905000e+01	   1.2789739e-01	  -7.8463527e-02	
   9.1960000e+01	   1.1158067e-01	  -8.6732169e-02	
   9.2015000e+01	   9.4289896e-02	  -9.4914683e-02	
   9.2070000e+01	   7.6141481e-02	  -1.0295912e-01	
   9.2125000e+01	   5.7275029e-02	  -1.1081580e-01	
   9.2180000e+01	   3.7849973e-02	  -1.1843867e-01	
   9.2235000e+01	   1.8041155e-02	  -1.2578633e-01	
   9.2290000e+01	  -1.9671702e-03	  -1.3282321e-01	
   9.2345000e+01	  -2.1988560e-02	  -1.3952031e-01	
   9.2400000e+01	  -4.1841892e-02	  -1.4585458e-01	
   9.2455000e+01	  -6.1358337e-02	  -1.5180743e-01	
   9.2510000e+01	  -8.0387083e-02	  -1.5736352e-01	
   9.2565000e+01	  -9.8799085e-02	  -1.6251072e-01	
   9.2620000e+01	  -1.1648869e-01	  -1.6724105e-01	
   9.2675000e+01	  -1.3337442e-01	  -1.7155251e-01	
   9.2730000e+01	  -1.4940060e-01	  -1.7545192e-01	
   9.2785000e+01	  -1.6453966e-01	  -1.7895752e-01	
   9.2840000e+01	  -1.7879320e-01	  -1.8209954e-01	
   9.2895000e+01	  -1.9219028e-01	  -1.8491775e-01	
   9.2950000e+01	  -2.0478320e-01	  -1.8745650e-01	
   9.3005000e+01	  -2.1664251e-01	  -1.8975851e-01	
   9.3060000e+01	  -2.2785264e-01	  -1.9185801e-01	
   9.3115000e+01	  -2.3850940e-01	  -1.9377550e-01	
   9.3170000e+01	  -2.4871847e-01	  -1.9551580e-01	
   9.3225000e+01	  -2.5859328e-01	  -1.9706937e-01	
   9.3280000e+01	  -2.6825114e-01	  -1.9841569e-01	
   9.3335000e+01	  -2.7780788e-01	  -1.9952762e-01	
   9.3390000e+01	  -2.8737204e-01	  -2.0037692e-01	
   9.3445000e+01	  -2.9703909e-01	  -2.0094026e-01	
   9.3500000e+01	  -3.0688676e-01	  -2.0120441e-01	
   9.3555000e+01	  -3.1697235e-01	  -2.0117020e-01	
   9.3610000e+01	  -3.2733237e-01	  -2.0085414e-01	
   9.3665000e+01	  -3.3798337e-01	  -2.0028650e-01	
   9.3720000e+01	  -3.4892403e-01	  -1.9950574e-01	
   9.3775000e+01	  -3.6013926e-01	  -1.9855115e-01	
   9.3830000e+01	  -3.7160624e-01	  -1.9745683e-01	
   9.3885000e+01	  -3.8330112e-01	  -1.9624878e-01	
   9.3940000e+01	  -3.9520435e-01	  -1.9494570e-01	
   9.3995000e+01	  -4.0730353e-01	  -1.9356277e-01	
   9.4050000e+01	  -4.1959369e-01	  -1.9211746e-01	
   9.4105000e+01	  -4.3207517e-01	  -1.9063558e-01	
   9.4160000e+01	  -4.4474970e-01	  -1.8915587e-01	
   9.4215000e+01	  -4.5761519e-01	  -1.8773174e-01	
   9.4270000e+01	  -4.7065972e-01	  -1.8642896e-01	
   9.4325000e+01	  -4.8385549e-01	  -1.8531922e-01	
   9.4380000e+01	  -4.9715340e-01	  -1.8447080e-01	
   9.4435000e+01	  -5.1047969e-01	  -1.8393878e-01	
   9.4490000e+01	  -5.2373510e-01	  -1.8375743e-01	
   9.4545000e+01	  -5.3679668e-01	  -1.8393655e-01	
   9.4600000e+01	  -5.4952221e-01	  -1.8446234e-01	
   9.4655000e+01	  -5.6175703e-01	  -1.8530190e-01	
   9.4710000e+01	  -5.7334227e-01	  -1.8641003e-01	
   9.4765000e+01	  -5.8412337e-01	  -1.8773694e-01	
   9.4820000e+01	  -5.9395762e-01	  -1.8923556e-01	
   9.4875000e+01	  -6.0272034e-01	  -1.9086657e-01	
   9.4930000e+01	  -6.1031017e-01	  -1.9260066e-01	
   9.4985000e+01	  -6.1665389e-01	  -1.9441836e-01	
   9.5040000e+01	  -6.2170998e-01	  -1.9630795e-01	
   9.5095000e+01	  -6.2546950e-01	  -1.9826193e-01	
   9.5150000e+01	  -6.2795431e-01	  -2.0027322e-01	
   9.5205000e+01	  -6.2921447e-01	  -2.0233216e-01	
   9.5260000e+01	  -6.2932645e-01	  -2.0442504e-01	
   9.5315000e+01	  -6.2839197e-01	  -2.0653384e-01	
   9.5370000e+01	  -6.2653656e-01	  -2.0863749e-01	
   9.5425000e+01	  -6.2390686e-01	  -2.1071483e-01	
   9.5480000e+01	  -6.2066645e-01	  -2.1274850e-01	
   9.5535000e+01	  -6.1699058e-01	  -2.1472842e-01	
   9.5590000e+01	  -6.1305998e-01	  -2.1665400e-01	
   9.5645000e+01	  -6.0905437e-01	  -2.1853481e-01	
   9.5700000e+01	  -6.0514663e-01	  -2.2038971e-01	
   9.5755000e+01	  -6.0149895e-01	  -2.2224474e-01	
   9.5810000e+01	  -5.9826113e-01	  -2.2412998e-01	
   9.5865000e+01	  -5.9557009e-01	  -2.2607622e-01	
   9.5920000e+01	  -5.9354979e-01	  -2.2811189e-01	
   9.5975000e+01	  -5.9231085e-01	  -2.3026059e-01	
   9.6030000e+01	  -5.9195017e-01	  -2.3253983e-01	
   9.6085000e+01	  -5.9255054e-01	  -2.3496132e-01	
   9.6140000e+01	  -5.9418024e-01	  -2.3753314e-01	
   9.6195000e+01	  -5.9689238e-01	  -2.4026276e-01	
   9.6250000e+01	  -6.0072405e-01	  -2.4315971e-01	
   9.6305000e+01	  -6.0569486e-01	  -2.4623627e-01	
   9.6360000e+01	  -6.1180486e-01	  -2.4950558e-01	
   9.6415000e+01	  -6.1903183e-01	  -2.5297707e-01	
   9.6470000e+01	  -6.2732796e-01	  -2.5665067e-01	
   9.6525000e+01	  -6.3661698e-01	  -2.6051168e-01	
   9.6580000e+01	  -6.4679302e-01	  -2.6452814e-01	
   9.6635000e+01	  -6.5772176e-01	  -2.6865068e-01	
   9.6690000e+01	  -6.6924386e-01	  -2.7281445e-01	
   9.6745000e+01	  -6.8118045e-01	  -2.7694281e-01	
   9.6800000e+01	  -6.9334057e-01	  -2.8095288e-01	
   9.6855000e+01	  -7.0552957e-01	  -2.8476158e-01	
   9.6910000e+01	  -7.1755650e-01	  -2.8829052e-01	
   9.6965000e+01	  -7.2923995e-01	  -2.9146914e-01	
   9.7020000e+01	  -7.4041319e-01	  -2.9423614e-01	
   9.7075000e+01	  -7.5092961e-01	  -2.9654005e-01	
   9.7130000e+01	  -7.6066850e-01	  -2.9833945e-01	
   9.7185000e+01	  -7.6953986e-01	  -2.9960382e-01	
   9.7240000e+01	  -7.7748761e-01	  -3.0031547e-01	
   9.7295000e+01	  -7.8449048e-01	  -3.0047191e-01	
   9.7350000e+01	  -7.9056020e-01	  -3.0008784e-01	
   9.7405000e+01	  -7.9573695e-01	  -2.9919576e-01	
   9.7460000e+01	  -8.0008313e-01	  -2.9784510e-01	
   9.7515000e+01	  -8.0367640e-01	  -2.9609939e-01	
   9.7570000e+01	  -8.0660245e-01	  -2.9403157e-01	
   9.7625000e+01	  -8.0894713e-01	  -2.9171783e-01	
   9.7680000e+01	  -8.1078860e-01	  -2.8923182e-01	
   9.7735000e+01	  -8.1219039e-01	  -2.8664004e-01	
   9.7790000e+01	  -8.1319687e-01	  -2.8399881e-01	
   9.7845000e+01	  -8.1383226e-01	  -2.8135266e-01	
   9.7900000e+01	  -8.1410300e-01	  -2.7873429e-01	
   9.7955000e+01	  -8.1400211e-01	  -2.7616614e-01	
   9.8010000e+01	  -8.1351390e-01	  -2.7366314e-01	
   9.8065000e+01	  -8.1261719e-01	  -2.7123560e-01	
   9.8120000e+01	  -8.1128675e-01	  -2.6889091e-01	
   9.8175000e+01	  -8.0949350e-01	  -2.6663354e-01	
   9.8230000e+01	  -8.0720448e-01	  -2.6446315e-01	
   9.8285000e+01	  -8.0438261e-01	  -2.6237205e-01	
   9.8340000e+01	  -8.0098720e-01	  -2.6034323e-01	
   9.8395000e+01	  -7.9697629e-01	  -2.5834989e-01	
   9.8450000e+01	  -7.9231122e-01	  -2.5635589e-01	
   9.8505000e+01	  -7.8696202e-01	  -2.5431672e-01	
   9.8560000e+01	  -7.8091259e-01	  -2.5218139e-01	
   9.8615000e+01	  -7.7416483e-01	  -2.4989590e-01	
   9.8670000e+01	  -7.6674107e-01	  -2.4740809e-01	
   9.8725000e+01	  -7.5868439e-01	  -2.4467296e-01	
   9.8780000e+01	  -7.5005761e-01	  -2.4165717e-01	
   9.8835000e+01	  -7.4094089e-01	  -2.3834227e-01	
   9.8890000e+01	  -7.3142732e-01	  -2.3472587e-01	
   9.8945000e+01	  -7.2161645e-01	  -2.3082026e-01	
   9.9000000e+01	  -7.1160824e-01	  -2.2664934e-01	
   9.9055000e+01	  -7.0149954e-01	  -2.2224578e-01	
   9.9110000e+01	  -6.9138326e-01	  -2.1764972e-01	
   9.9165000e+01	  -6.8134821e-01	  -2.1290836e-01	
   9.9220000e+01	  -6.7147850e-01	  -2.0807530e-01	
   9.9275000e+01	  -6.6185223e-01	  -2.0320897e-01	
   9.9330000e+01	  -6.5254011e-01	  -1.9837073e-01	
   9.9385000e+01	  -6.4360389e-01	  -1.9362343e-01	
   9.9440000e+01	  -6.3509440e-01	  -1.8903033e-01	
   9.9495000e+01	  -6.2704969e-01	  -1.8465394e-01	
   9.9550000e+01	  -6.1949368e-01	  -1.8055358e-01	
   9.9605000e+01	  -6.1243422e-01	  -1.7678096e-01	
   9.9660000e+01	  -6.0585991e-01	  -1.7337439e-01	
   9.9715000e+01	  -5.9973706e-01	  -1.7035331e-01	
   9.9770000e+01	  -5.9400960e-01	  -1.6771518e-01	
   9.9825000e+01	  -5.8860281e-01	  -1.6543571e-01	
   9.9880000e+01	  -5.8343082e-01	  -1.6347182e-01	
   9.9935000e+01	  -5.7840687e-01	  -1.6176695e-01	
   9.9990000e+01	  -5.7345480e-01	  -1.6025773e-01	
   1.0004500e+02	  -5.6851916e-01	  -1.5888090e-01	
   1.0010000e+02	  -5.6357164e-01	  -1.5757931e-01	
   1.0015500e+02	  -5.5861304e-01	  -1.5630616e-01	
   1.0021000e+02	  -5.5367144e-01	  -1.5502699e-01	
   1.0026500e+02	  -5.4879754e-01	  -1.5371890e-01	
   1.0032000e+02	  -5.4405824e-01	  -1.5236736e-01	
   1.0037500e+02	  -5.3952947e-01	  -1.5096180e-01	
   1.0043000e+02	  -5.3528965e-01	  -1.4949147e-01	
   1.0048500e+02	  -5.3141494e-01	  -1.4794294e-01	
   1.0054000e+02	  -5.2797634e-01	  -1.4629938e-01	
   1.0059500e+02	  -5.2503848e-01	  -1.4454180e-01	
   1.0065000e+02	  -5.2265914e-01	  -1.4265191e-01	
   1.0070500e+02	  -5.2088844e-01	  -1.4061615e-01	
   1.0076000e+02	  -5.1976650e-01	  -1.3842949e-01	
   1.0081500e+02	  -5.1931981e-01	  -1.3609794e-01	
   1.0087000e+02	  -5.1955799e-01	  -1.3363944e-01	
   1.0092500e+02	  -5.2047243e-01	  -1.3108294e-01	
   1.0098000e+02	  -5.2203807e-01	  -1.2846616e-01	
   1.0103500e+02	  -5.2421813e-01	  -1.2583264e-01	
   1.0109000e+02	  -5.2696996e-01	  -1.2322902e-01	
   1.0114500e+02	  -5.3024956e-01	  -1.2070287e-01	
   1.0120000e+02	  -5.3401255e-01	  -1.1830087e-01	
   1.0125500e+02	  -5.3821206e-01	  -1.1606715e-01	
   1.0131000e+02	  -5.4279538e-01	  -1.1404204e-01	
   1.0136500e+02	  -5.4770083e-01	  -1.1226104e-01	
   1.0142000e+02	  -5.5285574e-01	  -1.1075334e-01	
   1.0147500e+02	  -5.5817560e-01	  -1.0953950e-01	
   1.0153000e+02	  -5.6356510e-01	  -1.0862850e-01	
   1.0158500e+02	  -5.6892093e-01	  -1.0801490e-01	
   1.0164000e+02	  -5.7413588e-01	  -1.0767644e-01	
   1.0169500e+02	  -5.7910228e-01	  -1.0757260e-01	
   1.0175000e+02	  -5.8371417e-01	  -1.0764455e-01	
   1.0180500e+02	  -5.8786923e-01	  -1.0781745e-01	
   1.0186000e+02	  -5.9147145e-01	  -1.0800483e-01	
   1.0191500e+02	  -5.9443492e-01	  -1.0811518e-01	
   1.0197000e+02	  -5.9668882e-01	  -1.0805994e-01	
   1.0202500e+02	  -5.9818321e-01	  -1.0776234e-01	
   1.0208000e+02	  -5.9889400e-01	  -1.0716477e-01	
   1.0213500e+02	  -5.9882553e-01	  -1.0623288e-01	
   1.0219000e+02	  -5.9801013e-01	  -1.0495583e-01	
   1.0224500e+02	  -5.9650448e-01	  -1.0334402e-01	
   1.0230000e+02	  -5.9438347e-01	  -1.0142502e-01	
   1.0235500e+02	  -5.9173250e-01	  -9.9238245e-02	
   1.0241000e+02	  -5.8864024e-01	  -9.6829091e-02	
   1.0246500e+02	  -5.8519274e-01	  -9.4243847e-02	
   1.0252000e+02	  -5.8146940e-01	  -9.1526262e-02	
   1.0257500e+02	  -5.7754103e-01	  -8.8716320e-02	
   1.0263000e+02	  -5.7346964e-01	  -8.5851316e-02	
   1.0268500e+02	  -5.6930953e-01	  -8.2968382e-02	
   1.0274000e+02	  -5.6510901e-01	  -8.0106793e-02	
   1.0279500e+02	  -5.6091197e-01	  -7.7308705e-02	
   1.0285000e+02	  -5.5675840e-01	  -7.4618063e-02	
   1.0290500e+02	  -5.5268382e-01	  -7.2078416e-02	
   1.0296000e+02	  -5.4871878e-01	  -6.9730644e-02	
   1.0301500e+02	  -5.4488940e-01	  -6.7611034e-02	
   1.0307000e+02	  -5.4121891e-01	  -6.5749609e-02	
   1.0312500e+02	  -5.3772960e-01	  -6.4168745e-02	
   1.0318000e+02	  -5.3444399e-01	  -6.2882289e-02	
   1.0323500e+02	  -5.3138385e-01	  -6.1895422e-02	
   1.0329000e+02	  -5.2856763e-01	  -6.1205793e-02	
   1.0334500e+02	  -5.2600788e-01	  -6.0806353e-02	
   1.0340000e+02	  -5.2370918e-01	  -6.0688959e-02	
   1.0345500e+02	  -5.2166668e-01	  -6.0846676e-02	
   1.0351000e+02	  -5.1986496e-01	  -6.1273478e-02	
   1.0356500e+02	  -5.1827797e-01	  -6.1961923e-02	
   1.0362000e+02	  -5.1686971e-01	  -6.2900247e-02	
   1.0367500e+02	  -5.1559567e-01	  -6.4069865e-02	
   1.0373000e+02	  -5.1440524e-01	  -6.5443938e-02	
   1.0378500e+02	  -5.1324565e-01	  -6.6987511e-02	
   1.0384000e+02	  -5.1206654e-01	  -6.8659103e-02	
   1.0389500e+02	  -5.1082451e-01	  -7.0413010e-02	
   1.0395000e+02	  -5.0948761e-01	  -7.2201798e-02	
   1.0400500e+02	  -5.0803954e-01	  -7.3979085e-02	
   1.0406000e+02	  -5.0648226e-01	  -7.5702626e-02	
   1.0411500e+02	  -5.0483564e-01	  -7.7337042e-02	
   1.0417000e+02	  -5.0313446e-01	  -7.8855463e-02	
   1.0422500e+02	  -5.0142439e-01	  -8.0240059e-02	
   1.0428000e+02	  -4.9975904e-01	  -8.1481743e-02	
   1.0433500e+02	  -4.9819852e-01	  -8.2579080e-02	
   1.0439000e+02	  -4.9680856e-01	  -8.3536794e-02	
   1.0444500e+02	  -4.9565965e-01	  -8.4364999e-02	
   1.0450000e+02	  -4.9482643e-01	  -8.5079874e-02	
   1.0455500e+02	  -4.9438707e-01	  -8.5704916e-02	
   1.0461000e+02	  -4.9442154e-01	  -8.6271364e-02	
   1.0466500e+02	  -4.9500817e-01	  -8.6817338e-02	
   1.0472000e+02	  -4.9621896e-01	  -8.7385972e-02	
   1.0477500e+02	  -4.9811461e-01	  -8.8022461e-02	
   1.0483000e+02	  -5.0073987e-01	  -8.8769826e-02	
   1.0488500e+02	  -5.0411918e-01	  -8.9664149e-02	
   1.0494000e+02	  -5.0825333e-01	  -9.0730769e-02	
   1.0499500e+02	  -5.1311790e-01	  -9.1982179e-02	
   1.0505000e+02	  -5.1866378e-01	  -9.3417223e-02	
   1.0510500e+02	  -5.2481982e-01	  -9.5021353e-02	
   1.0516000e+02	  -5.3149710e-01	  -9.6768516e-02	
   1.0521500e+02	  -5.3859411e-01	  -9.8624988e-02	
   1.0527000e+02	  -5.4600109e-01	  -1.0055396e-01	
   1.0532500e+02	  -5.5360186e-01	  -1.0251910e-01	
   1.0538000e+02	  -5.6127323e-01	  -1.0448604e-01	
   1.0543500e+02	  -5.6888320e-01	  -1.0642167e-01	
   1.0549000e+02	  -5.7628967e-01	  -1.0829140e-01	
   1.0554500e+02	  -5.8334077e-01	  -1.1005524e-01	
   1.0560000e+02	  -5.8987768e-01	  -1.1166451e-01	
   1.0565500e+02	  -5.9573942e-01	  -1.1306058e-01	
   1.0571000e+02	  -6.0076803e-01	  -1.1417553e-01	
   1.0576500e+02	  -6.0481264e-01	  -1.1493442e-01	
   1.0582000e+02	  -6.0773227e-01	  -1.1525899e-01	
   1.0587500e+02	  -6.0939834e-01	  -1.1507294e-01	
   1.0593000e+02	  -6.0969806e-01	  -1.1430827e-01	
   1.0598500e+02	  -6.0853835e-01	  -1.1291152e-01	
   1.0604000e+02	  -6.0584981e-01	  -1.1084898e-01	
   1.0609500e+02	  -6.0159006e-01	  -1.0811020e-01	
   1.0615000e+02	  -5.9574621e-01	  -1.0470948e-01	
   1.0620500e+02	  -5.8833608e-01	  -1.0068487e-01	
   1.0626000e+02	  -5.7940808e-01	  -9.6095356e-02	
   1.0631500e+02	  -5.6904011e-01	  -9.1017293e-02	
   1.0637000e+02	  -5.5733751e-01	  -8.5541508e-02	
   1.0642500e+02	  -5.4442973e-01	  -7.9771305e-02	
   1.0648000e+02	  -5.3046563e-01	  -7.3820836e-02	
   1.0653500e+02	  -5.1560792e-01	  -6.7813072e-02	
   1.0659000e+02	  -5.0002777e-01	  -6.1876821e-02	
   1.0664500e+02	  -4.8389956e-01	  -5.6142396e-02	
   1.0670000e+02	  -4.6739587e-01	  -5.0736165e-02	
   1.0675500e+02	  -4.5068314e-01	  -4.5774930e-02	
   1.0681000e+02	  -4.3391834e-01	  -4.1360847e-02	
   1.0686500e+02	  -4.1724598e-01	  -3.7577074e-02	
   1.0692000e+02	  -4.0079480e-01	  -3.4484586e-02	
   1.0697500e+02	  -3.8467512e-01	  -3.2121163e-02	
   1.0703000e+02	  -3.6897751e-01	  -3.0502858e-02	
   1.0708500e+02	  -3.5377236e-01	  -2.9626954e-02	
   1.0714000e+02	  -3.3910949e-01	  -2.9475392e-02	
   1.0719500e+02	  -3.2501802e-01	  -3.0018455e-02	
   1.0725000e+02	  -3.1150662e-01	  -3.1218464e-02	
   1.0730500e+02	  -2.9856415e-01	  -3.3032988e-02	
   1.0736000e+02	  -2.8616064e-01	  -3.5417230e-02	
   1.0741500e+02	  -2.7424904e-01	  -3.8325502e-02	
   1.0747000e+02	  -2.6276800e-01	  -4.1711465e-02	
   1.0752500e+02	  -2.5164531e-01	  -4.5526965e-02	
   1.0758000e+02	  -2.4080196e-01	  -4.9720051e-02	
   1.0763500e+02	  -2.3015722e-01	  -5.4233648e-02	
   1.0769000e+02	  -2.1963417e-01	  -5.9005819e-02	
   1.0774500e+02	  -2.0916471e-01	  -6.3971196e-02	
   1.0780000e+02	  -1.9869296e-01	  -6.9062840e-02	
   1.0785500e+02	  -1.8817792e-01	  -7.4214732e-02	
   1.0791000e+02	  -1.7759566e-01	  -7.9364959e-02	
   1.0796500e+02	  -1.6693994e-01	  -8.4458479e-02	
   1.0802000e+02	  -1.5622054e-01	  -8.9448217e-02	
   1.0807500e+02	  -1.4546074e-01	  -9.4294583e-02	
   1.0813000e+02	  -1.3469556e-01	  -9.8964410e-02	
   1.0818500e+02	  -1.2397069e-01	  -1.0343005e-01	
   1.0824000e+02	  -1.1334134e-01	  -1.0766894e-01	
   1.0829500e+02	  -1.0287098e-01	  -1.1166371e-01	
   1.0835000e+02	  -9.2630296e-02	  -1.1540270e-01	
   1.0840500e+02	  -8.2695264e-02	  -1.1888003e-01	
   1.0846000e+02	  -7.3143659e-02	  -1.2209510e-01	
   1.0851500e+02	  -6.4051052e-02	  -1.2505209e-01	
   1.0857000e+02	  -5.5487812e-02	  -1.2776021e-01	
   1.0862500e+02	  -4.7516904e-02	  -1.3023412e-01	
   1.0868000e+02	  -4.0190966e-02	  -1.3249322e-01	
   1.0873500e+02	  -3.3547912e-02	  -1.3455985e-01	
   1.0879000e+02	  -2.7605887e-02	  -1.3645680e-01	
   1.0884500e+02	  -2.2358853e-02	  -1.3820513e-01	
   1.0890000e+02	  -1.7773736e-02	  -1.3982251e-01	
   1.0895500e+02	  -1.3790296e-02	  -1.4132262e-01	
   1.0901000e+02	  -1.0324727e-02	  -1.4271611e-01	
   1.0906500e+02	  -7.2759812e-03	  -1.4401274e-01	
   1.0912000e+02	  -4.5322418e-03	  -1.4522314e-01	
   1.0917500e+02	  -1.9762277e-03	  -1.4635926e-01	
   1.0923000e+02	   5.0997834e-04	  -1.4743389e-01	
   1.0928500e+02	   3.0399496e-03	  -1.4845992e-01	
   1.0934000e+02	   5.7183306e-03	  -1.4944958e-01	
   1.0939500e+02	   8.6372452e-03	  -1.5041353e-01	
   1.0945000e+02	   1.1873552e-02	  -1.5136048e-01	
   1.0950500e+02	   1.5486936e-02	  -1.5229740e-01	
   1.0956000e+02	   1.9519598e-02	  -1.5322985e-01	
   1.0961500e+02	   2.3997937e-02	  -1.5416243e-01	
   1.0967000e+02	   2.8935160e-02	  -1.5509983e-01	
   1.0972500e+02	   3.4333401e-02	  -1.5604842e-01	
   1.0978000e+02	   4.0184928e-02	  -1.5701847e-01	
   1.0983500e+02	   4.6472485e-02	  -1.5802639e-01	
   1.0989000e+02	   5.3168690e-02	  -1.5909621e-01	
   1.0994500e+02	   6.0235283e-02	  -1.6025929e-01	
   1.1000000e+02	   6.7623930e-02	  -1.6155158e-01	
   1.1005500e+02	   7.5279321e-02	  -1.6300861e-01	
   1.1011000e+02	   8.3143243e-02	  -1.6466003e-01	
   1.1016500e+02	   9.1157922e-02	  -1.6652550e-01	
   1.1022000e+02	   9.9268741e-02	  -1.6861280e-01	
   1.1027500e+02	   1.0742740e-01	  -1.7091798e-01	
   1.1033000e+02	   1.1559478e-01	  -1.7342691e-01	
   1.1038500e+02	   1.2374119e-01	  -1.7611849e-01	
   1.1044000e+02	   1.3184357e-01	  -1.7896887e-01	
   1.1049500e+02	   1.3988144e-01	  -1.8195534e-01	
   1.1055000e+02	   1.4783400e-01	  -1.8505880e-01	
   1.1060500e+02	   1.5567954e-01	  -1.8826460e-01	
   1.1066000e+02	   1.6339728e-01	  -1.9156167e-01	
   1.1071500e+02	   1.7097086e-01	  -1.9494022e-01	
   1.1077000e+02	   1.7839129e-01	  -1.9838898e-01	
   1.1082500e+02	   1.8565681e-01	  -2.0189341e-01	
   1.1088000e+02	   1.9276902e-01	  -2.0543602e-01	
   1.1093500e+02	   1.9972722e-01	  -2.0899855e-01	
   1.1099000e+02	   2.0652361e-01	  -2.1256516e-01	
   1.1104500e+02	   2.1314058e-01	  -2.1612611e-01	
   1.1110000e+02	   2.1955006e-01	  -2.1968070e-01	
   1.1115500e+02	   2.2571540e-01	  -2.2323840e-01	
   1.1121000e+02	   2.3159540e-01	  -2.2681791e-01	
   1.1126500e+02	   2.3714947e-01	  -2.3044436e-01	
   1.1132000e+02	   2.4234284e-01	  -2.3414459e-01	
   1.1137500e+02	   2.4715128e-01	  -2.3794110e-01	
   1.1143000e+02	   2.5156373e-01	  -2.4184596e-01	
   1.1148500e+02	   2.5558187e-01	  -2.4585643e-01	
   1.1154000e+02	   2.5921695e-01	  -2.4995294e-01	
   1.1159500e+02	   2.6248526e-01	  -2.5409937e-01	
   1.1165000e+02	   2.6540341e-01	  -2.5824536e-01	
   1.1170500e+02	   2.6798428e-01	  -2.6233046e-01	
   1.1176000e+02	   2.7023421e-01	  -2.6628968e-01	
   1.1181500e+02	   2.7215148e-01	  -2.7005890e-01	
   1.1187000e+02	   2.7372600e-01	  -2.7357934e-01	
   1.1192500e+02	   2.7494000e-01	  -2.7680079e-01	
   1.1198000e+02	   2.7576961e-01	  -2.7968371e-01	
   1.1203500e+02	   2.7618772e-01	  -2.8220026e-01	
   1.1209000e+02	   2.7616837e-01	  -2.8433397e-01	
   1.1214500e+02	   2.7569271e-01	  -2.8607791e-01	
   1.1220000e+02	   2.7475523e-01	  -2.8743203e-01	
   1.1225500e+02	   2.7336820e-01	  -2.8840021e-01	
   1.1231000e+02	   2.7156340e-01	  -2.8898797e-01	
   1.1236500e+02	   2.6939039e-01	  -2.8920162e-01	
   1.1242000e+02	   2.6691150e-01	  -2.8904922e-01	
   1.1247500e+02	   2.6419576e-01	  -2.8854199e-01	
   1.1253000e+02	   2.6131403e-01	  -2.8769405e-01	
   1.1258500e+02	   2.5833596e-01	  -2.8652033e-01	
   1.1264000e+02	   2.5532708e-01	  -2.8503403e-01	
   1.1269500e+02	   2.5234525e-01	  -2.8324522e-01	
   1.1275000e+02	   2.4943700e-01	  -2.8116058e-01	
   1.1280500e+02	   2.4663417e-01	  -2.7878481e-01	
   1.1286000e+02	   2.4395116e-01	  -2.7612367e-01	
   1.1291500e+02	   2.4138352e-01	  -2.7318763e-01	
   1.1297000e+02	   2.3890934e-01	  -2.6999496e-01	
   1.1302500e+02	   2.3649360e-01	  -2.6657310e-01	
   1.1308000e+02	   2.3409478e-01	  -2.6295840e-01	
   1.1313500e+02	   2.3167258e-01	  -2.5919451e-01	
   1.1319000e+02	   2.2919585e-01	  -2.5532937e-01	
   1.1324500e+02	   2.2664971e-01	  -2.5141144e-01	
   1.1330000e+02	   2.2404037e-01	  -2.4748550e-01	
   1.1335500e+02	   2.2139631e-01	  -2.4358920e-01	
   1.1341000e+02	   2.1876592e-01	  -2.3975077e-01	
   1.1346500e+02	   2.1621304e-01	  -2.3598840e-01	
   1.1352000e+02	   2.1381166e-01	  -2.3231133e-01	
   1.1357500e+02	   2.1163996e-01	  -2.2872283e-01	
   1.1363000e+02	   2.0977308e-01	  -2.2522451e-01	
   1.1368500e+02	   2.0827597e-01	  -2.2182053e-01	
   1.1374000e+02	   2.0719773e-01	  -2.1852039e-01	
   1.1379500e+02	   2.0656840e-01	  -2.1533939e-01	
   1.1385000e+02	   2.0639735e-01	  -2.1229680e-01	
   1.1390500e+02	   2.0667339e-01	  -2.0941217e-01	
   1.1396000e+02	   2.0736720e-01	  -2.0670085e-01	
   1.1401500e+02	   2.0843651e-01	  -2.0416981e-01	
   1.1407000e+02	   2.0983306e-01	  -2.0181409e-01	
   1.1412500e+02	   2.1150965e-01	  -1.9961392e-01	
   1.1418000e+02	   2.1342608e-01	  -1.9753322e-01	
   1.1423500e+02	   2.1555364e-01	  -1.9552014e-01	
   1.1429000e+02	   2.1787886e-01	  -1.9350963e-01	
   1.1434500e+02	   2.2040719e-01	  -1.9142665e-01	
   1.1440000e+02	   2.2316607e-01	  -1.8918889e-01	
   1.1445500e+02	   2.2620638e-01	  -1.8670833e-01	
   1.1451000e+02	   2.2960190e-01	  -1.8389146e-01	
   1.1456500e+02	   2.3344759e-01	  -1.8063808e-01	
   1.1462000e+02	   2.3785638e-01	  -1.7684064e-01	
   1.1467500e+02	   2.4295413e-01	  -1.7238582e-01	
   1.1473000e+02	   2.4887274e-01	  -1.6715920e-01	
   1.1478500e+02	   2.5574291e-01	  -1.6105206e-01	
   1.1484000e+02	   2.6368786e-01	  -1.5396948e-01	
   1.1489500e+02	   2.7281721e-01	  -1.4583923e-01	
   1.1495000e+02	   2.8322023e-01	  -1.3662087e-01	
   1.1500500e+02	   2.9495825e-01	  -1.2631332e-01	
   1.1506000e+02	   3.0805708e-01	  -1.1495969e-01	
   1.1511500e+02	   3.2250050e-01	  -1.0264790e-01	
   1.1517000e+02	   3.3822559e-01	  -8.9507034e-02	
   1.1522500e+02	   3.5512121e-01	  -7.5699756e-02	
   1.1528000e+02	   3.7303004e-01	  -6.1412999e-02	
   1.1533500e+02	   3.9175402e-01	  -4.6848884e-02	
   1.1539000e+02	   4.1106269e-01	  -3.2216843e-02	
   1.1544500e+02	   4.3070402e-01	  -1.7726200e-02	
   1.1550000e+02	   4.5041610e-01	  -3.5785454e-03	
   1.1555500e+02	   4.6993780e-01	   1.0039222e-02	
   1.1561000e+02	   4.8901723e-01	   2.2959737e-02	
   1.1566500e+02	   5.0741789e-01	   3.5037454e-02	
   1.1572000e+02	   5.2492279e-01	   4.6148891e-02	
   1.1577500e+02	   5.4133725e-01	   5.6191529e-02	
   1.1583000e+02	   5.5649146e-01	   6.5082209e-02	
   1.1588500e+02	   5.7024361e-01	   7.2755871e-02	
   1.1594000e+02	   5.8248324e-01	   7.9164956e-02	
   1.1599500e+02	   5.9313278e-01	   8.4278995e-02	
   1.1605000e+02	   6.0214613e-01	   8.8083920e-02	
   1.1610500e+02	   6.0950491e-01	   9.0581562e-02	
   1.1616000e+02	   6.1521436e-01	   9.1790100e-02	
   1.1621500e+02	   6.1929987e-01	   9.1744845e-02	
   1.1627000e+02	   6.2180364e-01	   9.0497986e-02	
   1.1632500e+02	   6.2278048e-01	   8.8117237e-02	
   1.1638000e+02	   6.2229249e-01	   8.4684561e-02	
   1.1643500e+02	   6.2040342e-01	   8.0295364e-02	
   1.1649000e+02	   6.1717417e-01	   7.5057427e-02	
   1.1654500e+02	   6.1266063e-01	   6.9088881e-02	
   1.1660000e+02	   6.0691408e-01	   6.2515103e-02	
   1.1665500e+02	   5.9998289e-01	   5.5464690e-02	
   1.1671000e+02	   5.9191487e-01	   4.8065066e-02	
   1.1676500e+02	   5.8275982e-01	   4.0438671e-02	
   1.1682000e+02	   5.7257178e-01	   3.2700202e-02	
   1.1687500e+02	   5.6141016e-01	   2.4954657e-02	
   1.1693000e+02	   5.4933904e-01	   1.7295645e-02	
   1.1698500e+02	   5.3642475e-01	   9.8037249e-03	
   1.1704000e+02	   5.2273332e-01	   2.5452908e-03	
   1.1709500e+02	   5.0832945e-01	  -4.4270690e-03	
   1.1715000e+02	   4.9327751e-01	  -1.1072581e-02	
   1.1720500e+02	   4.7764321e-01	  -1.7359593e-02	
   1.1726000e+02	   4.6149559e-01	  -2.3263253e-02	
   1.1731500e+02	   4.4490940e-01	  -2.8764149e-02	
   1.1737000e+02	   4.2796723e-01	  -3.3848225e-02	
   1.1742500e+02	   4.1075989e-01	  -3.8508103e-02	
   1.1748000e+02	   3.9338442e-01	  -4.2745273e-02	
   1.1753500e+02	   3.7594085e-01	  -4.6571895e-02	
   1.1759000e+02	   3.5852897e-01	  -5.0011125e-02	
   1.1764500e+02	   3.4124540e-01	  -5.3095678e-02	
   1.1770000e+02	   3.2418139e-01	  -5.5865016e-02	
   1.1775500e+02	   3.0742144e-01	  -5.8361957e-02	
   1.1781000e+02	   2.9104169e-01	  -6.0629880e-02	
   1.1786500e+02	   2.7510674e-01	  -6.2711834e-02	
   1.1792000e+02	   2.5966481e-01	  -6.4651478e-02	
   1.1797500e+02	   2.4474241e-01	  -6.6494411e-02	
   1.1803000e+02	   2.3033955e-01	  -6.8288775e-02	
   1.1808500e+02	   2.1642603e-01	  -7.0085119e-02	
   1.1814000e+02	   2.0294011e-01	  -7.1935326e-02	
   1.1819500e+02	   1.8979108e-01	  -7.3890256e-02	
   1.1825000e+02	   1.7686588e-01	  -7.5996644e-02	
   1.1830500e+02	   1.6403831e-01	  -7.8294417e-02	
   1.1836000e+02	   1.5117864e-01	  -8.0814978e-02	
   1.1841500e+02	   1.3816228e-01	  -8.3580350e-02	
   1.1847000e+02	   1.2487657e-01	  -8.6603412e-02	
   1.1852500e+02	   1.1122542e-01	  -8.9889462e-02	
   1.1858000e+02	   9.7132926e-02	  -9.3438234e-02	
   1.1863500e+02	   8.2547341e-02	  -9.7244924e-02	
   1.1869000e+02	   6.7445494e-02	  -1.0129952e-01	
   1.1874500e+02	   5.1836088e-02	  -1.0558462e-01	
   1.1880000e+02	   3.5760789e-02	  -1.1007186e-01	
   1.1885500e+02	   1.9292743e-02	  -1.1471741e-01	
   1.1891000e+02	   2.5324493e-03	  -1.1945846e-01	
   1.1896500e+02	  -1.4398890e-02	  -1.2421251e-01	
   1.1902000e+02	  -3.1367647e-02	  -1.2888017e-01	
   1.1907500e+02	  -4.8236154e-02	  -1.3335012e-01	
   1.1913000e+02	  -6.4870293e-02	  -1.3750515e-01	
   1.1918500e+02	  -8.1146297e-02	  -1.4122899e-01	
   1.1924000e+02	  -9.6956179e-02	  -1.4441384e-01	
   1.1929500e+02	  -1.1220996e-01	  -1.4696711e-01	
   1.1935000e+02	  -1.2683354e-01	  -1.4881557e-01	
   1.1940500e+02	  -1.4076328e-01	  -1.4990658e-01	
   1.1946000e+02	  -1.5393924e-01	  -1.5020678e-01	
   1.1951500e+02	  -1.6629845e-01	  -1.4969939e-01	
   1.1957000e+02	  -1.7776962e-01	  -1.4838084e-01	
   1.1962500e+02	  -1.8827136e-01	  -1.4625873e-01	
   1.1968000e+02	  -1.9771489e-01	  -1.4335200e-01	
   1.1973500e+02	  -2.0600967e-01	  -1.3969252e-01	
   1.1979000e+02	  -2.1306970e-01	  -1.3532625e-01	
   1.1984500e+02	  -2.1881864e-01	  -1.3031267e-01	
   1.1990000e+02	  -2.2319329e-01	  -1.2472245e-01	
   1.1995500e+02	  -2.2614561e-01	  -1.1863381e-01	
   1.2001000e+02	  -2.2764385e-01	  -1.1212784e-01	
   1.2006500e+02	  -2.2767325e-01	  -1.0528416e-01	
   1.2012000e+02	  -2.2623619e-01	  -9.8177719e-02	
   1.2017500e+02	  -2.2335146e-01	  -9.0877038e-02	
   1.2023000e+02	  -2.1905314e-01	  -8.3443175e-02	
   1.2028500e+02	  -2.1338986e-01	  -7.5929290e-02	
   1.2034000e+02	  -2.0642484e-01	  -6.8381631e-02	
   1.2039500e+02	  -1.9823671e-01	  -6.0842157e-02	
   1.2045000e+02	  -1.8892060e-01	  -5.3351610e-02	
   1.2050500e+02	  -1.7858812e-01	  -4.5951747e-02	
   1.2056000e+02	  -1.6736566e-01	  -3.8686477e-02	
   1.2061500e+02	  -1.5539161e-01	  -3.1602170e-02	
   1.2067000e+02	  -1.4281359e-01	  -2.4747045e-02	
   1.2072500e+02	  -1.2978597e-01	  -1.8169481e-02	
   1.2078000e+02	  -1.1646710e-01	  -1.1915578e-02	
   1.2083500e+02	  -1.0301537e-01	  -6.0264505e-03	
   1.2089000e+02	  -8.9583470e-02	  -5.3565719e-04	
   1.2094500e+02	  -7.6311182e-02	   4.5327804e-03	
   1.2100000e+02	  -6.3318239e-02	   9.1655137e-03	
   1.2105500e+02	  -5.0699111e-02	   1.3360429e-02	
   1.2111000e+02	  -3.8520357e-02	   1.7127352e-02	
   1.2116500e+02	  -2.6820214e-02	   2.0489341e-02	
   1.2122000e+02	  -1.5610249e-02	   2.3483806e-02	
   1.2127500e+02	  -4.8795164e-03	   2.6161840e-02	
   1.2133000e+02	   5.3991968e-03	   2.8585354e-02	
   1.2138500e+02	   1.5262762e-02	   3.0823314e-02	
   1.2144000e+02	   2.4752212e-02	   3.2948125e-02	
   1.2149500e+02	   3.3908970e-02	   3.5031866e-02	
   1.2155000e+02	   4.2773465e-02	   3.7142159e-02	
   1.2160500e+02	   5.1386034e-02	   3.9338323e-02	
   1.2166000e+02	   5.9787988e-02	   4.1668474e-02	
   1.2171500e+02	   6.8020691e-02	   4.4167937e-02	
   1.2177000e+02	   7.6122797e-02	   4.6859512e-02	
   1.2182500e+02	   8.4127375e-02	   4.9755871e-02	
   1.2188000e+02	   9.2059885e-02	   5.2863114e-02	
   1.2193500e+02	   9.9936914e-02	   5.6183849e-02	
   1.2199000e+02	   1.0776573e-01	   5.9719194e-02	
   1.2204500e+02	   1.1554479e-01	   6.3470025e-02	
   1.2210000e+02	   1.2326444e-01	   6.7437300e-02	
   1.2215500e+02	   1.3090666e-01	   7.1620676e-02	
   1.2221000e+02	   1.3844363e-01	   7.6015391e-02	
   1.2226500e+02	   1.4583620e-01	   8.0608467e-02	
   1.2232000e+02	   1.5303370e-01	   8.5375821e-02	
   1.2237500e+02	   1.5997547e-01	   9.0281626e-02	
   1.2243000e+02	   1.6659400e-01	   9.5280395e-02	
   1.2248500e+02	   1.7281935e-01	   1.0032115e-01	
   1.2254000e+02	   1.7858407e-01	   1.0535219e-01	
   1.2259500e+02	   1.8382780e-01	   1.1032482e-01	
   1.2265000e+02	   1.8850005e-01	   1.1519477e-01	
   1.2270500e+02	   1.9256095e-01	   1.1992143e-01	
   1.2276000e+02	   1.9598112e-01	   1.2446595e-01	
   1.2281500e+02	   1.9874190e-01	   1.2878900e-01	
   1.2287000e+02	   2.0083577e-01	   1.3284880e-01	
   1.2292500e+02	   2.0226656e-01	   1.3660012e-01	
   1.2298000e+02	   2.0304813e-01	   1.3999465e-01	
   1.2303500e+02	   2.0320174e-01	   1.4298278e-01	
   1.2309000e+02	   2.0275281e-01	   1.4551621e-01	
   1.2314500e+02	   2.0172897e-01	   1.4755143e-01	
   1.2320000e+02	   2.0016029e-01	   1.4905385e-01	
   1.2325500e+02	   1.9808123e-01	   1.5000194e-01	
   1.2331000e+02	   1.9553334e-01	   1.5039006e-01	
   1.2336500e+02	   1.9256879e-01	   1.5022958e-01	
   1.2342000e+02	   1.8925393e-01	   1.4954827e-01	
   1.2347500e+02	   1.8567119e-01	   1.4838747e-01	
   1.2353000e+02	   1.8191803e-01	   1.4679690e-01	
   1.2358500e+02	   1.7810357e-01	   1.4482806e-01	
   1.2364000e+02	   1.7434340e-01	   1.4252817e-01	
   1.2369500e+02	   1.7075251e-01	   1.3993565e-01	
   1.2375000e+02	   1.6743623e-01	   1.3707814e-01	
   1.2380500e+02	   1.6448116e-01	   1.3397300e-01	
   1.2386000e+02	   1.6194838e-01	   1.3063025e-01	
   1.2391500e+02	   1.5986978e-01	   1.2705615e-01	
   1.2397000e+02	   1.5824670e-01	   1.2325638e-01	
   1.2402500e+02	   1.5705003e-01	   1.1923818e-01	
   1.2408000e+02	   1.5622173e-01	   1.1501188e-01	
   1.2413500e+02	   1.5567833e-01	   1.1059138e-01	
   1.2419000e+02	   1.5531652e-01	   1.0599332e-01	
   1.2424500e+02	   1.5502023e-01	   1.0123501e-01	
   1.2430000e+02	   1.5466867e-01	   9.6332409e-02	
   1.2435500e+02	   1.5414491e-01	   9.1299363e-02	
   1.2441000e+02	   1.5334371e-01	   8.6148655e-02	
   1.2446500e+02	   1.5217713e-01	   8.0894245e-02	
   1.2452000e+02	   1.5057705e-01	   7.5553893e-02	
   1.2457500e+02	   1.4849516e-01	   7.0151360e-02	
   1.2463000e+02	   1.4590085e-01	   6.4717440e-02	
   1.2468500e+02	   1.4277755e-01	   5.9289384e-02	
   1.2474000e+02	   1.3911872e-01	   5.3908960e-02	
   1.2479500e+02	   1.3492467e-01	   4.8619976e-02	
   1.2485000e+02	   1.3020068e-01	   4.3465653e-02	
   1.2490500e+02	   1.2495509e-01	   3.8485812e-02	
   1.2496000e+02	   1.1919690e-01	   3.3714501e-02	
   1.2501500e+02	   1.1293428e-01	   2.9179459e-02	
   1.2507000e+02	   1.0617527e-01	   2.4903903e-02	
   1.2512500e+02	   9.8929867e-02	   2.0909467e-02	
   1.2518000e+02	   9.1212065e-02	   1.7218964e-02	
   1.2523500e+02	   8.3041274e-02	   1.3858401e-02	
   1.2529000e+02	   7.4442949e-02	   1.0857758e-02	
   1.2534500e+02	   6.5448536e-02	   8.2501588e-03	
   1.2540000e+02	   5.6095451e-02	   6.0700668e-03	
   1.2545500e+02	   4.6427709e-02	   4.3513421e-03	
   1.2551000e+02	   3.6497125e-02	   3.1250499e-03	
   1.2556500e+02	   2.6364520e-02	   2.4167290e-03	
   1.2562000e+02	   1.6100422e-02	   2.2437815e-03	
   1.2567500e+02	   5.7849957e-03	   2.6139266e-03	
   1.2573000e+02	  -4.4931132e-03	   3.5248114e-03	
   1.2578500e+02	  -1.4639673e-02	   4.9642169e-03	
   1.2584000e+02	  -2.4559783e-02	   6.9103786e-03	
   1.2589500e+02	  -3.4163811e-02	   9.3322018e-03	
   1.2595000e+02	  -4.3372946e-02	   1.2189164e-02	
   1.2600500e+02	  -5.2123963e-02	   1.5430581e-02	
   1.2606000e+02	  -6.0373268e-02	   1.8994143e-02	
   1.2611500e+02	  -6.8099722e-02	   2.2804489e-02	
   1.2617000e+02	  -7.5305492e-02	   2.6773114e-02	
   1.2622500e+02	  -8.2014809e-02	   3.0800463e-02	
   1.2628000e+02	  -8.8270692e-02	   3.4780508e-02	
   1.2633500e+02	  -9.4129587e-02	   3.8607615e-02	
   1.2639000e+02	  -9.9654381e-02	   4.2184518e-02	
   1.2644500e+02	  -1.0490684e-01	   4.5429288e-02	
   1.2650000e+02	  -1.0994072e-01	   4.8279700e-02	
   1.2655500e+02	  -1.1479670e-01	   5.0694685e-02	
   1.2661000e+02	  -1.1949939e-01	   5.2653187e-02	
   1.2666500e+02	  -1.2405641e-01	   5.4150897e-02	
   1.2672000e+02	  -1.2845927e-01	   5.5195685e-02	
   1.2677500e+02	  -1.3268565e-01	   5.5802953e-02	
   1.2683000e+02	  -1.3670323e-01	   5.5991855e-02	
