
0   2   1   4	
   0.0000000e+00	   2.1935211e+00	   3.8786039e+00	   2.4217381e+00	
   5.5000000e-02	   2.2056527e+00	   3.8069931e+00	   2.3913261e+00	
   1.1000000e-01	   2.2648853e+00	   3.7410113e+00	   2.1047620e+00	
   1.6500000e-01	   2.0807757e+00	   3.5952536e+00	   1.7476387e+00	
   2.2000000e-01	   1.8928508e+00	   3.2176958e+00	   1.8236416e+00	
   2.7500000e-01	   2.1058769e+00	   3.6045923e+00	   2.3445875e+00	
   3.3000000e-01	   2.1142990e+00	   3.2593019e+00	   2.2793434e+00	
   3.8500000e-01	   2.0134081e+00	   3.7676231e+00	   2.2575757e+00	
   4.4000000e-01	   2.4187986e+00	   3.5457042e+00	   2.7312756e+00	
   4.9500000e-01	   2.6080288e+00	   4.0654137e+00	   2.7066181e+00	
   5.5000000e-01	   2.5759923e+00	   3.7816108e+00	   2.8761164e+00	
   6.0500000e-01	   2.3220270e+00	   3.4001626e+00	   2.4833271e+00	
   6.6000000e-01	   2.3942350e+00	   3.4447192e+00	   2.4206732e+00	
   7.1500000e-01	   2.3710881e+00	   3.4007853e+00	   1.9716931e+00	
   7.7000000e-01	   2.2277013e+00	   3.8177077e+00	   2.4325267e+00	
   8.2500000e-01	   2.0954728e+00	   3.8437413e+00	   2.0981003e+00	
   8.8000000e-01	   1.9574487e+00	   3.4549918e+00	   1.9650442e+00	
   9.3500000e-01	   1.6139125e+00	   3.2991999e+00	   1.6287241e+00	
   9.9000000e-01	   2.4247845e+00	   3.7611403e+00	   2.3875510e+00	
   1.0450000e+00	   2.2845282e+00	   4.1966092e+00	   2.2958956e+00	
   1.1000000e+00	   2.2742750e+00	   3.7660180e+00	   2.3762089e+00	
   1.1550000e+00	   2.3621235e+00	   3.9753831e+00	   2.5040062e+00	
   1.2100000e+00	   2.6668736e+00	   4.0990799e+00	   2.7886415e+00	
   1.2650000e+00	   2.3363852e+00	   4.1238120e+00	   2.6516304e+00	
   1.3200000e+00	   2.3012932e+00	   3.8721597e+00	   2.2063134e+00	
   1.3750000e+00	   2.2687106e+00	   3.9266503e+00	   2.3290677e+00	
   1.4300000e+00	   2.1632368e+00	   3.9304164e+00	   2.1684864e+00	
   1.4850000e+00	   2.0901992e+00	   3.5831660e+00	   1.9743743e+00	
   1.5400000e+00	   1.7154895e+00	   3.2617404e+00	   2.2157645e+00	
   1.5950000e+00	   2.0716983e+00	   3.8301033e+00	   2.2019688e+00	
   1.6500000e+00	   2.2614454e+00	   4.2486496e+00	   2.6098687e+00	
   1.7050000e+00	   2.5224863e+00	   4.2004780e+00	   2.5933413e+00	
   1.7600000e+00	   2.4305174e+00	   3.8791332e+00	   2.5124479e+00	
   1.8150000e+00	   2.5110004e+00	   3.7980059e+00	   2.9021809e+00	
   1.8700000e+00	   2.3008824e+00	   3.8946199e+00	   2.7725082e+00	
   1.9250000e+00	   2.3716094e+00	   4.3164947e+00	   2.5403115e+00	
   1.9800000e+00	   2.3784926e+00	   3.8410881e+00	   2.4580951e+00	
   2.0350000e+00	   2.0408628e+00	   4.0151632e+00	   2.4530730e+00	
   2.0900000e+00	   2.3641355e+00	   3.4448167e+00	   2.3595232e+00	
   2.1450000e+00	   2.1036641e+00	   3.6875697e+00	   2.2670745e+00	
   2.2000000e+00	   1.8760021e+00	   3.2913547e+00	   2.1037335e+00	
   2.2550000e+00	   1.7690654e+00	   3.5357123e+00	   1.9708047e+00	
   2.3100000e+00	   2.2893422e+00	   3.7783638e+00	   2.3689417e+00	
   2.3650000e+00	   2.4696101e+00	   3.9748682e+00	   2.8349442e+00	
   2.4200000e+00	   2.4041898e+00	   3.9041715e+00	   2.5963496e+00	
   2.4750000e+00	   2.2330115e+00	   4.2318811e+00	   2.7199213e+00	
   2.5300000e+00	   2.3689466e+00	   4.2551484e+00	   2.6413253e+00	
   2.5850000e+00	   2.2738676e+00	   3.6843179e+00	   2.8157523e+00	
   2.6400000e+00	   2.2601567e+00	   3.8229972e+00	   2.9240236e+00	
   2.6950000e+00	   2.1141864e+00	   3.6804569e+00	   2.4030276e+00	
   2.7500000e+00	   2.1940882e+00	   3.5508356e+00	   2.0380196e+00	
   2.8050000e+00	   2.1114863e+00	   3.7288854e+00	   2.3221520e+00	
   2.8600000e+00	   1.8352224e+00	   3.5248367e+00	   2.0968695e+00	
   2.9150000e+00	   2.2128375e+00	   3.7163151e+00	   2.3378736e+00	
   2.9700000e+00	   2.5204463e+00	   3.4943091e+00	   2.7851722e+00	
   3.0250000e+00	   2.3130398e+00	   4.0081421e+00	   2.8736814e+00	
   3.0800000e+00	   2.4554276e+00	   4.2082157e+00	   2.7910479e+00	
   3.1350000e+00	   2.2848823e+00	   3.5675798e+00	   2.6297998e+00	
   3.1900000e+00	   2.1629296e+00	   3.8941223e+00	   2.7467723e+00	
   3.2450000e+00	   2.1181703e+00	   3.9682556e+00	   2.9043921e+00	
   3.3000000e+00	   1.9491648e+00	   3.5659454e+00	   2.2974078e+00	
   3.3550000e+00	   1.7549557e+00	   3.4529448e+00	   2.3490708e+00	
   3.4100000e+00	   1.7774145e+00	   3.5846743e+00	   2.4656753e+00	
   3.4650000e+00	   1.9023533e+00	   3.3120468e+00	   2.3521423e+00	
   3.5200000e+00	   2.1099879e+00	   4.1196643e+00	   2.7782193e+00	
   3.5750000e+00	   1.8587921e+00	   3.8851681e+00	   2.4576438e+00	
   3.6300000e+00	   1.9894760e+00	   3.9341136e+00	   2.3887097e+00	
   3.6850000e+00	   2.1620278e+00	   4.0064966e+00	   2.7555244e+00	
   3.7400000e+00	   1.9143214e+00	   3.6935401e+00	   2.7796087e+00	
   3.7950000e+00	   2.0388416e+00	   3.8647534e+00	   2.7107950e+00	
   3.8500000e+00	   1.8132685e+00	   3.7842357e+00	   2.3761515e+00	
   3.9050000e+00	   1.8254357e+00	   3.6373741e+00	   2.8310939e+00	
   3.9600000e+00	   1.4658077e+00	   3.2003097e+00	   2.6028405e+00	
   4.0150000e+00	   1.3482970e+00	   2.9311222e+00	   1.8195974e+00	
   4.0700000e+00	   1.5203536e+00	   3.5273782e+00	   2.0837809e+00	
   4.1250000e+00	   1.9681369e+00	   3.6818503e+00	   2.3980379e+00	
   4.1800000e+00	   1.8168977e+00	   3.8090303e+00	   2.4795376e+00	
   4.2350000e+00	   1.9020098e+00	   3.7059918e+00	   2.2229809e+00	
   4.2900000e+00	   1.7554567e+00	   4.0277555e+00	   2.7805330e+00	
   4.3450000e+00	   1.7627242e+00	   3.2863254e+00	   2.4036778e+00	
   4.4000000e+00	   1.7152449e+00	   3.7783818e+00	   2.4252291e+00	
   4.4550000e+00	   1.4870637e+00	   3.3996195e+00	   2.4329843e+00	
   4.5100000e+00	   1.3542789e+00	   3.4778718e+00	   2.1964049e+00	
   4.5650000e+00	   1.4703473e+00	   3.0236846e+00	   1.7112263e+00	
   4.6200000e+00	   1.2275516e+00	   3.3858660e+00	   1.8559937e+00	
   4.6750000e+00	   1.2141016e+00	   3.4334686e+00	   1.7408245e+00	
   4.7300000e+00	   1.3417679e+00	   3.0127056e+00	   1.8787430e+00	
   4.7850000e+00	   1.4329081e+00	   3.7597366e+00	   2.2833106e+00	
   4.8400000e+00	   1.6804985e+00	   3.6930950e+00	   2.5468666e+00	
   4.8950000e+00	   1.3003800e+00	   3.3079153e+00	   2.0740009e+00	
   4.9500000e+00	   1.3068994e+00	   3.3035172e+00	   2.2387039e+00	
   5.0050000e+00	   1.3990863e+00	   3.1693665e+00	   2.4500079e+00	
   5.0600000e+00	   1.5011311e+00	   3.6170416e+00	   2.2636825e+00	
   5.1150000e+00	   1.2848092e+00	   2.5277939e+00	   2.0385819e+00	
   5.1700000e+00	   9.0591373e-01	   2.9599143e+00	   2.0659962e+00	
   5.2250000e+00	   1.1233238e+00	   2.5804451e+00	   1.7350381e+00	
   5.2800000e+00	   1.4856134e+00	   3.1465909e+00	   1.9510571e+00	
   5.3350000e+00	   1.4193870e+00	   3.1100483e+00	   2.1069693e+00	
   5.3900000e+00	   1.4526952e+00	   2.8549011e+00	   2.3141016e+00	
   5.4450000e+00	   1.3846661e+00	   2.8964329e+00	   2.3634388e+00	
   5.5000000e+00	   1.5658116e+00	   3.4119439e+00	   2.2348005e+00	
   5.5550000e+00	   1.3817948e+00	   3.5071484e+00	   2.3791388e+00	
   5.6100000e+00	   1.4795178e+00	   2.8936411e+00	   2.0660996e+00	
   5.6650000e+00	   1.0292781e+00	   2.2379391e+00	   2.0005008e+00	
   5.7200000e+00	   1.1172810e+00	   3.0177582e+00	   1.9889006e+00	
   5.7750000e+00	   9.3491035e-01	   2.4587974e+00	   1.5909299e+00	
   5.8300000e+00	   9.0113134e-01	   2.9633092e+00	   1.5717576e+00	
   5.8850000e+00	   1.0878744e+00	   2.7481860e+00	   1.7216938e+00	
   5.9400000e+00	   1.6009059e+00	   3.3484202e+00	   1.7777188e+00	
   5.9950000e+00	   1.6164942e+00	   3.1700083e+00	   2.0981003e+00	
   6.0500000e+00	   1.7398400e+00	   3.2750150e+00	   2.2488783e+00	
   6.1050000e+00	   1.4164432e+00	   3.8292451e+00	   2.2386067e+00	
   6.1600000e+00	   1.4456056e+00	   3.1748262e+00	   1.8393110e+00	
   6.2150000e+00	   1.7316577e+00	   3.0822096e+00	   2.2316578e+00	
   6.2700000e+00	   1.2459796e+00	   3.1325782e+00	   1.8069397e+00	
   6.3250000e+00	   1.1943842e+00	   2.6347694e+00	   1.6308262e+00	
   6.3800000e+00	   1.2040532e+00	   3.0855823e+00	   1.4041057e+00	
   6.4350000e+00	   1.2122540e+00	   2.7533449e+00	   1.9366160e+00	
   6.4900000e+00	   1.5610376e+00	   3.0207662e+00	   2.0971830e+00	
   6.5450000e+00	   1.7042223e+00	   2.8446997e+00	   2.2286591e+00	
   6.6000000e+00	   1.8557047e+00	   3.4172219e+00	   1.8433906e+00	
   6.6550000e+00	   1.7427909e+00	   3.5484888e+00	   2.2622554e+00	
   6.7100000e+00	   1.8627714e+00	   3.5894085e+00	   2.5530634e+00	
   6.7650000e+00	   1.8656626e+00	   3.3316256e+00	   2.1009634e+00	
   6.8200000e+00	   1.5715299e+00	   3.0717790e+00	   2.0563805e+00	
   6.8750000e+00	   1.3727905e+00	   3.4343764e+00	   2.2044943e+00	
   6.9300000e+00	   1.5066773e+00	   3.0850234e+00	   2.1787191e+00	
   6.9850000e+00	   1.1615833e+00	   2.5927025e+00	   1.9047845e+00	
   7.0400000e+00	   1.3717887e+00	   2.7886836e+00	   1.6742383e+00	
   7.0950000e+00	   1.7320859e+00	   3.0276621e+00	   2.0813276e+00	
   7.1500000e+00	   2.1130884e+00	   3.3077403e+00	   2.4054969e+00	
   7.2050000e+00	   1.8565147e+00	   3.2221469e+00	   1.8990011e+00	
   7.2600000e+00	   1.7142770e+00	   3.3188181e+00	   2.3120363e+00	
   7.3150000e+00	   2.0240091e+00	   3.1724542e+00	   2.6067890e+00	
   7.3700000e+00	   1.9064439e+00	   2.9447166e+00	   2.2365676e+00	
   7.4250000e+00	   1.6157889e+00	   3.3788342e+00	   1.8963750e+00	
   7.4800000e+00	   1.6473683e+00	   3.0268193e+00	   2.5633298e+00	
   7.5350000e+00	   1.5714832e+00	   3.2389771e+00	   2.4625892e+00	
   7.5900000e+00	   1.4117884e+00	   2.8983374e+00	   2.2232298e+00	
   7.6450000e+00	   1.1813361e+00	   2.8675518e+00	   1.5203202e+00	
   7.7000000e+00	   1.1389762e+00	   2.2430599e+00	   1.3854347e+00	
   7.7550000e+00	   1.6238533e+00	   2.7620427e+00	   2.1234885e+00	
   7.8100000e+00	   1.9392428e+00	   3.3137506e+00	   2.0787564e+00	
   7.8650000e+00	   1.9112211e+00	   3.4629716e+00	   2.3961714e+00	
   7.9200000e+00	   1.8742327e+00	   2.8742082e+00	   1.8990011e+00	
   7.9750000e+00	   1.6642738e+00	   3.2293184e+00	   2.3562807e+00	
   8.0300000e+00	   1.8530741e+00	   3.1935557e+00	   2.1127908e+00	
   8.0850000e+00	   1.6167667e+00	   2.9686752e+00	   2.3866826e+00	
   8.1400000e+00	   1.5344553e+00	   2.8860711e+00	   2.2157645e+00	
   8.1950000e+00	   1.5510785e+00	   3.0514520e+00	   2.1236292e+00	
   8.2500000e+00	   1.5748085e+00	   2.7533267e+00	   1.8857486e+00	
   8.3050000e+00	   1.4062925e+00	   2.8071644e+00	   1.7796710e+00	
   8.3600000e+00	   1.2988179e+00	   2.6581884e+00	   1.9379762e+00	
   8.4150000e+00	   1.9367685e+00	   2.7586229e+00	   2.0937090e+00	
   8.4700000e+00	   1.8502203e+00	   2.8916433e+00	   2.4228669e+00	
   8.5250000e+00	   1.7565712e+00	   2.9441619e+00	   2.3739023e+00	
   8.5800000e+00	   1.8162857e+00	   2.9176454e+00	   2.3403780e+00	
   8.6350000e+00	   1.7510463e+00	   2.9550870e+00	   1.9938930e+00	
   8.6900000e+00	   1.6516442e+00	   3.0046635e+00	   2.1630192e+00	
   8.7450000e+00	   1.5852130e+00	   3.2536187e+00	   2.0905217e+00	
   8.8000000e+00	   1.6138626e+00	   2.8218764e+00	   2.2122741e+00	
   8.8550000e+00	   1.4244037e+00	   2.7274479e+00	   1.9271478e+00	
   8.9100000e+00	   1.3719263e+00	   2.6196270e+00	   1.8011890e+00	
   8.9650000e+00	   1.2515397e+00	   2.7121243e+00	   1.6910176e+00	
   9.0200000e+00	   1.5924430e+00	   2.7855302e+00	   1.9228410e+00	
   9.0750000e+00	   1.5359520e+00	   2.9732793e+00	   1.8371934e+00	
   9.1300000e+00	   1.7089126e+00	   2.7267423e+00	   2.1497177e+00	
   9.1850000e+00	   1.9484653e+00	   3.4107870e+00	   1.9636870e+00	
   9.2400000e+00	   1.8313521e+00	   2.7136559e+00	   2.1666119e+00	
   9.2950000e+00	   1.7977907e+00	   2.9726185e+00	   1.8414565e+00	
   9.3500000e+00	   1.8878303e+00	   2.8561456e+00	   1.9475658e+00	
   9.4050000e+00	   1.8489944e+00	   2.9567663e+00	   2.3057655e+00	
   9.4600000e+00	   1.4255511e+00	   2.4402882e+00	   2.0005372e+00	
   9.5150000e+00	   1.4896452e+00	   2.4316907e+00	   1.7239436e+00	
   9.5700000e+00	   1.5326839e+00	   2.4006546e+00	   1.9047845e+00	
   9.6250000e+00	   1.6279464e+00	   3.1176839e+00	   2.4387123e+00	
   9.6800000e+00	   2.1068787e+00	   3.3003281e+00	   2.0160794e+00	
   9.7350000e+00	   1.9379196e+00	   2.7978979e+00	   2.0751046e+00	
   9.7900000e+00	   1.8550882e+00	   3.2631477e+00	   2.2958956e+00	
   9.8450000e+00	   1.8871961e+00	   3.0283510e+00	   2.1206797e+00	
   9.9000000e+00	   2.1079557e+00	   2.5084945e+00	   2.3472957e+00	
   9.9550000e+00	   1.9801398e+00	   2.7437183e+00	   2.2543665e+00	
   1.0010000e+01	   1.7448779e+00	   2.5962425e+00	   2.2422416e+00	
   1.0065000e+01	   1.7405755e+00	   2.6891952e+00	   2.3473888e+00	
   1.0120000e+01	   1.6612451e+00	   2.9131290e+00	   2.1117838e+00	
   1.0175000e+01	   1.4243932e+00	   2.6501096e+00	   1.7759535e+00	
   1.0230000e+01	   1.2342760e+00	   2.3379918e+00	   1.6229913e+00	
   1.0285000e+01	   1.9692359e+00	   2.9678539e+00	   1.8791129e+00	
   1.0340000e+01	   2.1245078e+00	   3.0446831e+00	   2.3260265e+00	
   1.0395000e+01	   1.8787753e+00	   3.2452222e+00	   2.3750950e+00	
   1.0450000e+01	   1.9421148e+00	   3.0545873e+00	   2.0333225e+00	
   1.0505000e+01	   1.8552546e+00	   2.9574274e+00	   2.2844767e+00	
   1.0560000e+01	   2.0392174e+00	   3.0236354e+00	   2.8154264e+00	
   1.0615000e+01	   1.8278161e+00	   2.8187248e+00	   1.6948616e+00	
   1.0670000e+01	   1.6549962e+00	   2.8393265e+00	   2.2308702e+00	
   1.0725000e+01	   1.5236657e+00	   2.6395965e+00	   1.7274589e+00	
   1.0780000e+01	   1.5978875e+00	   2.5959672e+00	   2.1110137e+00	
   1.0835000e+01	   1.4464905e+00	   2.3506977e+00	   1.8569713e+00	
   1.0890000e+01	   1.5802340e+00	   2.3205697e+00	   1.3628112e+00	
   1.0945000e+01	   1.5196122e+00	   2.8643586e+00	   1.7914090e+00	
   1.1000000e+01	   2.0197045e+00	   3.2072106e+00	   2.4752715e+00	
   1.1055000e+01	   1.8497271e+00	   3.3214018e+00	   2.4417284e+00	
   1.1110000e+01	   2.0037221e+00	   3.4258887e+00	   2.2327874e+00	
   1.1165000e+01	   1.8545192e+00	   3.2538278e+00	   2.0645074e+00	
   1.1220000e+01	   1.9824476e+00	   3.0214331e+00	   2.1459493e+00	
   1.1275000e+01	   1.8058965e+00	   3.1808110e+00	   2.0673243e+00	
   1.1330000e+01	   1.5784999e+00	   2.4627044e+00	   1.7934769e+00	
   1.1385000e+01	   1.7070998e+00	   2.8761493e+00	   2.2086393e+00	
   1.1440000e+01	   1.5958789e+00	   3.2881380e+00	   1.7813977e+00	
   1.1495000e+01	   1.5847435e+00	   2.9308653e+00	   1.6766917e+00	
   1.1550000e+01	   1.2768532e+00	   2.3276812e+00	   1.3378627e+00	
   1.1605000e+01	   1.2105491e+00	   2.5865216e+00	   1.6621948e+00	
   1.1660000e+01	   1.7887702e+00	   3.2748862e+00	   2.0398086e+00	
   1.1715000e+01	   1.5016202e+00	   2.5707992e+00	   2.2562775e+00	
   1.1770000e+01	   1.8380013e+00	   3.0878956e+00	   1.8894629e+00	
   1.1825000e+01	   1.6707339e+00	   3.1312817e+00	   1.8955406e+00	
   1.1880000e+01	   1.9762640e+00	   3.5604466e+00	   2.3057655e+00	
   1.1935000e+01	   1.7542852e+00	   3.4184876e+00	   1.9475658e+00	
   1.1990000e+01	   1.6206701e+00	   2.9210711e+00	   2.1858914e+00	
   1.2045000e+01	   1.7172029e+00	   2.7947577e+00	   1.7836467e+00	
   1.2100000e+01	   1.4020100e+00	   3.0362576e+00	   2.0476436e+00	
   1.2155000e+01	   1.2842891e+00	   2.4795740e+00	   1.5894753e+00	
   1.2210000e+01	   1.2543866e+00	   2.4997689e+00	   1.6523608e+00	
   1.2265000e+01	   1.2024532e+00	   2.4178468e+00	   1.7102612e+00	
   1.2320000e+01	   1.5697611e+00	   2.8859646e+00	   1.4891465e+00	
   1.2375000e+01	   1.5752359e+00	   3.1213140e+00	   2.0740009e+00	
   1.2430000e+01	   1.6853812e+00	   3.0399260e+00	   2.0188673e+00	
   1.2485000e+01	   1.6005639e+00	   2.8919584e+00	   2.1156190e+00	
   1.2540000e+01	   1.4894380e+00	   2.6918228e+00	   1.8511121e+00	
   1.2595000e+01	   1.7245479e+00	   2.7753690e+00	   2.0637893e+00	
   1.2650000e+01	   1.6082017e+00	   2.8447225e+00	   1.8682618e+00	
   1.2705000e+01	   1.3183231e+00	   2.3907025e+00	   1.8025343e+00	
   1.2760000e+01	   1.4144922e+00	   2.8633430e+00	   2.0102027e+00	
   1.2815000e+01	   1.2646042e+00	   2.7798002e+00	   1.5361796e+00	
   1.2870000e+01	   1.0864293e+00	   2.4661587e+00	   1.8354405e+00	
   1.2925000e+01	   1.2463287e+00	   2.8601129e+00	   1.7758499e+00	
   1.2980000e+01	   1.4127285e+00	   3.1331379e+00	   2.1152137e+00	
   1.3035000e+01	   1.6050109e+00	   3.3132242e+00	   1.9307161e+00	
   1.3090000e+01	   1.4470685e+00	   3.0185056e+00	   1.9478810e+00	
   1.3145000e+01	   1.5731155e+00	   2.7984710e+00	   2.0419627e+00	
   1.3200000e+01	   1.7199845e+00	   2.8653577e+00	   2.0057327e+00	
   1.3255000e+01	   1.3812892e+00	   2.5776196e+00	   1.9925309e+00	
   1.3310000e+01	   1.4241636e+00	   2.9125753e+00	   2.1375556e+00	
   1.3365000e+01	   1.4009490e+00	   2.3984108e+00	   1.4342138e+00	
   1.3420000e+01	   1.2551653e+00	   2.8161847e+00	   1.4929881e+00	
   1.3475000e+01	   1.3027406e+00	   2.5255151e+00	   1.6387216e+00	
   1.3530000e+01	   1.5183360e+00	   2.8861621e+00	   1.9676318e+00	
   1.3585000e+01	   1.4826181e+00	   2.8122021e+00	   1.5236353e+00	
   1.3640000e+01	   1.8225312e+00	   3.0325224e+00	   2.1285110e+00	
   1.3695000e+01	   1.7504038e+00	   3.1414704e+00	   2.2004493e+00	
   1.3750000e+01	   1.8798732e+00	   3.3021068e+00	   1.9532742e+00	
   1.3805000e+01	   1.6544631e+00	   3.2135907e+00	   2.0407380e+00	
   1.3860000e+01	   1.5985569e+00	   3.0104743e+00	   1.7796710e+00	
   1.3915000e+01	   1.7427238e+00	   3.1841338e+00	   1.7337395e+00	
   1.3970000e+01	   1.5853388e+00	   3.1105115e+00	   1.5751788e+00	
   1.4025000e+01	   1.4266094e+00	   2.6546312e+00	   1.9151436e+00	
   1.4080000e+01	   1.2453518e+00	   2.1441080e+00	   1.7067973e+00	
   1.4135000e+01	   1.3328174e+00	   2.6171733e+00	   1.7689447e+00	
   1.4190000e+01	   1.9018408e+00	   3.2678014e+00	   2.3037521e+00	
   1.4245000e+01	   2.0195329e+00	   2.9354669e+00	   2.0971830e+00	
   1.4300000e+01	   1.8668680e+00	   3.1711866e+00	   2.3243683e+00	
   1.4355000e+01	   1.9506942e+00	   3.4584742e+00	   2.1009634e+00	
   1.4410000e+01	   2.0080406e+00	   3.7429581e+00	   2.5961222e+00	
   1.4465000e+01	   1.9108080e+00	   3.2341415e+00	   2.1226547e+00	
   1.4520000e+01	   1.8137083e+00	   3.2235475e+00	   2.0679870e+00	
   1.4575000e+01	   1.7361008e+00	   3.1294639e+00	   2.3057655e+00	
   1.4630000e+01	   1.7180984e+00	   3.4583318e+00	   2.2847942e+00	
   1.4685000e+01	   1.7281086e+00	   2.8882466e+00	   2.0768920e+00	
   1.4740000e+01	   1.3220084e+00	   2.1090920e+00	   1.7178814e+00	
   1.4795000e+01	   1.5831526e+00	   2.7288390e+00	   1.6625483e+00	
   1.4850000e+01	   1.9904627e+00	   3.4148644e+00	   2.1200336e+00	
   1.4905000e+01	   2.3075855e+00	   3.8630404e+00	   2.8286767e+00	
   1.4960000e+01	   2.0917238e+00	   3.7542342e+00	   2.3462264e+00	
   1.5015000e+01	   2.1965224e+00	   3.5983163e+00	   2.6675420e+00	
   1.5070000e+01	   2.5039217e+00	   4.0398107e+00	   2.5656022e+00	
   1.5125000e+01	   2.2015039e+00	   3.4963236e+00	   2.6564644e+00	
   1.5180000e+01	   2.2777582e+00	   3.1301482e+00	   2.3296660e+00	
   1.5235000e+01	   2.2389524e+00	   3.8535283e+00	   2.2186371e+00	
   1.5290000e+01	   2.3855132e+00	   3.2875601e+00	   2.4054021e+00	
   1.5345000e+01	   2.3281099e+00	   3.4756382e+00	   2.4091516e+00	
   1.5400000e+01	   2.5272114e+00	   3.3288855e+00	   2.4006741e+00	
   1.5455000e+01	   2.2151620e+00	   3.5814625e+00	   2.2706084e+00	
   1.5510000e+01	   2.3662940e+00	   3.0880606e+00	   2.3252438e+00	
   1.5565000e+01	   2.7387597e+00	   4.0702725e+00	   2.7197800e+00	
   1.5620000e+01	   2.8740992e+00	   4.2080109e+00	   2.9975233e+00	
   1.5675000e+01	   2.7605676e+00	   3.8731238e+00	   2.7609959e+00	
   1.5730000e+01	   3.1191624e+00	   4.4500220e+00	   3.3511134e+00	
   1.5785000e+01	   2.9861269e+00	   3.9913565e+00	   3.1870403e+00	
   1.5840000e+01	   2.9226777e+00	   4.1888138e+00	   3.1849268e+00	
   1.5895000e+01	   2.7839814e+00	   3.7843621e+00	   2.9124548e+00	
   1.5950000e+01	   2.9186261e+00	   4.0537143e+00	   2.6648843e+00	
   1.6005000e+01	   3.1167795e+00	   3.8984926e+00	   2.5606726e+00	
   1.6060000e+01	   2.6204555e+00	   3.8669517e+00	   2.8698619e+00	
   1.6115000e+01	   2.5429197e+00	   3.4445813e+00	   2.8033893e+00	
   1.6170000e+01	   2.5646437e+00	   3.6971763e+00	   2.5625628e+00	
   1.6225000e+01	   2.7979860e+00	   3.6007878e+00	   2.6667406e+00	
   1.6280000e+01	   3.3171150e+00	   4.3181045e+00	   2.9928374e+00	
   1.6335000e+01	   3.0628683e+00	   3.6041048e+00	   2.7554620e+00	
   1.6390000e+01	   2.9972962e+00	   4.5578412e+00	   2.9389906e+00	
   1.6445000e+01	   3.4389008e+00	   4.1296894e+00	   3.0257800e+00	
   1.6500000e+01	   2.9993249e+00	   4.0521560e+00	   3.1364709e+00	
   1.6555000e+01	   2.9493532e+00	   3.6722386e+00	   2.8601853e+00	
   1.6610000e+01	   2.8704202e+00	   3.8383035e+00	   2.9981717e+00	
   1.6665000e+01	   2.9271262e+00	   4.0350003e+00	   2.7526040e+00	
   1.6720000e+01	   2.7527403e+00	   3.3070544e+00	   2.3615654e+00	
   1.6775000e+01	   2.6541454e+00	   3.7392031e+00	   2.9473201e+00	
   1.6830000e+01	   2.6952740e+00	   3.1513335e+00	   2.3954029e+00	
   1.6885000e+01	   2.2788016e+00	   3.3665957e+00	   2.4279149e+00	
   1.6940000e+01	   2.8305702e+00	   3.9386327e+00	   2.4765942e+00	
   1.6995000e+01	   3.0582156e+00	   3.9365973e+00	   2.8265092e+00	
   1.7050000e+01	   3.0386237e+00	   3.6410629e+00	   2.5895690e+00	
   1.7105000e+01	   2.9201763e+00	   3.7416562e+00	   2.9975233e+00	
   1.7160000e+01	   2.9231725e+00	   3.7758045e+00	   3.0713935e+00	
   1.7215000e+01	   2.9903555e+00	   3.9122494e+00	   2.8979355e+00	
   1.7270000e+01	   2.7981229e+00	   3.6259427e+00	   2.4387686e+00	
   1.7325000e+01	   2.9260463e+00	   3.7024910e+00	   2.6484000e+00	
   1.7380000e+01	   2.5986387e+00	   3.3153841e+00	   2.5612034e+00	
   1.7435000e+01	   2.6288017e+00	   2.9621222e+00	   2.5931038e+00	
   1.7490000e+01	   2.3234651e+00	   3.1680900e+00	   1.8285723e+00	
   1.7545000e+01	   2.0444356e+00	   2.9761921e+00	   2.1412923e+00	
   1.7600000e+01	   2.4654298e+00	   2.9864714e+00	   2.4660678e+00	
   1.7655000e+01	   2.6452146e+00	   3.2528179e+00	   2.3195906e+00	
   1.7710000e+01	   2.8839023e+00	   4.0552998e+00	   2.8698619e+00	
   1.7765000e+01	   2.8174614e+00	   3.5549479e+00	   2.8371367e+00	
   1.7820000e+01	   3.0489100e+00	   3.7035537e+00	   2.5010989e+00	
   1.7875000e+01	   2.7276771e+00	   3.3655354e+00	   2.7467723e+00	
   1.7930000e+01	   2.7201619e+00	   4.1949625e+00	   2.3273752e+00	
   1.7985000e+01	   2.7370992e+00	   3.5332008e+00	   2.8335474e+00	
   1.8040000e+01	   2.9232546e+00	   3.9054342e+00	   2.7269133e+00	
   1.8095000e+01	   2.6410505e+00	   3.3531745e+00	   2.4791618e+00	
   1.8150000e+01	   2.3317597e+00	   2.9365324e+00	   2.3036455e+00	
   1.8205000e+01	   2.3191794e+00	   2.9054741e+00	   2.1563162e+00	
   1.8260000e+01	   2.2391706e+00	   2.9725835e+00	   2.0681800e+00	
   1.8315000e+01	   2.1181117e+00	   2.3797757e+00	   2.1166026e+00	
   1.8370000e+01	   2.3163272e+00	   3.0411204e+00	   2.2956233e+00	
   1.8425000e+01	   2.6843563e+00	   3.3473668e+00	   2.6722554e+00	
   1.8480000e+01	   2.9999842e+00	   4.3273739e+00	   2.5510856e+00	
   1.8535000e+01	   2.9415961e+00	   3.4988564e+00	   2.4708929e+00	
   1.8590000e+01	   2.6359992e+00	   3.2423253e+00	   2.5038001e+00	
   1.8645000e+01	   2.9791831e+00	   3.5794132e+00	   2.6562980e+00	
   1.8700000e+01	   3.0897893e+00	   3.6631029e+00	   2.8657824e+00	
   1.8755000e+01	   2.8036322e+00	   3.4657577e+00	   2.1736668e+00	
   1.8810000e+01	   2.5993443e+00	   3.0130419e+00	   2.2004493e+00	
   1.8865000e+01	   2.7200716e+00	   3.2254642e+00	   2.0968695e+00	
   1.8920000e+01	   2.5490656e+00	   3.3551777e+00	   2.2833802e+00	
   1.8975000e+01	   2.2786577e+00	   2.6533123e+00	   2.2588603e+00	
   1.9030000e+01	   2.2712562e+00	   2.5637751e+00	   1.6739502e+00	
   1.9085000e+01	   2.3524718e+00	   2.9338762e+00	   1.8640144e+00	
   1.9140000e+01	   2.8931641e+00	   3.7608923e+00	   2.4710601e+00	
   1.9195000e+01	   2.9258851e+00	   3.2265214e+00	   2.5715276e+00	
   1.9250000e+01	   2.9304986e+00	   3.6141684e+00	   2.7580798e+00	
   1.9305000e+01	   2.9125957e+00	   3.7310007e+00	   2.3204814e+00	
   1.9360000e+01	   2.6747525e+00	   3.5149111e+00	   2.4897124e+00	
   1.9415000e+01	   2.8424766e+00	   3.3312273e+00	   2.3460382e+00	
   1.9470000e+01	   2.6004222e+00	   2.8948452e+00	   2.4693243e+00	
   1.9525000e+01	   2.4139757e+00	   3.0479666e+00	   2.2706084e+00	
   1.9580000e+01	   2.6387174e+00	   3.1271864e+00	   2.2095223e+00	
   1.9635000e+01	   2.4588091e+00	   3.0617851e+00	   2.3439797e+00	
   1.9690000e+01	   2.1180998e+00	   2.8045624e+00	   1.6665404e+00	
   1.9745000e+01	   2.1301299e+00	   2.6653008e+00	   1.6888587e+00	
   1.9800000e+01	   2.5226546e+00	   2.9679420e+00	   2.1058323e+00	
   1.9855000e+01	   2.6077488e+00	   3.6030612e+00	   2.2065230e+00	
   1.9910000e+01	   2.7983475e+00	   3.3012811e+00	   2.1551579e+00	
   1.9965000e+01	   2.6282793e+00	   3.1220595e+00	   2.4522176e+00	
   2.0020000e+01	   2.7959104e+00	   3.2403072e+00	   2.2386067e+00	
   2.0075000e+01	   2.9116713e+00	   3.5131423e+00	   2.2439425e+00	
   2.0130000e+01	   2.6666517e+00	   3.0035864e+00	   2.3766089e+00	
   2.0185000e+01	   2.4484327e+00	   3.2594808e+00	   2.5006407e+00	
   2.0240000e+01	   2.4376994e+00	   2.9052809e+00	   1.9824810e+00	
   2.0295000e+01	   2.5194793e+00	   2.6910715e+00	   2.0197276e+00	
   2.0350000e+01	   2.1741974e+00	   2.6614319e+00	   1.9080722e+00	
   2.0405000e+01	   2.1620278e+00	   2.4500010e+00	   1.7311109e+00	
   2.0460000e+01	   2.5175945e+00	   3.2328706e+00	   1.7868247e+00	
   2.0515000e+01	   2.5988101e+00	   3.4143998e+00	   2.2048331e+00	
   2.0570000e+01	   2.6373558e+00	   3.4266098e+00	   2.1656726e+00	
   2.0625000e+01	   2.8164899e+00	   2.9509421e+00	   2.1833761e+00	
   2.0680000e+01	   2.6336809e+00	   2.8878044e+00	   2.0502125e+00	
   2.0735000e+01	   2.7233589e+00	   3.4746395e+00	   2.3090759e+00	
   2.0790000e+01	   2.6097711e+00	   2.9958910e+00	   2.1798362e+00	
   2.0845000e+01	   2.4831584e+00	   3.2604265e+00	   1.9446910e+00	
   2.0900000e+01	   2.4874774e+00	   2.4982208e+00	   1.3733078e+00	
   2.0955000e+01	   2.2018500e+00	   2.3971634e+00	   1.8741503e+00	
   2.1010000e+01	   2.1123269e+00	   2.6299404e+00	   1.5933403e+00	
   2.1065000e+01	   2.3449586e+00	   2.5223218e+00	   1.6531328e+00	
   2.1120000e+01	   2.5091548e+00	   3.0265414e+00	   2.0772833e+00	
   2.1175000e+01	   2.8107545e+00	   3.6885202e+00	   2.2004493e+00	
   2.1230000e+01	   2.9041345e+00	   3.2343709e+00	   2.5116400e+00	
   2.1285000e+01	   2.9812197e+00	   3.4270193e+00	   2.2942550e+00	
   2.1340000e+01	   2.5900970e+00	   2.8188034e+00	   2.5311409e+00	
   2.1395000e+01	   2.5501867e+00	   3.0053178e+00	   2.1933096e+00	
   2.1450000e+01	   2.5009788e+00	   3.5391093e+00	   2.1398130e+00	
   2.1505000e+01	   2.5034831e+00	   2.9153913e+00	   2.4032129e+00	
   2.1560000e+01	   2.1511822e+00	   2.6725845e+00	   1.6048977e+00	
   2.1615000e+01	   2.4493708e+00	   3.0199040e+00	   1.9067153e+00	
   2.1670000e+01	   2.2285709e+00	   2.6590689e+00	   2.0551684e+00	
   2.1725000e+01	   2.6944860e+00	   3.0222310e+00	   1.9797164e+00	
   2.1780000e+01	   2.9186577e+00	   3.4013388e+00	   2.2303224e+00	
   2.1835000e+01	   2.9497316e+00	   3.2784134e+00	   2.4844306e+00	
   2.1890000e+01	   3.1367075e+00	   3.5578544e+00	   2.8505689e+00	
   2.1945000e+01	   3.1579720e+00	   3.3311380e+00	   2.5743316e+00	
   2.2000000e+01	   3.0013805e+00	   3.0200159e+00	   2.2715645e+00	
   2.2055000e+01	   2.7058861e+00	   3.2739578e+00	   2.4392141e+00	
   2.2110000e+01	   2.7025541e+00	   3.5694356e+00	   1.9605930e+00	
   2.2165000e+01	   2.7391087e+00	   3.2859936e+00	   2.4115609e+00	
   2.2220000e+01	   2.8282249e+00	   3.1624303e+00	   2.0846085e+00	
   2.2275000e+01	   2.7072204e+00	   2.9757404e+00	   2.0989495e+00	
   2.2330000e+01	   2.5582310e+00	   2.8030731e+00	   1.7076778e+00	
   2.2385000e+01	   2.4464560e+00	   2.5818238e+00	   1.6164396e+00	
   2.2440000e+01	   2.6676918e+00	   3.0468815e+00	   1.7356955e+00	
   2.2495000e+01	   2.9671903e+00	   3.3160791e+00	   2.3172786e+00	
   2.2550000e+01	   3.3646567e+00	   3.6461864e+00	   2.5833176e+00	
   2.2605000e+01	   3.3238375e+00	   3.5098488e+00	   2.7226108e+00	
   2.2660000e+01	   3.2603711e+00	   3.6764935e+00	   2.4814694e+00	
   2.2715000e+01	   3.0569213e+00	   4.0132086e+00	   2.4024134e+00	
   2.2770000e+01	   3.2476305e+00	   3.5629810e+00	   2.5306512e+00	
   2.2825000e+01	   2.8517436e+00	   3.3595681e+00	   2.5061844e+00	
   2.2880000e+01	   2.8986868e+00	   3.2803108e+00	   2.1481755e+00	
   2.2935000e+01	   2.7159082e+00	   3.3084216e+00	   2.3146946e+00	
   2.2990000e+01	   2.8456041e+00	   3.3116944e+00	   2.0612068e+00	
   2.3045000e+01	   2.6428279e+00	   3.0664866e+00	   2.0844892e+00	
   2.3100000e+01	   2.4702428e+00	   2.9511748e+00	   2.0579138e+00	
   2.3155000e+01	   2.4871561e+00	   2.4904960e+00	   1.8154669e+00	
   2.3210000e+01	   2.9361936e+00	   3.5826551e+00	   2.5731079e+00	
   2.3265000e+01	   3.1066361e+00	   3.0603681e+00	   2.7323448e+00	
   2.3320000e+01	   3.3361595e+00	   3.4266051e+00	   2.5887053e+00	
   2.3375000e+01	   3.0163695e+00	   3.5095013e+00	   2.2354930e+00	
   2.3430000e+01	   3.1491116e+00	   3.5123061e+00	   2.8274574e+00	
   2.3485000e+01	   3.0383962e+00	   3.5510098e+00	   2.5599839e+00	
   2.3540000e+01	   2.9511233e+00	   3.6590987e+00	   2.4862532e+00	
   2.3595000e+01	   2.5809361e+00	   3.1671831e+00	   2.1079575e+00	
   2.3650000e+01	   2.5661376e+00	   3.0257071e+00	   2.2337810e+00	
   2.3705000e+01	   2.4553498e+00	   2.7988027e+00	   2.1166026e+00	
   2.3760000e+01	   2.4237249e+00	   3.0668356e+00	   2.0665256e+00	
   2.3815000e+01	   2.3228906e+00	   2.6490603e+00	   1.8389763e+00	
   2.3870000e+01	   2.1649274e+00	   2.8590725e+00	   1.8738125e+00	
   2.3925000e+01	   2.3437581e+00	   2.9670170e+00	   1.5823495e+00	
   2.3980000e+01	   2.8413763e+00	   3.2805791e+00	   2.2151222e+00	
   2.4035000e+01	   2.7938546e+00	   3.5471522e+00	   2.6601025e+00	
   2.4090000e+01	   2.5876367e+00	   3.1903412e+00	   2.2507783e+00	
   2.4145000e+01	   2.8616003e+00	   3.6477553e+00	   2.5922679e+00	
   2.4200000e+01	   2.8034690e+00	   3.6294735e+00	   2.5667745e+00	
   2.4255000e+01	   2.6809785e+00	   3.0533790e+00	   2.1348515e+00	
   2.4310000e+01	   2.6215324e+00	   3.2843030e+00	   1.8854036e+00	
   2.4365000e+01	   2.5941769e+00	   3.4074161e+00	   2.5010541e+00	
   2.4420000e+01	   2.4875502e+00	   3.4852739e+00	   2.0555351e+00	
   2.4475000e+01	   2.3386772e+00	   3.3252091e+00	   1.9366768e+00	
   2.4530000e+01	   2.1968811e+00	   2.9548141e+00	   1.9029514e+00	
   2.4585000e+01	   2.1227625e+00	   2.7852098e+00	   1.9923607e+00	
   2.4640000e+01	   2.0689606e+00	   2.6672766e+00	   1.9133890e+00	
   2.4695000e+01	   2.0897625e+00	   3.4219258e+00	   1.9390687e+00	
   2.4750000e+01	   2.2439526e+00	   3.1716401e+00	   2.2044165e+00	
   2.4805000e+01	   2.4478076e+00	   2.9900627e+00	   2.2554614e+00	
   2.4860000e+01	   2.5943836e+00	   3.2413541e+00	   2.4594229e+00	
   2.4915000e+01	   2.4282782e+00	   3.2170553e+00	   2.5182978e+00	
   2.4970000e+01	   2.2932893e+00	   3.0429282e+00	   2.0712164e+00	
   2.5025000e+01	   2.4073459e+00	   3.5971814e+00	   2.3396218e+00	
   2.5080000e+01	   2.2171905e+00	   3.2778563e+00	   2.3234328e+00	
   2.5135000e+01	   2.1827434e+00	   2.4039632e+00	   1.8975977e+00	
   2.5190000e+01	   1.9989844e+00	   2.4100751e+00	   1.1918681e+00	
   2.5245000e+01	   1.6952664e+00	   2.9584040e+00	   1.4812633e+00	
   2.5300000e+01	   2.0642438e+00	   2.9023662e+00	   1.7742637e+00	
   2.5355000e+01	   1.7495837e+00	   2.2877034e+00	   1.3517041e+00	
   2.5410000e+01	   2.1509558e+00	   2.7451705e+00	   1.5100922e+00	
   2.5465000e+01	   2.4167215e+00	   3.4446436e+00	   2.0318900e+00	
   2.5520000e+01	   2.3897186e+00	   3.2757886e+00	   2.2389240e+00	
   2.5575000e+01	   2.1761948e+00	   2.7804513e+00	   1.9683429e+00	
   2.5630000e+01	   2.1374322e+00	   2.4389771e+00	   2.0131605e+00	
   2.5685000e+01	   2.2412762e+00	   3.4276344e+00	   1.7710448e+00	
   2.5740000e+01	   2.2274838e+00	   2.9659589e+00	   2.3315946e+00	
   2.5795000e+01	   1.9056103e+00	   2.7308318e+00	   1.8528574e+00	
   2.5850000e+01	   1.6614425e+00	   2.8023723e+00	   1.2381376e+00	
   2.5905000e+01	   1.7331059e+00	   2.0501092e+00	   1.4422210e+00	
   2.5960000e+01	   1.6626658e+00	   2.1458414e+00	   1.3142006e+00	
   2.6015000e+01	   1.5162893e+00	   2.2644855e+00	   1.3063141e+00	
   2.6070000e+01	   2.1320300e+00	   3.2187247e+00	   1.5549152e+00	
   2.6125000e+01	   2.1149972e+00	   3.0120685e+00	   1.7576665e+00	
   2.6180000e+01	   2.0170259e+00	   2.7176477e+00	   1.9045736e+00	
   2.6235000e+01	   2.3165216e+00	   3.1514174e+00	   2.0448058e+00	
   2.6290000e+01	   2.1142846e+00	   3.0092695e+00	   1.9024792e+00	
   2.6345000e+01	   2.0617204e+00	   2.5715501e+00	   1.8820410e+00	
   2.6400000e+01	   1.9922837e+00	   2.6593610e+00	   1.4671888e+00	
   2.6455000e+01	   2.1027653e+00	   3.0071318e+00	   1.7726170e+00	
   2.6510000e+01	   2.0280601e+00	   2.5377890e+00	   1.5988877e+00	
   2.6565000e+01	   1.6795220e+00	   2.3540374e+00	   1.1671711e+00	
   2.6620000e+01	   1.5704235e+00	   2.4407198e+00	   1.6168573e+00	
   2.6675000e+01	   1.5608839e+00	   2.5604033e+00	   1.2876193e+00	
   2.6730000e+01	   1.6612959e+00	   2.5371675e+00	   1.2767798e+00	
   2.6785000e+01	   1.9679771e+00	   2.9044103e+00	   1.3710229e+00	
   2.6840000e+01	   1.7849321e+00	   2.8726340e+00	   1.9238502e+00	
   2.6895000e+01	   2.0444915e+00	   3.4073684e+00	   1.8753900e+00	
   2.6950000e+01	   1.7111336e+00	   2.6894772e+00	   1.6284463e+00	
   2.7005000e+01	   1.7692151e+00	   2.9155357e+00	   1.6894280e+00	
   2.7060000e+01	   1.6851462e+00	   2.9595248e+00	   1.7213745e+00	
   2.7115000e+01	   1.7049995e+00	   2.3619142e+00	   1.3978209e+00	
   2.7170000e+01	   1.6946381e+00	   2.4172198e+00	   1.3128764e+00	
   2.7225000e+01	   1.4235560e+00	   2.3937228e+00	   1.3720849e+00	
   2.7280000e+01	   1.3653142e+00	   2.2960915e+00	   9.4548480e-01	
   2.7335000e+01	   1.1050159e+00	   2.2854928e+00	   9.6381997e-01	
   2.7390000e+01	   1.5336921e+00	   1.7446524e+00	   9.3160724e-01	
   2.7445000e+01	   1.7302808e+00	   2.6367956e+00	   1.6651453e+00	
   2.7500000e+01	   1.8051781e+00	   2.6522356e+00	   1.4743779e+00	
   2.7555000e+01	   2.0527748e+00	   3.3964545e+00	   2.0156467e+00	
   2.7610000e+01	   1.8502466e+00	   2.8644549e+00	   1.7766658e+00	
   2.7665000e+01	   2.0866043e+00	   2.4167889e+00	   1.3186441e+00	
   2.7720000e+01	   1.5690716e+00	   2.4291140e+00	   1.7065201e+00	
   2.7775000e+01	   1.7283884e+00	   3.0593006e+00	   1.3162383e+00	
   2.7830000e+01	   1.6621029e+00	   2.4790890e+00	   1.3214546e+00	
   2.7885000e+01	   1.3099082e+00	   2.4056780e+00	   8.7280478e-01	
   2.7940000e+01	   1.3311734e+00	   2.2772536e+00	   1.0456966e+00	
   2.7995000e+01	   1.3720009e+00	   2.0062676e+00	   9.5984808e-01	
   2.8050000e+01	   1.0483313e+00	   2.3896646e+00	   1.0250695e+00	
   2.8105000e+01	   1.3715030e+00	   2.1661290e+00	   6.8267924e-01	
   2.8160000e+01	   1.6305919e+00	   3.0053560e+00	   1.4843443e+00	
   2.8215000e+01	   1.5732449e+00	   3.0690348e+00	   1.5683529e+00	
   2.8270000e+01	   1.6983375e+00	   2.6633914e+00	   1.5717452e+00	
   2.8325000e+01	   1.8226471e+00	   2.5750569e+00	   1.0440408e+00	
   2.8380000e+01	   1.5865978e+00	   2.4617978e+00	   1.4375904e+00	
   2.8435000e+01	   1.4896536e+00	   2.5181074e+00	   1.0915315e+00	
   2.8490000e+01	   1.8380339e+00	   2.7707610e+00	   9.2420814e-01	
   2.8545000e+01	   1.8077785e+00	   2.1880560e+00	   1.2599205e+00	
   2.8600000e+01	   1.3000491e+00	   2.1925526e+00	   7.2344395e-01	
   2.8655000e+01	   1.2382987e+00	   2.1056810e+00	   9.4804382e-01	
   2.8710000e+01	   1.2891968e+00	   2.2266857e+00	   7.8816690e-01	
   2.8765000e+01	   9.8942947e-01	   1.7762380e+00	   6.0245168e-01	
   2.8820000e+01	   1.3805920e+00	   2.3317366e+00	   9.7705780e-01	
   2.8875000e+01	   1.5385887e+00	   2.4147190e+00	   1.2919682e+00	
   2.8930000e+01	   1.7087548e+00	   2.9970943e+00	   1.4461451e+00	
   2.8985000e+01	   1.6343579e+00	   2.9993542e+00	   1.1528385e+00	
   2.9040000e+01	   1.3421284e+00	   2.0495731e+00	   9.2559936e-01	
   2.9095000e+01	   1.5299874e+00	   2.4888890e+00	   1.5300472e+00	
   2.9150000e+01	   1.5003033e+00	   2.3781821e+00	   1.1677197e+00	
   2.9205000e+01	   1.6060116e+00	   2.0478605e+00	   7.5129922e-01	
   2.9260000e+01	   1.2949623e+00	   1.9668078e+00	   9.3288525e-01	
   2.9315000e+01	   1.1602907e+00	   1.9483374e+00	   8.3265660e-01	
   2.9370000e+01	   1.1901054e+00	   2.1920391e+00	   9.3586496e-01	
   2.9425000e+01	   1.0022989e+00	   2.0284425e+00	   1.0132195e+00	
   2.9480000e+01	   1.3420175e+00	   2.6146918e+00	   9.4418997e-01	
   2.9535000e+01	   1.7051687e+00	   2.6991346e+00	   1.6167238e+00	
   2.9590000e+01	   1.5527001e+00	   2.7283585e+00	   1.1548137e+00	
   2.9645000e+01	   1.4776344e+00	   2.2686352e+00	   1.2059491e+00	
   2.9700000e+01	   1.4787809e+00	   2.3538254e+00	   1.0242411e+00	
   2.9755000e+01	   1.5295174e+00	   2.4075348e+00	   9.7985745e-01	
   2.9810000e+01	   1.6881237e+00	   2.2989059e+00	   1.1764678e+00	
   2.9865000e+01	   1.6000292e+00	   2.4013875e+00	   1.0029542e+00	
   2.9920000e+01	   1.3303160e+00	   2.0271550e+00	   7.8306022e-01	
   2.9975000e+01	   1.2928312e+00	   2.0455015e+00	   6.9470646e-01	
   3.0030000e+01	   1.3238464e+00	   1.9395195e+00	   7.5047691e-01	
   3.0085000e+01	   1.7252685e+00	   2.2572555e+00	   1.0857509e+00	
   3.0140000e+01	   1.8829024e+00	   2.8155893e+00	   1.1537366e+00	
   3.0195000e+01	   1.8300973e+00	   2.1600747e+00	   1.1061433e+00	
   3.0250000e+01	   1.9138571e+00	   2.8943621e+00	   1.1450373e+00	
   3.0305000e+01	   2.0652360e+00	   2.3701017e+00	   1.1913905e+00	
   3.0360000e+01	   1.8572674e+00	   2.5332597e+00	   8.4002472e-01	
   3.0415000e+01	   2.0568038e+00	   2.4905027e+00	   9.2712700e-01	
   3.0470000e+01	   1.8442653e+00	   1.9071471e+00	   8.4320855e-01	
   3.0525000e+01	   2.2275069e+00	   2.2597733e+00	   9.2817089e-01	
   3.0580000e+01	   1.7895351e+00	   2.0636426e+00	   8.4232225e-01	
   3.0635000e+01	   1.6197358e+00	   1.9087137e+00	   5.2471606e-01	
   3.0690000e+01	   1.6608303e+00	   1.9564224e+00	   9.4055442e-01	
   3.0745000e+01	   2.2134786e+00	   2.3688702e+00	   1.0400414e+00	
   3.0800000e+01	   2.5271906e+00	   2.9689799e+00	   1.5557645e+00	
   3.0855000e+01	   2.7950533e+00	   2.5792093e+00	   1.4536744e+00	
   3.0910000e+01	   2.7529268e+00	   2.8247154e+00	   1.0192969e+00	
   3.0965000e+01	   2.6948235e+00	   2.7030172e+00	   1.1430370e+00	
   3.1020000e+01	   2.7645173e+00	   2.4606469e+00	   1.6545618e+00	
   3.1075000e+01	   2.4458443e+00	   2.5328639e+00	   9.3949406e-01	
   3.1130000e+01	   2.4826867e+00	   2.5860961e+00	   9.2817089e-01	
   3.1185000e+01	   2.3322698e+00	   2.2251244e+00	   1.1704623e+00	
   3.1240000e+01	   2.5023831e+00	   2.2171034e+00	   9.3310941e-01	
   3.1295000e+01	   2.2147289e+00	   2.1511456e+00	   8.5557330e-01	
   3.1350000e+01	   2.2312043e+00	   2.3024762e+00	   1.0156687e+00	
   3.1405000e+01	   2.4863181e+00	   2.3431185e+00	   1.0126253e+00	
   3.1460000e+01	   2.9613399e+00	   2.9456003e+00	   1.2449960e+00	
   3.1515000e+01	   2.8218202e+00	   2.1506378e+00	   1.4842028e+00	
   3.1570000e+01	   2.8403990e+00	   2.9350665e+00	   1.2015153e+00	
   3.1625000e+01	   3.0956893e+00	   3.1337197e+00	   1.1540951e+00	
   3.1680000e+01	   2.9554496e+00	   3.2052162e+00	   8.2949298e-01	
   3.1735000e+01	   2.7670181e+00	   3.1585772e+00	   1.2621571e+00	
   3.1790000e+01	   2.6137255e+00	   2.3347237e+00	   9.4055442e-01	
   3.1845000e+01	   2.3733931e+00	   2.0091394e+00	   1.0035440e+00	
   3.1900000e+01	   2.5432542e+00	   2.6927165e+00	   1.0583018e+00	
   3.1955000e+01	   2.4943582e+00	   2.5777996e+00	   1.0157048e+00	
   3.2010000e+01	   2.3890078e+00	   2.4644701e+00	   8.5083064e-01	
   3.2065000e+01	   2.7339546e+00	   2.4029651e+00	   8.9010499e-01	
   3.2120000e+01	   2.7897293e+00	   2.9323963e+00	   1.4467444e+00	
   3.2175000e+01	   2.8127608e+00	   2.7469019e+00	   1.0772299e+00	
   3.2230000e+01	   2.7818053e+00	   2.8179099e+00	   1.1278598e+00	
   3.2285000e+01	   2.8783460e+00	   2.7578916e+00	   1.2798843e+00	
   3.2340000e+01	   2.7788276e+00	   2.7303222e+00	   1.3556935e+00	
   3.2395000e+01	   2.9254671e+00	   3.0798806e+00	   1.1837636e+00	
   3.2450000e+01	   2.8089976e+00	   2.7098078e+00	   1.2498807e+00	
   3.2505000e+01	   2.6452335e+00	   2.7847192e+00	   7.0173918e-01	
   3.2560000e+01	   2.6215600e+00	   2.6269294e+00	   9.9812976e-01	
   3.2615000e+01	   2.5254674e+00	   2.7683966e+00	   1.1761463e+00	
   3.2670000e+01	   2.4688260e+00	   2.0581566e+00	   8.9830774e-01	
   3.2725000e+01	   2.1951493e+00	   2.3089535e+00	   9.3090529e-01	
   3.2780000e+01	   2.5269261e+00	   2.4745905e+00	   6.4823932e-01	
   3.2835000e+01	   3.2571942e+00	   3.1811718e+00	   1.5325563e+00	
   3.2890000e+01	   2.7901983e+00	   3.3945804e+00	   1.4611683e+00	
   3.2945000e+01	   3.0017703e+00	   2.8392271e+00	   1.5424258e+00	
   3.3000000e+01	   2.8664570e+00	   2.4629110e+00	   1.4147189e+00	
   3.3055000e+01	   2.8858044e+00	   2.8651152e+00	   1.4970577e+00	
   3.3110000e+01	   2.8879597e+00	   2.7972756e+00	   8.8419612e-01	
   3.3165000e+01	   2.8041220e+00	   2.5504664e+00	   9.5310258e-01	
   3.3220000e+01	   2.7828433e+00	   2.8730357e+00	   1.1582922e+00	
   3.3275000e+01	   2.7221892e+00	   2.2300857e+00	   1.1334824e+00	
   3.3330000e+01	   2.4855366e+00	   2.5247400e+00	   8.0590253e-01	
   3.3385000e+01	   2.6478329e+00	   2.4684042e+00	   8.7440654e-01	
   3.3440000e+01	   2.8838764e+00	   2.7020332e+00	   1.4686819e+00	
   3.3495000e+01	   2.9665822e+00	   3.0466852e+00	   1.3154749e+00	
   3.3550000e+01	   2.9024987e+00	   3.1385371e+00	   1.1402898e+00	
   3.3605000e+01	   2.8842297e+00	   2.6247069e+00	   1.1722812e+00	
   3.3660000e+01	   2.8011416e+00	   2.7525262e+00	   1.0370292e+00	
   3.3715000e+01	   2.9228954e+00	   3.0414543e+00	   1.4668801e+00	
   3.3770000e+01	   2.7906735e+00	   2.6118396e+00	   1.1184978e+00	
   3.3825000e+01	   2.8460209e+00	   2.6126131e+00	   8.4009127e-01	
   3.3880000e+01	   2.6246882e+00	   2.2373410e+00	   7.5064427e-01	
   3.3935000e+01	   2.6443595e+00	   2.3989147e+00	   1.1435523e+00	
   3.3990000e+01	   2.6178749e+00	   2.4278211e+00	   1.0003576e+00	
   3.4045000e+01	   3.1355916e+00	   3.0298446e+00	   1.2143763e+00	
   3.4100000e+01	   3.1966271e+00	   3.2321145e+00	   1.6283183e+00	
   3.4155000e+01	   3.0935149e+00	   3.1603315e+00	   1.4179920e+00	
   3.4210000e+01	   3.0890066e+00	   2.8176555e+00	   1.6024166e+00	
   3.4265000e+01	   3.2190064e+00	   3.1651671e+00	   1.1887486e+00	
   3.4320000e+01	   3.0568746e+00	   2.5332662e+00	   1.4022422e+00	
   3.4375000e+01	   3.2672960e+00	   3.3268753e+00	   1.7549512e+00	
   3.4430000e+01	   3.1771660e+00	   2.8912565e+00	   1.0603489e+00	
   3.4485000e+01	   2.9146563e+00	   2.5721445e+00	   1.1083376e+00	
   3.4540000e+01	   2.7936272e+00	   2.3096038e+00	   7.8580642e-01	
   3.4595000e+01	   2.5921412e+00	   2.3903700e+00	   1.2496165e+00	
   3.4650000e+01	   2.8541897e+00	   2.9092510e+00	   1.1430370e+00	
   3.4705000e+01	   2.9810927e+00	   2.6802135e+00	   1.5203901e+00	
   3.4760000e+01	   3.2521770e+00	   2.9001386e+00	   1.7037678e+00	
   3.4815000e+01	   3.3842190e+00	   3.3408065e+00	   1.7379316e+00	
   3.4870000e+01	   3.3745321e+00	   3.1871884e+00	   1.5512651e+00	
   3.4925000e+01	   3.1929376e+00	   2.7339756e+00	   1.2592275e+00	
   3.4980000e+01	   3.1634712e+00	   2.9867663e+00	   1.2034311e+00	
   3.5035000e+01	   3.1873405e+00	   2.8375254e+00	   1.4918830e+00	
   3.5090000e+01	   3.2904490e+00	   2.5122251e+00	   1.3797767e+00	
   3.5145000e+01	   3.1996782e+00	   2.8913922e+00	   1.4045796e+00	
   3.5200000e+01	   2.8087648e+00	   2.3447349e+00	   1.0870388e+00	
   3.5255000e+01	   2.9487955e+00	   2.3826968e+00	   1.1390131e+00	
   3.5310000e+01	   3.1948378e+00	   3.1257203e+00	   1.6324515e+00	
   3.5365000e+01	   3.4208126e+00	   3.4155822e+00	   2.1312601e+00	
   3.5420000e+01	   3.3849431e+00	   3.4771509e+00	   1.9674571e+00	
   3.5475000e+01	   3.5151388e+00	   3.3400463e+00	   1.6168573e+00	
   3.5530000e+01	   3.6822937e+00	   3.2367144e+00	   2.2644079e+00	
   3.5585000e+01	   3.3837034e+00	   3.0532966e+00	   1.7963372e+00	
   3.5640000e+01	   3.2135944e+00	   2.8335019e+00	   1.5487027e+00	
   3.5695000e+01	   3.3959609e+00	   3.1066158e+00	   1.7720062e+00	
   3.5750000e+01	   3.4165690e+00	   3.6405926e+00	   1.8226414e+00	
   3.5805000e+01	   3.1917296e+00	   3.2705174e+00	   1.3825612e+00	
   3.5860000e+01	   3.1576552e+00	   2.6136508e+00	   1.2491662e+00	
   3.5915000e+01	   2.9553822e+00	   2.7059215e+00	   1.4949751e+00	
   3.5970000e+01	   3.0884689e+00	   3.0782290e+00	   1.5660416e+00	
   3.6025000e+01	   3.2892968e+00	   3.1187770e+00	   1.7609552e+00	
   3.6080000e+01	   3.4708714e+00	   3.2712950e+00	   2.1711834e+00	
   3.6135000e+01	   3.8403111e+00	   3.3962032e+00	   2.2002331e+00	
   3.6190000e+01	   3.7992659e+00	   3.9316792e+00	   2.5072576e+00	
   3.6245000e+01	   3.6756955e+00	   3.6555865e+00	   2.1320000e+00	
   3.6300000e+01	   3.7484630e+00	   3.2363218e+00	   1.6751558e+00	
   3.6355000e+01	   3.7425128e+00	   3.4381242e+00	   2.0802455e+00	
   3.6410000e+01	   3.4458712e+00	   3.3650705e+00	   1.7792421e+00	
   3.6465000e+01	   3.4130636e+00	   3.4716334e+00	   2.1527884e+00	
   3.6520000e+01	   3.2923184e+00	   3.3406044e+00	   1.8065916e+00	
   3.6575000e+01	   3.1831922e+00	   2.9328107e+00	   1.5754500e+00	
   3.6630000e+01	   3.2723219e+00	   3.1966549e+00	   1.9996349e+00	
   3.6685000e+01	   3.2562798e+00	   3.6141056e+00	   1.9489389e+00	
   3.6740000e+01	   3.4764147e+00	   3.1816081e+00	   2.4148003e+00	
   3.6795000e+01	   3.5596767e+00	   3.6534460e+00	   2.0481742e+00	
   3.6850000e+01	   3.8764032e+00	   4.0206945e+00	   2.4610377e+00	
   3.6905000e+01	   3.8251718e+00	   3.9540549e+00	   2.5214937e+00	
   3.6960000e+01	   3.4982529e+00	   3.5973141e+00	   1.9738318e+00	
   3.7015000e+01	   3.5493678e+00	   3.2489094e+00	   2.4182843e+00	
   3.7070000e+01	   3.6102143e+00	   3.3466467e+00	   2.1753706e+00	
   3.7125000e+01	   3.6803560e+00	   3.6989943e+00	   2.6194238e+00	
   3.7180000e+01	   3.1880890e+00	   2.9865390e+00	   1.9488963e+00	
   3.7235000e+01	   3.2949108e+00	   3.3201762e+00	   2.0093401e+00	
   3.7290000e+01	   3.3071852e+00	   2.9311915e+00	   1.9548026e+00	
   3.7345000e+01	   2.8800120e+00	   3.3351456e+00	   1.9515505e+00	
   3.7400000e+01	   3.2601227e+00	   3.0531748e+00	   2.0064555e+00	
   3.7455000e+01	   3.3496790e+00	   3.6694319e+00	   2.1007076e+00	
   3.7510000e+01	   3.6801909e+00	   3.7503836e+00	   2.6216498e+00	
   3.7565000e+01	   3.5865378e+00	   3.9207631e+00	   2.8234200e+00	
   3.7620000e+01	   3.8028116e+00	   4.0918762e+00	   2.7245028e+00	
   3.7675000e+01	   3.6830513e+00	   3.7856867e+00	   2.2874276e+00	
   3.7730000e+01	   3.5569201e+00	   3.6766310e+00	   2.5074344e+00	
   3.7785000e+01	   3.5887640e+00	   4.0476221e+00	   2.3944863e+00	
   3.7840000e+01	   3.3768719e+00	   3.6597310e+00	   1.9821728e+00	
   3.7895000e+01	   3.1348737e+00	   3.1230509e+00	   2.1897039e+00	
   3.7950000e+01	   3.1147255e+00	   3.1427671e+00	   2.1711834e+00	
   3.8005000e+01	   3.1247896e+00	   3.1699855e+00	   2.1051831e+00	
   3.8060000e+01	   3.5032785e+00	   3.8879619e+00	   2.4363556e+00	
   3.8115000e+01	   3.5461212e+00	   3.2628693e+00	   2.7748233e+00	
   3.8170000e+01	   3.6140995e+00	   3.7918617e+00	   2.4211676e+00	
   3.8225000e+01	   3.4426995e+00	   3.9057764e+00	   2.9526343e+00	
   3.8280000e+01	   3.7700675e+00	   4.2119623e+00	   2.5869893e+00	
   3.8335000e+01	   3.5954759e+00	   3.5761796e+00	   2.5138345e+00	
   3.8390000e+01	   3.5452890e+00	   3.2692115e+00	   2.2257039e+00	
   3.8445000e+01	   3.2434814e+00	   3.8674746e+00	   2.1115864e+00	
   3.8500000e+01	   3.3424060e+00	   3.5670196e+00	   2.2270051e+00	
   3.8555000e+01	   3.2120620e+00	   3.4312794e+00	   2.4940465e+00	
   3.8610000e+01	   2.9293376e+00	   3.2432957e+00	   1.9848804e+00	
   3.8665000e+01	   3.3770938e+00	   3.8839654e+00	   2.2896627e+00	
   3.8720000e+01	   3.7227828e+00	   4.0613755e+00	   2.7820015e+00	
   3.8775000e+01	   3.7845535e+00	   4.1290963e+00	   2.2636825e+00	
   3.8830000e+01	   3.8459031e+00	   3.7992424e+00	   2.9366735e+00	
   3.8885000e+01	   3.5104563e+00	   4.1557608e+00	   2.1753824e+00	
   3.8940000e+01	   3.8902688e+00	   3.4472396e+00	   2.8412347e+00	
   3.8995000e+01	   3.5137680e+00	   4.1312869e+00	   2.6514361e+00	
   3.9050000e+01	   3.2382246e+00	   3.3685578e+00	   2.2687096e+00	
   3.9105000e+01	   3.3445433e+00	   3.7012622e+00	   2.5351510e+00	
   3.9160000e+01	   3.5529516e+00	   3.8613951e+00	   2.3564730e+00	
   3.9215000e+01	   3.3015064e+00	   3.3758697e+00	   2.4005307e+00	
   3.9270000e+01	   3.3570454e+00	   3.7537245e+00	   2.3464289e+00	
   3.9325000e+01	   3.5131400e+00	   3.7818096e+00	   2.2752407e+00	
   3.9380000e+01	   3.6801685e+00	   3.6764503e+00	   2.5223346e+00	
   3.9435000e+01	   4.1072899e+00	   4.2579614e+00	   2.8293284e+00	
   3.9490000e+01	   3.7882943e+00	   4.2490045e+00	   2.4522176e+00	
   3.9545000e+01	   3.8028037e+00	   3.7716101e+00	   2.6343371e+00	
   3.9600000e+01	   3.8823573e+00	   4.3469587e+00	   3.0343663e+00	
   3.9655000e+01	   3.9664252e+00	   4.0326134e+00	   2.6816321e+00	
   3.9710000e+01	   3.9354178e+00	   4.4472121e+00	   2.6645931e+00	
   3.9765000e+01	   3.7220272e+00	   3.6818240e+00	   2.2588603e+00	
   3.9820000e+01	   3.5069150e+00	   3.7588726e+00	   2.2875234e+00	
   3.9875000e+01	   3.5682413e+00	   3.7555590e+00	   2.5499777e+00	
   3.9930000e+01	   3.5234221e+00	   3.6455711e+00	   2.2893014e+00	
   3.9985000e+01	   3.9099207e+00	   3.9152673e+00	   2.7605686e+00	
   4.0040000e+01	   3.9550689e+00	   4.9139406e+00	   2.9473201e+00	
   4.0095000e+01	   4.2657672e+00	   4.5244507e+00	   3.2481858e+00	
   4.0150000e+01	   3.9413623e+00	   4.1913737e+00	   2.7165663e+00	
   4.0205000e+01	   3.9024007e+00	   3.9601615e+00	   2.9823011e+00	
   4.0260000e+01	   4.1886515e+00	   4.4759913e+00	   2.9384138e+00	
   4.0315000e+01	   4.0219773e+00	   4.4669000e+00	   3.0231983e+00	
   4.0370000e+01	   3.9169673e+00	   4.2012166e+00	   2.8096731e+00	
   4.0425000e+01	   3.6501976e+00	   4.0350447e+00	   2.3716167e+00	
   4.0480000e+01	   3.4979700e+00	   3.7546498e+00	   2.8186619e+00	
   4.0535000e+01	   3.6479361e+00	   3.8419878e+00	   2.2926464e+00	
   4.0590000e+01	   3.6190990e+00	   3.6321480e+00	   2.1671030e+00	
   4.0645000e+01	   3.8739836e+00	   4.4928180e+00	   2.8288194e+00	
   4.0700000e+01	   3.9708139e+00	   4.5117322e+00	   2.7538614e+00	
   4.0755000e+01	   4.3641980e+00	   4.3113097e+00	   3.1780809e+00	
   4.0810000e+01	   4.0455928e+00	   4.4591730e+00	   3.1798306e+00	
   4.0865000e+01	   3.8620460e+00	   3.8531804e+00	   2.7408575e+00	
   4.0920000e+01	   3.9818162e+00	   4.6207876e+00	   3.0075883e+00	
   4.0975000e+01	   4.0103108e+00	   4.5542444e+00	   2.9737343e+00	
   4.1030000e+01	   4.1876443e+00	   4.2379158e+00	   3.1149361e+00	
   4.1085000e+01	   3.8260707e+00	   4.2958477e+00	   2.7240117e+00	
   4.1140000e+01	   3.7166978e+00	   3.6370941e+00	   2.7000101e+00	
   4.1195000e+01	   3.9358525e+00	   4.1822500e+00	   2.7451293e+00	
   4.1250000e+01	   4.1259319e+00	   3.9441608e+00	   2.9832372e+00	
   4.1305000e+01	   4.1801130e+00	   4.4712035e+00	   2.7925206e+00	
   4.1360000e+01	   4.2082016e+00	   4.1676097e+00	   3.0358594e+00	
   4.1415000e+01	   4.2101391e+00	   4.8819266e+00	   3.1780809e+00	
   4.1470000e+01	   4.2955375e+00	   4.4271204e+00	   3.0387522e+00	
   4.1525000e+01	   4.1482942e+00	   4.0316897e+00	   2.9792649e+00	
   4.1580000e+01	   3.9725619e+00	   4.4035793e+00	   2.5038704e+00	
   4.1635000e+01	   3.7701861e+00	   4.5273225e+00	   3.0531658e+00	
   4.1690000e+01	   3.6720061e+00	   4.0605767e+00	   2.7471533e+00	
   4.1745000e+01	   3.4675761e+00	   3.9836053e+00	   2.6962833e+00	
   4.1800000e+01	   3.6280626e+00	   3.5465823e+00	   2.3790153e+00	
   4.1855000e+01	   4.1083380e+00	   4.6614605e+00	   2.8826392e+00	
   4.1910000e+01	   3.9524933e+00	   4.8281175e+00	   3.1891636e+00	
   4.1965000e+01	   4.2778594e+00	   4.6213760e+00	   3.0495485e+00	
   4.2020000e+01	   4.2712793e+00	   4.8079739e+00	   3.3700193e+00	
   4.2075000e+01	   4.1866969e+00	   4.7713315e+00	   2.8806901e+00	
   4.2130000e+01	   4.2310975e+00	   4.3004325e+00	   3.0660174e+00	
   4.2185000e+01	   4.0759584e+00	   4.3732656e+00	   3.2496239e+00	
   4.2240000e+01	   3.8189031e+00	   4.7394940e+00	   2.8978373e+00	
   4.2295000e+01	   3.8017963e+00	   4.0179202e+00	   2.6195934e+00	
   4.2350000e+01	   3.7234993e+00	   3.8780817e+00	   2.8265656e+00	
   4.2405000e+01	   3.5651413e+00	   3.9259118e+00	   2.4188786e+00	
   4.2460000e+01	   3.3683834e+00	   3.3182901e+00	   2.2179986e+00	
   4.2515000e+01	   4.0344037e+00	   4.1454077e+00	   2.8717785e+00	
   4.2570000e+01	   3.9150275e+00	   4.5208025e+00	   2.4926994e+00	
   4.2625000e+01	   4.1133938e+00	   4.5568285e+00	   3.1123060e+00	
   4.2680000e+01	   3.9208555e+00	   4.5846368e+00	   3.0407622e+00	
   4.2735000e+01	   4.1406467e+00	   4.6048923e+00	   3.3315693e+00	
   4.2790000e+01	   4.1466900e+00	   4.8505801e+00	   3.6301958e+00	
   4.2845000e+01	   3.9454136e+00	   4.1372992e+00	   2.8098629e+00	
   4.2900000e+01	   3.6158205e+00	   4.4404954e+00	   2.8589327e+00	
   4.2955000e+01	   3.6003718e+00	   4.2738907e+00	   2.4173384e+00	
   4.3010000e+01	   3.6320881e+00	   4.1970592e+00	   2.7961285e+00	
   4.3065000e+01	   3.5600004e+00	   4.0783540e+00	   2.7066978e+00	
   4.3120000e+01	   3.2102492e+00	   3.7295765e+00	   2.8395358e+00	
   4.3175000e+01	   3.3231820e+00	   3.7131180e+00	   2.1653852e+00	
   4.3230000e+01	   3.5961707e+00	   4.2385110e+00	   2.3146946e+00	
   4.3285000e+01	   3.7416817e+00	   4.0728989e+00	   2.9474128e+00	
   4.3340000e+01	   3.7317300e+00	   4.2415592e+00	   2.8203629e+00	
   4.3395000e+01	   3.9285539e+00	   4.6445892e+00	   3.3165533e+00	
   4.3450000e+01	   3.9934676e+00	   4.5281589e+00	   3.2467331e+00	
   4.3505000e+01	   3.8730310e+00	   4.4631447e+00	   2.6885952e+00	
   4.3560000e+01	   3.7397240e+00	   4.2807375e+00	   3.3019758e+00	
   4.3615000e+01	   3.5418992e+00	   3.7014678e+00	   3.0893564e+00	
   4.3670000e+01	   3.5274855e+00	   4.2193114e+00	   2.9492024e+00	
   4.3725000e+01	   3.4005491e+00	   4.1690032e+00	   2.8768652e+00	
   4.3780000e+01	   3.1986635e+00	   3.7543859e+00	   2.6134538e+00	
   4.3835000e+01	   3.1868512e+00	   3.9300175e+00	   2.6474553e+00	
   4.3890000e+01	   3.0911255e+00	   3.6657458e+00	   2.6154929e+00	
   4.3945000e+01	   2.9419245e+00	   3.9309389e+00	   2.8541793e+00	
   4.4000000e+01	   3.5424282e+00	   3.8893864e+00	   2.8784745e+00	
   4.4055000e+01	   3.2309975e+00	   4.2352214e+00	   2.9152970e+00	
   4.4110000e+01	   3.7029436e+00	   4.3176184e+00	   3.0748146e+00	
   4.4165000e+01	   3.8786527e+00	   4.2981418e+00	   3.4532660e+00	
   4.4220000e+01	   3.4867785e+00	   4.3616059e+00	   3.2800258e+00	
   4.4275000e+01	   3.4354623e+00	   4.4425256e+00	   2.8742340e+00	
   4.4330000e+01	   3.5120782e+00	   4.2775065e+00	   3.0377944e+00	
   4.4385000e+01	   3.3440332e+00	   4.2704855e+00	   2.8010345e+00	
   4.4440000e+01	   3.4468411e+00	   4.1138475e+00	   2.6603760e+00	
   4.4495000e+01	   2.9737369e+00	   3.6635721e+00	   2.9588709e+00	
   4.4550000e+01	   2.8356032e+00	   3.7749942e+00	   2.7090084e+00	
   4.4605000e+01	   2.8437772e+00	   3.7417614e+00	   2.6635813e+00	
   4.4660000e+01	   2.5209101e+00	   3.1114757e+00	   2.3479848e+00	
   4.4715000e+01	   2.0927879e+00	   3.0680048e+00	   1.7744641e+00	
   4.4770000e+01	   2.6388334e+00	   3.2649897e+00	   2.4883597e+00	
   4.4825000e+01	   3.0299510e+00	   3.8483023e+00	   3.2007205e+00	
   4.4880000e+01	   3.0692818e+00	   3.8578070e+00	   3.3671213e+00	
   4.4935000e+01	   3.0642203e+00	   3.8470166e+00	   2.6831359e+00	
   4.4990000e+01	   3.2407664e+00	   3.7901750e+00	   2.9897198e+00	
   4.5045000e+01	   3.1099264e+00	   4.0528493e+00	   2.7070133e+00	
   4.5100000e+01	   3.0013591e+00	   4.1127928e+00	   2.8048424e+00	
   4.5155000e+01	   2.8379166e+00	   3.6726767e+00	   2.7240117e+00	
   4.5210000e+01	   2.5271460e+00	   3.2834362e+00	   2.3844039e+00	
   4.5265000e+01	   2.8429921e+00	   3.4997065e+00	   2.6026552e+00	
   4.5320000e+01	   2.5577486e+00	   3.3189964e+00	   2.4430810e+00	
   4.5375000e+01	   2.4734735e+00	   3.2846637e+00	   2.0608459e+00	
   4.5430000e+01	   2.0359870e+00	   2.8960757e+00	   1.7414434e+00	
   4.5485000e+01	   2.3404923e+00	   3.0825204e+00	   2.2979370e+00	
   4.5540000e+01	   2.6692081e+00	   3.5445238e+00	   2.5627844e+00	
   4.5595000e+01	   2.8506491e+00	   3.2246612e+00	   2.6625436e+00	
   4.5650000e+01	   2.8633908e+00	   3.5889919e+00	   2.7475460e+00	
   4.5705000e+01	   2.7004956e+00	   3.7308516e+00	   2.6924167e+00	
   4.5760000e+01	   2.4910436e+00	   3.6467840e+00	   2.4414378e+00	
   4.5815000e+01	   2.5916659e+00	   2.9776356e+00	   2.5669434e+00	
   4.5870000e+01	   2.2712654e+00	   3.1501238e+00	   2.7872097e+00	
   4.5925000e+01	   2.2788327e+00	   3.1872779e+00	   2.5331980e+00	
   4.5980000e+01	   2.3955664e+00	   3.5426380e+00	   2.2202559e+00	
   4.6035000e+01	   2.1778760e+00	   3.2369488e+00	   1.9532458e+00	
   4.6090000e+01	   1.9953166e+00	   2.9795205e+00	   2.3835051e+00	
   4.6145000e+01	   1.9253314e+00	   2.6700774e+00	   2.0896846e+00	
   4.6200000e+01	   2.0931706e+00	   2.6203845e+00	   1.8184082e+00	
   4.6255000e+01	   2.1356857e+00	   2.7253518e+00	   1.9681807e+00	
   4.6310000e+01	   2.0842498e+00	   2.9828932e+00	   2.1219958e+00	
   4.6365000e+01	   2.3958418e+00	   3.1915061e+00	   2.4650437e+00	
   4.6420000e+01	   2.4728594e+00	   3.4401615e+00	   2.4784157e+00	
   4.6475000e+01	   2.3180815e+00	   3.0036768e+00	   2.3435065e+00	
   4.6530000e+01	   2.3339062e+00	   3.0656343e+00	   2.4992561e+00	
   4.6585000e+01	   2.3445710e+00	   2.9132931e+00	   2.4022808e+00	
   4.6640000e+01	   2.3301687e+00	   2.7868477e+00	   2.1112802e+00	
   4.6695000e+01	   1.9231591e+00	   2.5099942e+00	   1.8541393e+00	
   4.6750000e+01	   1.8924484e+00	   2.3420005e+00	   1.8027070e+00	
   4.6805000e+01	   2.0636982e+00	   2.6384268e+00	   1.8056330e+00	
   4.6860000e+01	   1.5725377e+00	   2.2606481e+00	   1.7136741e+00	
   4.6915000e+01	   1.9054627e+00	   2.6405816e+00	   2.2336470e+00	
   4.6970000e+01	   2.2297784e+00	   3.0527005e+00	   1.5903112e+00	
   4.7025000e+01	   2.3181079e+00	   2.8512791e+00	   2.0587002e+00	
   4.7080000e+01	   2.3985105e+00	   2.9826787e+00	   2.1949326e+00	
   4.7135000e+01	   2.4213248e+00	   2.6035795e+00	   2.0551684e+00	
   4.7190000e+01	   2.3205293e+00	   3.0440887e+00	   1.8574083e+00	
   4.7245000e+01	   2.4192162e+00	   3.0606578e+00	   2.1831170e+00	
   4.7300000e+01	   2.0977848e+00	   2.5153218e+00	   1.7936364e+00	
   4.7355000e+01	   1.9743304e+00	   2.4560699e+00	   1.6005614e+00	
   4.7410000e+01	   1.8841834e+00	   2.1203483e+00	   1.7183888e+00	
   4.7465000e+01	   1.6014013e+00	   1.9141333e+00	   1.3921318e+00	
   4.7520000e+01	   1.8378242e+00	   2.4788773e+00	   1.3769426e+00	
   4.7575000e+01	   2.0794591e+00	   2.8037100e+00	   1.6605112e+00	
   4.7630000e+01	   2.3437365e+00	   2.9101829e+00	   2.2184915e+00	
   4.7685000e+01	   2.0835757e+00	   2.6951450e+00	   1.8426738e+00	
   4.7740000e+01	   1.9199871e+00	   2.6019051e+00	   1.7722409e+00	
   4.7795000e+01	   2.1381210e+00	   2.5250806e+00	   1.7526806e+00	
   4.7850000e+01	   1.7015908e+00	   2.6049054e+00	   1.5119438e+00	
   4.7905000e+01	   1.9671545e+00	   2.5340225e+00	   1.4730996e+00	
   4.7960000e+01	   1.8738678e+00	   2.1481899e+00	   1.2458545e+00	
   4.8015000e+01	   1.8375671e+00	   2.4856823e+00	   1.4955991e+00	
   4.8070000e+01	   1.4479654e+00	   1.9216493e+00	   1.2597393e+00	
   4.8125000e+01	   1.4242615e+00	   1.9857782e+00	   9.8461182e-01	
   4.8180000e+01	   1.9152505e+00	   2.6222200e+00	   1.2886121e+00	
   4.8235000e+01	   2.3686053e+00	   2.1492384e+00	   2.0982718e+00	
   4.8290000e+01	   2.1108218e+00	   2.3552152e+00	   1.7203809e+00	
   4.8345000e+01	   2.1000360e+00	   2.1391129e+00	   1.2776866e+00	
   4.8400000e+01	   2.3274125e+00	   2.7036624e+00	   2.0936623e+00	
   4.8455000e+01	   2.1315868e+00	   2.2550778e+00	   2.0659962e+00	
   4.8510000e+01	   2.0900567e+00	   2.1020623e+00	   1.2210316e+00	
   4.8565000e+01	   1.7122616e+00	   2.4456355e+00	   1.4740090e+00	
   4.8620000e+01	   1.9223582e+00	   2.4782601e+00	   1.4282163e+00	
   4.8675000e+01	   1.9068731e+00	   1.9951167e+00	   1.2303378e+00	
   4.8730000e+01	   1.6452759e+00	   2.0448332e+00	   1.0525613e+00	
   4.8785000e+01	   2.1426343e+00	   2.0383372e+00	   1.4307588e+00	
   4.8840000e+01	   2.3272830e+00	   2.9591374e+00	   1.0997918e+00	
   4.8895000e+01	   2.4033705e+00	   2.6005095e+00	   1.4991490e+00	
   4.8950000e+01	   2.3078209e+00	   2.7340261e+00	   1.9115816e+00	
   4.9005000e+01	   2.3390665e+00	   3.2457564e+00	   1.5280367e+00	
   4.9060000e+01	   2.4737803e+00	   3.1302338e+00	   1.5480496e+00	
   4.9115000e+01	   2.6765521e+00	   2.6991112e+00	   1.8422060e+00	
   4.9170000e+01	   2.5120123e+00	   2.5870718e+00	   2.0275481e+00	
   4.9225000e+01	   2.4412313e+00	   2.5576065e+00	   1.3362850e+00	
   4.9280000e+01	   2.2589279e+00	   2.4151906e+00	   1.4774908e+00	
   4.9335000e+01	   2.2403219e+00	   2.6772710e+00	   1.3893600e+00	
   4.9390000e+01	   2.1608033e+00	   2.0166652e+00	   1.2587458e+00	
   4.9445000e+01	   2.2368530e+00	   2.3429842e+00	   1.3018088e+00	
   4.9500000e+01	   2.4550280e+00	   3.3191746e+00	   1.7117719e+00	
   4.9555000e+01	   2.8355734e+00	   3.4295203e+00	   2.4303857e+00	
   4.9610000e+01	   2.7930669e+00	   3.0571800e+00	   2.3080005e+00	
   4.9665000e+01	   2.5531539e+00	   2.5669045e+00	   1.9042411e+00	
   4.9720000e+01	   2.7445824e+00	   3.1283762e+00	   1.7217172e+00	
   4.9775000e+01	   3.0135487e+00	   3.0382143e+00	   2.1518910e+00	
   4.9830000e+01	   2.6899783e+00	   3.2696121e+00	   1.8908837e+00	
   4.9885000e+01	   2.6057220e+00	   2.8788038e+00	   1.8160039e+00	
   4.9940000e+01	   2.7814332e+00	   3.0540563e+00	   2.0275481e+00	
   4.9995000e+01	   2.7052167e+00	   3.2594972e+00	   1.9297597e+00	
   5.0050000e+01	   2.4430710e+00	   2.8088104e+00	   1.4852259e+00	
   5.0105000e+01	   2.3215070e+00	   1.9893586e+00	   1.4918393e+00	
   5.0160000e+01	   2.3323870e+00	   2.3391576e+00	   1.4891051e+00	
   5.0215000e+01	   2.9441427e+00	   3.0871506e+00	   1.9889006e+00	
   5.0270000e+01	   3.1991645e+00	   3.0257565e+00	   2.2004493e+00	
   5.0325000e+01	   2.8930836e+00	   3.5195781e+00	   2.1639814e+00	
   5.0380000e+01	   3.1022893e+00	   3.1402258e+00	   2.0014566e+00	
   5.0435000e+01	   3.0123811e+00	   3.3513944e+00	   2.2902100e+00	
   5.0490000e+01	   3.2241602e+00	   3.5020637e+00	   2.0118224e+00	
   5.0545000e+01	   2.8894946e+00	   3.0196408e+00	   2.1964049e+00	
   5.0600000e+01	   2.8801744e+00	   3.0029785e+00	   1.9061922e+00	
   5.0655000e+01	   2.9605141e+00	   3.0205633e+00	   2.4972341e+00	
   5.0710000e+01	   2.7089579e+00	   2.8458856e+00	   1.6446401e+00	
   5.0765000e+01	   2.7174889e+00	   2.6259823e+00	   1.5198486e+00	
   5.0820000e+01	   2.4666503e+00	   2.6758026e+00	   1.5283864e+00	
   5.0875000e+01	   2.3944828e+00	   2.7904213e+00	   1.4408353e+00	
   5.0930000e+01	   2.9305449e+00	   3.1608171e+00	   1.4619382e+00	
   5.0985000e+01	   3.2014998e+00	   3.5483382e+00	   1.9562089e+00	
   5.1040000e+01	   3.1271970e+00	   3.2243195e+00	   1.9432285e+00	
   5.1095000e+01	   3.3799381e+00	   3.3961234e+00	   2.5199244e+00	
   5.1150000e+01	   3.4148727e+00	   3.5867781e+00	   2.4926835e+00	
   5.1205000e+01	   3.4302392e+00	   3.2850716e+00	   2.2264513e+00	
   5.1260000e+01	   3.3027324e+00	   3.5524345e+00	   2.2376145e+00	
   5.1315000e+01	   3.0010160e+00	   3.4990041e+00	   2.0669926e+00	
   5.1370000e+01	   2.9782383e+00	   2.7201353e+00	   2.2230880e+00	
   5.1425000e+01	   3.1888336e+00	   2.9285211e+00	   2.2072699e+00	
   5.1480000e+01	   2.7344705e+00	   2.9642001e+00	   1.7937818e+00	
   5.1535000e+01	   2.9220910e+00	   2.8364491e+00	   1.9249297e+00	
   5.1590000e+01	   2.7406353e+00	   2.6013062e+00	   1.7037392e+00	
   5.1645000e+01	   2.6282976e+00	   2.8629585e+00	   1.8002734e+00	
   5.1700000e+01	   2.8489377e+00	   3.3786177e+00	   2.3844039e+00	
   5.1755000e+01	   3.0513984e+00	   2.9247175e+00	   2.2931631e+00	
   5.1810000e+01	   3.3019850e+00	   3.2950196e+00	   2.8404700e+00	
   5.1865000e+01	   2.8380146e+00	   3.4941827e+00	   2.0487442e+00	
   5.1920000e+01	   3.0499893e+00	   3.0702335e+00	   2.0476436e+00	
   5.1975000e+01	   2.8591061e+00	   3.0801938e+00	   2.0819577e+00	
   5.2030000e+01	   3.2299154e+00	   3.6194953e+00	   2.4542250e+00	
   5.2085000e+01	   3.0034405e+00	   3.1914034e+00	   1.9050193e+00	
   5.2140000e+01	   2.6721591e+00	   2.9535710e+00	   1.8741503e+00	
   5.2195000e+01	   2.6562952e+00	   2.9915500e+00	   1.5004481e+00	
   5.2250000e+01	   2.3548573e+00	   3.0236641e+00	   1.6024689e+00	
   5.2305000e+01	   2.4683619e+00	   2.9801687e+00	   1.8289945e+00	
   5.2360000e+01	   2.8041608e+00	   3.0754078e+00	   2.0073074e+00	
   5.2415000e+01	   2.8785006e+00	   3.3794303e+00	   1.8951899e+00	
   5.2470000e+01	   2.9443605e+00	   3.3586277e+00	   2.0487007e+00	
   5.2525000e+01	   3.2058839e+00	   3.0561162e+00	   2.0942332e+00	
   5.2580000e+01	   2.9053973e+00	   3.2476090e+00	   1.8560899e+00	
   5.2635000e+01	   3.0471426e+00	   3.1916540e+00	   2.1639425e+00	
   5.2690000e+01	   2.8475519e+00	   3.2454202e+00	   2.2072699e+00	
   5.2745000e+01	   2.8127548e+00	   2.8005130e+00	   1.8662463e+00	
   5.2800000e+01	   2.4307995e+00	   2.6530464e+00	   1.5463003e+00	
   5.2855000e+01	   2.6002367e+00	   3.0367496e+00	   1.3641958e+00	
   5.2910000e+01	   2.3492694e+00	   2.6361698e+00	   1.4027727e+00	
   5.2965000e+01	   2.8092474e+00	   2.9743085e+00	   1.8340851e+00	
   5.3020000e+01	   3.0572829e+00	   3.4685910e+00	   2.3351019e+00	
   5.3075000e+01	   2.7808768e+00	   3.1774111e+00	   1.9183629e+00	
   5.3130000e+01	   3.0459818e+00	   3.4652002e+00	   1.8717995e+00	
   5.3185000e+01	   2.9744030e+00	   2.9485488e+00	   2.1457427e+00	
   5.3240000e+01	   2.8096906e+00	   3.4055423e+00	   2.0681800e+00	
   5.3295000e+01	   2.6442675e+00	   2.8692324e+00	   1.9560899e+00	
   5.3350000e+01	   2.9232408e+00	   3.3250984e+00	   1.5755786e+00	
   5.3405000e+01	   2.4788637e+00	   2.8700146e+00	   1.8508798e+00	
   5.3460000e+01	   2.5780947e+00	   2.8360163e+00	   1.3991271e+00	
   5.3515000e+01	   2.3058466e+00	   2.4151055e+00	   1.5644686e+00	
   5.3570000e+01	   2.3325100e+00	   2.9021577e+00	   1.1550339e+00	
   5.3625000e+01	   2.7285571e+00	   3.2150252e+00	   1.6509958e+00	
   5.3680000e+01	   3.1752937e+00	   3.8081533e+00	   2.1348515e+00	
   5.3735000e+01	   3.0598636e+00	   3.2738404e+00	   2.2091105e+00	
   5.3790000e+01	   3.0841241e+00	   3.4947527e+00	   2.5498614e+00	
   5.3845000e+01	   3.1090580e+00	   3.5820958e+00	   2.2873134e+00	
   5.3900000e+01	   3.1468772e+00	   3.0625200e+00	   2.5944340e+00	
   5.3955000e+01	   3.0361473e+00	   3.4485899e+00	   1.9492538e+00	
   5.4010000e+01	   2.8170434e+00	   3.1691481e+00	   2.1243703e+00	
   5.4065000e+01	   3.0197121e+00	   3.3595148e+00	   1.9726057e+00	
   5.4120000e+01	   2.9206876e+00	   3.2493530e+00	   2.0659962e+00	
   5.4175000e+01	   2.6424544e+00	   2.6725765e+00	   1.8892400e+00	
   5.4230000e+01	   2.3628431e+00	   2.4183408e+00	   1.4863602e+00	
   5.4285000e+01	   2.7143982e+00	   3.1494039e+00	   1.7123492e+00	
   5.4340000e+01	   3.0748592e+00	   3.8518151e+00	   2.2690027e+00	
   5.4395000e+01	   3.1396244e+00	   3.6322195e+00	   2.0443149e+00	
   5.4450000e+01	   3.6136480e+00	   3.5246786e+00	   2.3990519e+00	
   5.4505000e+01	   3.2884213e+00	   3.4635858e+00	   2.4682613e+00	
   5.4560000e+01	   3.4140132e+00	   3.6768185e+00	   2.5253746e+00	
   5.4615000e+01	   3.4320112e+00	   3.4732914e+00	   2.5551370e+00	
   5.4670000e+01	   3.1834887e+00	   3.5283444e+00	   2.1003474e+00	
   5.4725000e+01	   3.2259438e+00	   3.6840738e+00	   2.2078747e+00	
   5.4780000e+01	   3.2130775e+00	   3.4304378e+00	   1.9824810e+00	
   5.4835000e+01	   3.1496062e+00	   3.5085510e+00	   2.4235656e+00	
   5.4890000e+01	   2.6314159e+00	   2.7189361e+00	   1.7836201e+00	
   5.4945000e+01	   2.6760683e+00	   2.9338892e+00	   1.8368765e+00	
   5.5000000e+01	   2.5118832e+00	   3.4092767e+00	   1.6665363e+00	
   5.5055000e+01	   3.1567559e+00	   3.4313947e+00	   2.0600219e+00	
   5.5110000e+01	   3.3753358e+00	   3.9620729e+00	   1.9505830e+00	
   5.5165000e+01	   3.2034585e+00	   4.0184644e+00	   2.6556482e+00	
   5.5220000e+01	   3.4332493e+00	   4.0040883e+00	   2.4871527e+00	
   5.5275000e+01	   3.3371036e+00	   3.9901835e+00	   2.3160708e+00	
   5.5330000e+01	   3.1582054e+00	   4.0179829e+00	   2.1110137e+00	
   5.5385000e+01	   3.2049719e+00	   3.9673793e+00	   2.4285723e+00	
   5.5440000e+01	   3.1901260e+00	   3.8798604e+00	   2.6518060e+00	
   5.5495000e+01	   3.1248979e+00	   3.4449440e+00	   2.2741586e+00	
   5.5550000e+01	   2.8248176e+00	   3.0882810e+00	   1.7950272e+00	
   5.5605000e+01	   3.0898159e+00	   3.3899562e+00	   2.0798272e+00	
   5.5660000e+01	   2.7091028e+00	   3.3504801e+00	   1.9238813e+00	
   5.5715000e+01	   2.4891453e+00	   3.2021035e+00	   1.9045736e+00	
   5.5770000e+01	   2.7280442e+00	   3.1299217e+00	   1.7590069e+00	
   5.5825000e+01	   3.2772566e+00	   3.6632575e+00	   1.9446910e+00	
   5.5880000e+01	   3.3479133e+00	   3.7515125e+00	   2.6114730e+00	
   5.5935000e+01	   3.3679731e+00	   3.8342160e+00	   2.5791471e+00	
   5.5990000e+01	   3.3161786e+00	   3.8417626e+00	   2.6877527e+00	
   5.6045000e+01	   3.2476569e+00	   3.8340395e+00	   2.3304017e+00	
   5.6100000e+01	   3.1445846e+00	   3.7492599e+00	   2.3801868e+00	
   5.6155000e+01	   3.4465442e+00	   4.3751462e+00	   2.4140899e+00	
   5.6210000e+01	   2.9556285e+00	   3.1926707e+00	   2.0681800e+00	
   5.6265000e+01	   2.9666569e+00	   3.3365477e+00	   1.7003350e+00	
   5.6320000e+01	   2.9705543e+00	   3.6183844e+00	   2.1673172e+00	
   5.6375000e+01	   2.6083226e+00	   3.4626059e+00	   2.1292565e+00	
   5.6430000e+01	   2.5169946e+00	   3.1976375e+00	   1.7518417e+00	
   5.6485000e+01	   2.2380195e+00	   2.6436130e+00	   1.2903249e+00	
   5.6540000e+01	   3.0736449e+00	   3.1499049e+00	   2.2353796e+00	
   5.6595000e+01	   3.1552097e+00	   3.7214343e+00	   2.5835489e+00	
   5.6650000e+01	   3.2269905e+00	   3.7458771e+00	   2.5777460e+00	
   5.6705000e+01	   3.2117095e+00	   3.4026668e+00	   2.2660251e+00	
   5.6760000e+01	   3.1751432e+00	   3.7161682e+00	   2.3928104e+00	
   5.6815000e+01	   3.3999563e+00	   3.7011388e+00	   2.2072699e+00	
   5.6870000e+01	   3.1509464e+00	   3.0358263e+00	   2.2072699e+00	
   5.6925000e+01	   3.0839685e+00	   3.3030187e+00	   2.3627267e+00	
   5.6980000e+01	   2.9265751e+00	   3.0617067e+00	   2.0345000e+00	
   5.7035000e+01	   2.8954626e+00	   3.2586603e+00	   2.2603238e+00	
   5.7090000e+01	   2.8731250e+00	   2.9087361e+00	   1.6013740e+00	
   5.7145000e+01	   2.5764734e+00	   3.5143380e+00	   2.0107170e+00	
   5.7200000e+01	   2.8319309e+00	   3.5436073e+00	   1.6404995e+00	
   5.7255000e+01	   3.0573183e+00	   3.2472898e+00	   2.3186204e+00	
   5.7310000e+01	   3.1384526e+00	   3.8359420e+00	   2.2555471e+00	
   5.7365000e+01	   3.1855450e+00	   3.7863321e+00	   2.1110260e+00	
   5.7420000e+01	   3.1269239e+00	   3.2509068e+00	   2.3121203e+00	
   5.7475000e+01	   3.1770019e+00	   3.8288731e+00	   2.1976553e+00	
   5.7530000e+01	   3.2078058e+00	   3.4329295e+00	   2.1803257e+00	
   5.7585000e+01	   2.8140442e+00	   3.0961901e+00	   2.0900745e+00	
   5.7640000e+01	   2.5918965e+00	   3.0439305e+00	   2.0210749e+00	
   5.7695000e+01	   2.7410745e+00	   3.1516057e+00	   1.9321350e+00	
   5.7750000e+01	   2.5521060e+00	   2.6577868e+00	   1.7766658e+00	
   5.7805000e+01	   2.3735879e+00	   2.5839006e+00	   1.7119381e+00	
   5.7860000e+01	   2.5626287e+00	   3.4826077e+00	   2.0179389e+00	
   5.7915000e+01	   3.2164975e+00	   3.8429683e+00	   1.8883266e+00	
   5.7970000e+01	   3.2106080e+00	   3.2725913e+00	   2.5877623e+00	
   5.8025000e+01	   3.0187626e+00	   3.4072451e+00	   2.0872836e+00	
   5.8080000e+01	   2.8620642e+00	   3.7281570e+00	   2.3292599e+00	
   5.8135000e+01	   2.9603362e+00	   3.6594851e+00	   2.0211384e+00	
   5.8190000e+01	   2.8684549e+00	   3.3347380e+00	   1.8216512e+00	
   5.8245000e+01	   2.7485830e+00	   3.1563435e+00	   1.8783392e+00	
   5.8300000e+01	   2.6278657e+00	   2.9578625e+00	   1.8237185e+00	
   5.8355000e+01	   2.6181350e+00	   3.0110712e+00	   1.6177513e+00	
   5.8410000e+01	   2.4892464e+00	   2.6845784e+00	   1.7119381e+00	
   5.8465000e+01	   2.5506296e+00	   2.9763378e+00	   1.4056406e+00	
   5.8520000e+01	   2.8403492e+00	   3.2352590e+00	   1.6973952e+00	
   5.8575000e+01	   3.0626767e+00	   3.6545323e+00	   2.3881253e+00	
   5.8630000e+01	   3.4629261e+00	   4.3526994e+00	   2.7400286e+00	
   5.8685000e+01	   3.2633402e+00	   3.9630149e+00	   2.6704627e+00	
   5.8740000e+01	   3.0100279e+00	   3.5283831e+00	   2.2504065e+00	
   5.8795000e+01	   2.9633548e+00	   3.7856577e+00	   2.2133717e+00	
   5.8850000e+01	   3.3179905e+00	   3.7341605e+00	   2.3331332e+00	
   5.8905000e+01	   3.0936470e+00	   3.9212555e+00	   1.8753900e+00	
   5.8960000e+01	   2.7945612e+00	   2.9613521e+00	   1.6013740e+00	
   5.9015000e+01	   2.9495631e+00	   2.8387452e+00	   1.9632665e+00	
   5.9070000e+01	   2.8079439e+00	   3.4655809e+00	   1.9156879e+00	
   5.9125000e+01	   2.6387917e+00	   3.1459294e+00	   1.7394657e+00	
   5.9180000e+01	   2.9468831e+00	   3.7771652e+00	   1.6509958e+00	
   5.9235000e+01	   3.6661989e+00	   3.6012161e+00	   2.2050685e+00	
   5.9290000e+01	   3.4001582e+00	   4.0526011e+00	   2.7988519e+00	
   5.9345000e+01	   3.8416124e+00	   4.0984365e+00	   2.6006768e+00	
   5.9400000e+01	   3.5212530e+00	   4.3231113e+00	   2.5220374e+00	
   5.9455000e+01	   3.5907966e+00	   3.9726144e+00	   2.4140899e+00	
   5.9510000e+01	   3.5559283e+00	   4.0529079e+00	   2.5372270e+00	
   5.9565000e+01	   3.5640430e+00	   4.1108633e+00	   2.7699434e+00	
   5.9620000e+01	   3.4311526e+00	   4.0992591e+00	   2.1219958e+00	
   5.9675000e+01	   3.3281258e+00	   3.5684571e+00	   2.3170257e+00	
   5.9730000e+01	   3.4020055e+00	   3.7190753e+00	   2.4318390e+00	
   5.9785000e+01	   3.4340757e+00	   3.8458507e+00	   2.3647756e+00	
   5.9840000e+01	   3.2516909e+00	   3.6003271e+00	   2.3627864e+00	
   5.9895000e+01	   3.5706003e+00	   3.5739967e+00	   2.6684443e+00	
   5.9950000e+01	   3.8915874e+00	   3.6600719e+00	   2.8328482e+00	
   6.0005000e+01	   4.1157688e+00	   4.1791995e+00	   3.0443487e+00	
   6.0060000e+01	   3.9282962e+00	   4.0185986e+00	   2.9647343e+00	
   6.0115000e+01	   3.9035294e+00	   3.9331031e+00	   2.7434288e+00	
   6.0170000e+01	   4.0558959e+00	   4.3868497e+00	   2.4063647e+00	
   6.0225000e+01	   4.0438291e+00	   4.1655386e+00	   2.8121189e+00	
   6.0280000e+01	   3.7577229e+00	   3.5674293e+00	   2.1933056e+00	
   6.0335000e+01	   3.8000421e+00	   3.8992740e+00	   2.3230562e+00	
   6.0390000e+01	   3.5581508e+00	   3.6925077e+00	   2.1961397e+00	
   6.0445000e+01	   3.6492633e+00	   3.9359401e+00	   2.4772470e+00	
   6.0500000e+01	   3.4700548e+00	   3.2390385e+00	   2.3496746e+00	
   6.0555000e+01	   3.3099682e+00	   3.3513566e+00	   2.2478478e+00	
   6.0610000e+01	   3.8395935e+00	   3.9912452e+00	   2.7183777e+00	
   6.0665000e+01	   4.0109439e+00	   4.0788785e+00	   3.0068406e+00	
   6.0720000e+01	   4.0417648e+00	   4.6181379e+00	   2.7645516e+00	
   6.0775000e+01	   4.1498924e+00	   4.6154385e+00	   2.9558365e+00	
   6.0830000e+01	   4.1486819e+00	   4.4141937e+00	   2.9796860e+00	
   6.0885000e+01	   4.0405428e+00	   4.2648870e+00	   2.9352074e+00	
   6.0940000e+01	   3.9651517e+00	   4.2415913e+00	   2.7082408e+00	
   6.0995000e+01	   3.9960644e+00	   3.7031061e+00	   2.6636494e+00	
   6.1050000e+01	   3.6502901e+00	   3.8606287e+00	   2.2847596e+00	
   6.1105000e+01	   3.6708391e+00	   4.0819864e+00	   2.4027518e+00	
   6.1160000e+01	   3.2153685e+00	   3.8528095e+00	   2.0926989e+00	
   6.1215000e+01	   3.2083974e+00	   3.8025448e+00	   1.9488414e+00	
   6.1270000e+01	   3.2445769e+00	   3.4418538e+00	   2.0763684e+00	
   6.1325000e+01	   3.7354037e+00	   3.8725541e+00	   2.7275743e+00	
   6.1380000e+01	   3.8011085e+00	   4.4498100e+00	   2.5387312e+00	
   6.1435000e+01	   3.8937777e+00	   4.2077352e+00	   2.7554891e+00	
   6.1490000e+01	   3.8685376e+00	   4.3790186e+00	   3.0621879e+00	
   6.1545000e+01	   4.0243171e+00	   4.3851117e+00	   2.6789217e+00	
   6.1600000e+01	   3.7770393e+00	   4.1769369e+00	   2.6719830e+00	
   6.1655000e+01	   3.8731655e+00	   4.0230078e+00	   2.2915246e+00	
   6.1710000e+01	   3.4036015e+00	   4.0361272e+00	   2.1504825e+00	
   6.1765000e+01	   3.5736768e+00	   4.3790947e+00	   2.7784442e+00	
   6.1820000e+01	   3.3836068e+00	   3.6912535e+00	   2.1088569e+00	
   6.1875000e+01	   3.4257931e+00	   3.6950430e+00	   2.2815610e+00	
   6.1930000e+01	   3.3195080e+00	   3.8679873e+00	   2.2556504e+00	
   6.1985000e+01	   3.7785299e+00	   4.2951981e+00	   2.1831986e+00	
   6.2040000e+01	   4.1751058e+00	   4.4233516e+00	   3.1267861e+00	
   6.2095000e+01	   3.8222595e+00	   4.3257033e+00	   2.7203427e+00	
   6.2150000e+01	   3.6281854e+00	   4.1881715e+00	   2.8400514e+00	
   6.2205000e+01	   3.8480819e+00	   4.1636562e+00	   2.9326659e+00	
   6.2260000e+01	   3.7557105e+00	   3.9194097e+00	   2.4825192e+00	
   6.2315000e+01	   3.6966636e+00	   4.1406588e+00	   2.2526595e+00	
   6.2370000e+01	   3.4686279e+00	   4.7184427e+00	   2.3997958e+00	
   6.2425000e+01	   3.4378437e+00	   4.1234725e+00	   2.3144915e+00	
   6.2480000e+01	   3.2249555e+00	   3.5859209e+00	   2.0953796e+00	
   6.2535000e+01	   3.2765209e+00	   3.9769088e+00	   2.0060755e+00	
   6.2590000e+01	   3.1430836e+00	   3.1913442e+00	   1.9876749e+00	
   6.2645000e+01	   3.5010922e+00	   3.8829251e+00	   2.5052873e+00	
   6.2700000e+01	   3.7343477e+00	   4.1540922e+00	   2.8511745e+00	
   6.2755000e+01	   3.5413025e+00	   3.9186026e+00	   2.5731283e+00	
   6.2810000e+01	   3.7869906e+00	   4.0406122e+00	   2.6128357e+00	
   6.2865000e+01	   3.6145521e+00	   4.0050123e+00	   2.3532701e+00	
   6.2920000e+01	   3.7368944e+00	   4.2875639e+00	   2.6301443e+00	
   6.2975000e+01	   3.7174254e+00	   3.8456773e+00	   2.0311456e+00	
   6.3030000e+01	   3.3534745e+00	   4.0542071e+00	   2.2556504e+00	
   6.3085000e+01	   3.4616533e+00	   4.2911662e+00	   2.2788250e+00	
   6.3140000e+01	   3.4387979e+00	   3.8869010e+00	   2.1843095e+00	
   6.3195000e+01	   3.3308260e+00	   3.8110554e+00	   2.2555237e+00	
   6.3250000e+01	   3.0222005e+00	   3.0705369e+00	   1.7296536e+00	
   6.3305000e+01	   2.7910726e+00	   2.8385560e+00	   1.6769357e+00	
   6.3360000e+01	   3.3890813e+00	   3.7660490e+00	   2.0060755e+00	
   6.3415000e+01	   3.5394463e+00	   4.2003425e+00	   2.4421850e+00	
   6.3470000e+01	   3.3788501e+00	   3.7988744e+00	   2.7236500e+00	
   6.3525000e+01	   3.5231008e+00	   4.3266575e+00	   2.5949381e+00	
   6.3580000e+01	   3.6030787e+00	   4.4483874e+00	   2.2062620e+00	
   6.3635000e+01	   3.6840489e+00	   4.1327918e+00	   2.3087793e+00	
   6.3690000e+01	   3.3961471e+00	   4.1649046e+00	   1.9734415e+00	
   6.3745000e+01	   3.4344715e+00	   3.4793094e+00	   2.2342159e+00	
   6.3800000e+01	   3.0718976e+00	   3.7423675e+00	   1.8458878e+00	
   6.3855000e+01	   3.2020029e+00	   3.9682448e+00	   2.0072910e+00	
   6.3910000e+01	   3.0223819e+00	   3.6632364e+00	   1.7112608e+00	
   6.3965000e+01	   2.9062782e+00	   4.0264063e+00	   1.9125262e+00	
   6.4020000e+01	   2.8744516e+00	   3.9101957e+00	   1.8360691e+00	
   6.4075000e+01	   3.2235379e+00	   4.5756342e+00	   1.8343464e+00	
   6.4130000e+01	   3.4732869e+00	   4.1474008e+00	   1.9982684e+00	
   6.4185000e+01	   3.2998161e+00	   4.1055633e+00	   1.9754115e+00	
   6.4240000e+01	   3.6253773e+00	   4.2970899e+00	   2.5932007e+00	
   6.4295000e+01	   3.4072592e+00	   4.6114488e+00	   2.2771684e+00	
   6.4350000e+01	   3.1559369e+00	   4.0245036e+00	   2.0312184e+00	
   6.4405000e+01	   3.3069991e+00	   4.0202256e+00	   2.0127563e+00	
   6.4460000e+01	   3.3808116e+00	   4.1043005e+00	   1.6755654e+00	
   6.4515000e+01	   3.2896173e+00	   3.8532132e+00	   1.8362346e+00	
   6.4570000e+01	   3.0785180e+00	   3.5061955e+00	   1.4278160e+00	
   6.4625000e+01	   2.5877026e+00	   3.9213722e+00	   1.9072518e+00	
   6.4680000e+01	   2.8781651e+00	   3.7638740e+00	   1.7049827e+00	
   6.4735000e+01	   2.4795290e+00	   3.4741475e+00	   1.5805388e+00	
   6.4790000e+01	   2.9596210e+00	   3.5707869e+00	   1.7298004e+00	
   6.4845000e+01	   3.1326154e+00	   4.1139619e+00	   2.3622301e+00	
   6.4900000e+01	   3.3024011e+00	   4.0957908e+00	   2.3204144e+00	
   6.4955000e+01	   3.4066444e+00	   4.8043968e+00	   2.5164349e+00	
   6.5010000e+01	   3.2194044e+00	   4.0443011e+00	   1.9306923e+00	
   6.5065000e+01	   3.1827717e+00	   4.5555225e+00	   2.1641849e+00	
   6.5120000e+01	   3.0034183e+00	   3.9023683e+00	   1.8810752e+00	
   6.5175000e+01	   2.8757981e+00	   3.7166312e+00	   1.5608856e+00	
   6.5230000e+01	   2.7644132e+00	   3.6425869e+00	   1.6689580e+00	
   6.5285000e+01	   2.6555301e+00	   3.5997685e+00	   1.8212148e+00	
   6.5340000e+01	   2.5253536e+00	   3.1847563e+00	   1.4986544e+00	
   6.5395000e+01	   2.3668296e+00	   3.6634707e+00	   1.4627593e+00	
   6.5450000e+01	   2.8554092e+00	   3.7822243e+00	   1.5865192e+00	
   6.5505000e+01	   2.7872596e+00	   3.7330195e+00	   1.8146842e+00	
   6.5560000e+01	   3.1138198e+00	   3.8530933e+00	   2.4021418e+00	
   6.5615000e+01	   3.1410899e+00	   4.1570370e+00	   2.1498753e+00	
   6.5670000e+01	   3.0188019e+00	   3.8555792e+00	   1.7195647e+00	
   6.5725000e+01	   2.8513449e+00	   3.9851412e+00	   2.1924520e+00	
   6.5780000e+01	   2.6597724e+00	   3.6865103e+00	   1.7073981e+00	
   6.5835000e+01	   2.6125311e+00	   3.6409437e+00	   1.7712914e+00	
   6.5890000e+01	   2.4870220e+00	   3.2342119e+00	   1.4805718e+00	
   6.5945000e+01	   2.2173038e+00	   3.0582517e+00	   1.1382220e+00	
   6.6000000e+01	   2.1169768e+00	   3.3703272e+00	   1.1409346e+00	
   6.6055000e+01	   2.6818955e+00	   3.5656090e+00	   1.6507895e+00	
   6.6110000e+01	   2.7818362e+00	   3.9208659e+00	   2.0411962e+00	
   6.6165000e+01	   2.9747262e+00	   3.8664551e+00	   2.0409857e+00	
   6.6220000e+01	   2.7500455e+00	   3.7541280e+00	   1.8100551e+00	
   6.6275000e+01	   2.6765818e+00	   4.3096352e+00	   2.3263177e+00	
   6.6330000e+01	   2.7662343e+00	   3.8396283e+00	   1.8489680e+00	
   6.6385000e+01	   2.6930292e+00	   3.8142746e+00	   1.3154749e+00	
   6.6440000e+01	   2.6354591e+00	   3.4706800e+00	   1.5714381e+00	
   6.6495000e+01	   2.5142851e+00	   3.3172804e+00	   1.1738843e+00	
   6.6550000e+01	   2.3773211e+00	   3.1029008e+00	   1.4446250e+00	
   6.6605000e+01	   2.2988331e+00	   3.5494402e+00	   1.6628232e+00	
   6.6660000e+01	   2.1405406e+00	   3.0128446e+00	   1.3355635e+00	
   6.6715000e+01	   2.4964266e+00	   3.6036344e+00	   1.4730149e+00	
   6.6770000e+01	   2.8314902e+00	   4.0361549e+00	   2.0117616e+00	
   6.6825000e+01	   2.8964563e+00	   3.7908469e+00	   1.9792648e+00	
   6.6880000e+01	   2.7394004e+00	   3.6564365e+00	   1.8714968e+00	
   6.6935000e+01	   2.7869369e+00	   3.9838157e+00	   1.8677937e+00	
   6.6990000e+01	   2.8306879e+00	   4.1795664e+00	   1.5966510e+00	
   6.7045000e+01	   2.8191932e+00	   4.1031423e+00	   1.2980650e+00	
   6.7100000e+01	   2.4829583e+00	   2.9864905e+00	   1.4167288e+00	
   6.7155000e+01	   2.5485556e+00	   4.0510926e+00	   1.0671310e+00	
   6.7210000e+01	   2.5233237e+00	   3.4221202e+00	   1.3774656e+00	
   6.7265000e+01	   2.6197287e+00	   3.3597300e+00	   1.3218384e+00	
   6.7320000e+01	   2.4841991e+00	   3.0462249e+00	   1.1614150e+00	
   6.7375000e+01	   2.8332546e+00	   3.7352614e+00	   1.6246923e+00	
   6.7430000e+01	   3.1254372e+00	   4.3355874e+00	   2.3203601e+00	
   6.7485000e+01	   2.7454549e+00	   4.1546660e+00	   1.7538550e+00	
   6.7540000e+01	   2.9991071e+00	   3.4818192e+00	   1.6565059e+00	
   6.7595000e+01	   2.8631449e+00	   4.0012179e+00	   1.6707998e+00	
   6.7650000e+01	   3.0646841e+00	   4.0204999e+00	   1.7398687e+00	
   6.7705000e+01	   2.9459668e+00	   3.5472851e+00	   1.0958719e+00	
   6.7760000e+01	   2.5032016e+00	   3.3904825e+00	   1.2999420e+00	
   6.7815000e+01	   2.4951849e+00	   3.1980970e+00	   1.2887156e+00	
   6.7870000e+01	   2.5890739e+00	   3.3587382e+00	   1.4169991e+00	
   6.7925000e+01	   2.3914629e+00	   3.0043740e+00	   1.1611849e+00	
   6.7980000e+01	   2.1898373e+00	   3.1117568e+00	   1.0256217e+00	
   6.8035000e+01	   2.8293140e+00	   3.9437033e+00	   1.7779151e+00	
   6.8090000e+01	   2.9930972e+00	   4.0201594e+00	   2.1518943e+00	
   6.8145000e+01	   3.0822550e+00	   4.0260940e+00	   1.6709529e+00	
   6.8200000e+01	   3.0962292e+00	   3.9719095e+00	   1.8977048e+00	
   6.8255000e+01	   2.9311282e+00	   3.8683141e+00	   1.5408593e+00	
   6.8310000e+01	   3.2780338e+00	   4.0601166e+00	   1.5988103e+00	
   6.8365000e+01	   3.0250408e+00	   4.0992274e+00	   1.6593533e+00	
   6.8420000e+01	   2.8126549e+00	   3.8085623e+00	   1.2212676e+00	
   6.8475000e+01	   2.7885836e+00	   3.5090029e+00	   1.7431846e+00	
   6.8530000e+01	   2.6795509e+00	   4.1402466e+00	   1.4628617e+00	
   6.8585000e+01	   2.7565221e+00	   3.6991227e+00	   1.3200783e+00	
   6.8640000e+01	   2.3185872e+00	   3.8639041e+00	   1.3734498e+00	
   6.8695000e+01	   2.7136483e+00	   3.8772268e+00	   1.4608778e+00	
   6.8750000e+01	   3.0113717e+00	   4.0722312e+00	   1.8711002e+00	
   6.8805000e+01	   3.1030907e+00	   3.9078995e+00	   1.9429417e+00	
   6.8860000e+01	   3.2035629e+00	   4.0380964e+00	   1.6824990e+00	
   6.8915000e+01	   2.9411461e+00	   4.0719279e+00	   1.5605425e+00	
   6.8970000e+01	   2.9169474e+00	   4.3496188e+00	   1.4970577e+00	
   6.9025000e+01	   3.1212327e+00	   4.1800634e+00	   1.7917852e+00	
   6.9080000e+01	   2.8902027e+00	   4.0532594e+00	   1.5580224e+00	
   6.9135000e+01	   2.5848349e+00	   4.0697456e+00	   1.3537360e+00	
   6.9190000e+01	   2.7619705e+00	   3.7757219e+00	   1.5493819e+00	
   6.9245000e+01	   2.8129165e+00	   3.5569930e+00	   1.6463704e+00	
   6.9300000e+01	   2.6445485e+00	   3.5696721e+00	   1.3536454e+00	
   6.9355000e+01	   2.6281638e+00	   3.7776626e+00	   1.5491244e+00	
   6.9410000e+01	   3.1487658e+00	   4.4057316e+00	   2.2497594e+00	
   6.9465000e+01	   3.0885496e+00	   4.2591775e+00	   2.0494065e+00	
   6.9520000e+01	   2.7698175e+00	   3.8971023e+00	   1.7875492e+00	
   6.9575000e+01	   2.9597749e+00	   4.3111874e+00	   1.9685856e+00	
   6.9630000e+01	   2.8119646e+00	   4.0559003e+00	   1.7367655e+00	
   6.9685000e+01	   2.7852156e+00	   4.0594451e+00	   2.0945315e+00	
   6.9740000e+01	   2.5053420e+00	   3.5234720e+00	   1.2884302e+00	
   6.9795000e+01	   2.6516863e+00	   3.4543518e+00	   1.3083489e+00	
   6.9850000e+01	   2.4676257e+00	   3.8548316e+00	   1.6468670e+00	
   6.9905000e+01	   2.3748710e+00	   3.4628207e+00	   1.6251729e+00	
   6.9960000e+01	   2.7866481e+00	   4.0831004e+00	   1.2312407e+00	
   7.0015000e+01	   2.9493960e+00	   4.1815191e+00	   2.0497005e+00	
   7.0070000e+01	   3.0651922e+00	   4.1245852e+00	   2.0543414e+00	
   7.0125000e+01	   2.7940762e+00	   4.1114067e+00	   1.6127019e+00	
   7.0180000e+01	   2.9235531e+00	   4.0354818e+00	   2.1557971e+00	
   7.0235000e+01	   2.8346459e+00	   3.7482045e+00	   1.5543957e+00	
   7.0290000e+01	   2.8085709e+00	   4.2114118e+00	   1.7457458e+00	
   7.0345000e+01	   2.7835170e+00	   3.9140899e+00	   1.6724987e+00	
   7.0400000e+01	   2.6342037e+00	   3.8576500e+00	   1.9916090e+00	
   7.0455000e+01	   2.5521185e+00	   3.8876756e+00	   1.7315240e+00	
   7.0510000e+01	   2.4514960e+00	   3.3719420e+00	   1.5443813e+00	
   7.0565000e+01	   2.4481978e+00	   3.5647530e+00	   1.8522363e+00	
   7.0620000e+01	   2.5636703e+00	   4.2150443e+00	   1.4305627e+00	
   7.0675000e+01	   2.7003009e+00	   4.1112119e+00	   1.9808256e+00	
   7.0730000e+01	   2.9310506e+00	   4.7773689e+00	   1.8658459e+00	
   7.0785000e+01	   3.1831389e+00	   4.3361449e+00	   2.3553450e+00	
   7.0840000e+01	   2.9694984e+00	   4.2496564e+00	   1.9960788e+00	
   7.0895000e+01	   2.8380694e+00	   4.3716266e+00	   1.4489550e+00	
   7.0950000e+01	   2.8654113e+00	   3.9433936e+00	   1.5839954e+00	
   7.1005000e+01	   2.9677444e+00	   4.1764280e+00	   1.9983238e+00	
   7.1060000e+01	   2.8608092e+00	   3.9125508e+00	   1.4777880e+00	
   7.1115000e+01	   2.5605525e+00	   4.0716510e+00	   1.8337530e+00	
   7.1170000e+01	   2.4263414e+00	   3.7842773e+00	   1.4940371e+00	
   7.1225000e+01	   2.4355457e+00	   4.1425258e+00	   1.8984712e+00	
   7.1280000e+01	   2.4284547e+00	   3.6361301e+00	   1.5792863e+00	
   7.1335000e+01	   2.5717949e+00	   4.0138888e+00	   1.7841417e+00	
   7.1390000e+01	   2.9474110e+00	   4.4243515e+00	   1.9889901e+00	
   7.1445000e+01	   2.9162824e+00	   4.8341626e+00	   2.4746586e+00	
   7.1500000e+01	   3.0392441e+00	   4.4154362e+00	   2.1332695e+00	
   7.1555000e+01	   2.9934551e+00	   3.6744958e+00	   1.7052810e+00	
   7.1610000e+01	   2.8352177e+00	   4.0460323e+00	   2.4028241e+00	
   7.1665000e+01	   2.8409750e+00	   4.5408047e+00	   2.1574749e+00	
   7.1720000e+01	   2.9398397e+00	   4.1934830e+00	   1.8124961e+00	
   7.1775000e+01	   2.5573000e+00	   3.9347481e+00	   1.9916090e+00	
   7.1830000e+01	   2.2931597e+00	   4.2664963e+00	   1.7644581e+00	
   7.1885000e+01	   2.5068364e+00	   3.9309187e+00	   1.7447646e+00	
   7.1940000e+01	   2.2604953e+00	   4.1554372e+00	   1.7657597e+00	
   7.1995000e+01	   2.2563101e+00	   3.4770304e+00	   1.3813478e+00	
   7.2050000e+01	   2.1636229e+00	   3.8062405e+00	   1.6815572e+00	
   7.2105000e+01	   2.8416384e+00	   4.0230747e+00	   2.4679074e+00	
   7.2160000e+01	   2.7473088e+00	   4.5490478e+00	   2.3770549e+00	
   7.2215000e+01	   2.8968096e+00	   4.4411124e+00	   2.4075164e+00	
   7.2270000e+01	   2.7762191e+00	   4.2550674e+00	   2.1467010e+00	
   7.2325000e+01	   2.5497871e+00	   3.8578771e+00	   2.0665398e+00	
   7.2380000e+01	   2.6663067e+00	   4.1452887e+00	   1.7023445e+00	
   7.2435000e+01	   2.4766548e+00	   3.9229378e+00	   2.2703833e+00	
   7.2490000e+01	   2.4344595e+00	   3.9460031e+00	   1.6477481e+00	
   7.2545000e+01	   2.4559977e+00	   3.8783424e+00	   1.8184248e+00	
   7.2600000e+01	   2.4817867e+00	   3.8424560e+00	   1.6412217e+00	
   7.2655000e+01	   2.3449176e+00	   3.4274854e+00	   2.0168052e+00	
   7.2710000e+01	   2.0571586e+00	   4.1496774e+00	   1.5658467e+00	
   7.2765000e+01	   2.1232804e+00	   3.6632404e+00	   1.5447893e+00	
   7.2820000e+01	   2.6711369e+00	   4.2047932e+00	   2.2392911e+00	
   7.2875000e+01	   2.6929499e+00	   4.4010853e+00	   2.1746830e+00	
   7.2930000e+01	   2.7138413e+00	   4.3603809e+00	   2.1309420e+00	
   7.2985000e+01	   2.4876245e+00	   4.2297988e+00	   2.2784664e+00	
   7.3040000e+01	   2.7158117e+00	   4.2312337e+00	   2.2335178e+00	
   7.3095000e+01	   2.6320903e+00	   4.3486115e+00	   1.9692784e+00	
   7.3150000e+01	   2.3023450e+00	   4.1987947e+00	   2.1038538e+00	
   7.3205000e+01	   2.3301564e+00	   3.7982019e+00	   1.9453196e+00	
   7.3260000e+01	   2.4173724e+00	   4.0612834e+00	   1.7947534e+00	
   7.3315000e+01	   2.3518596e+00	   3.4958960e+00	   2.0138064e+00	
   7.3370000e+01	   1.9065793e+00	   3.4681792e+00	   1.5034038e+00	
   7.3425000e+01	   2.2087848e+00	   3.9678625e+00	   1.8507740e+00	
   7.3480000e+01	   2.5937973e+00	   4.1519341e+00	   2.3488427e+00	
   7.3535000e+01	   2.5455128e+00	   4.2712432e+00	   2.2315202e+00	
   7.3590000e+01	   2.4904569e+00	   4.1164739e+00	   2.1393265e+00	
   7.3645000e+01	   2.5121882e+00	   4.2781711e+00	   1.9472262e+00	
   7.3700000e+01	   2.4874631e+00	   3.8285343e+00	   2.0596583e+00	
   7.3755000e+01	   2.4858902e+00	   3.9471159e+00	   2.2544208e+00	
   7.3810000e+01	   2.3639494e+00	   3.8768512e+00	   2.1012233e+00	
   7.3865000e+01	   2.1441386e+00	   3.7819529e+00	   1.7413973e+00	
   7.3920000e+01	   2.0121635e+00	   3.4801474e+00	   1.7747351e+00	
   7.3975000e+01	   2.1131888e+00	   3.6350886e+00	   1.6689580e+00	
   7.4030000e+01	   1.6233826e+00	   3.4984017e+00	   1.6289983e+00	
   7.4085000e+01	   1.7645193e+00	   2.9878897e+00	   1.5245230e+00	
   7.4140000e+01	   2.0923990e+00	   4.2096057e+00	   1.9578283e+00	
   7.4195000e+01	   2.6632514e+00	   4.0555193e+00	   2.5169278e+00	
   7.4250000e+01	   2.4238917e+00	   4.2708556e+00	   2.3206917e+00	
   7.4305000e+01	   2.4397726e+00	   3.9721590e+00	   2.0763684e+00	
   7.4360000e+01	   2.4406027e+00	   4.1121973e+00	   2.2743104e+00	
   7.4415000e+01	   2.5267688e+00	   4.1281953e+00	   2.0346870e+00	
   7.4470000e+01	   2.8115856e+00	   4.1225774e+00	   1.9710664e+00	
   7.4525000e+01	   2.3406241e+00	   4.0905930e+00	   1.7357530e+00	
   7.4580000e+01	   2.2871868e+00	   3.5128809e+00	   1.8710352e+00	
   7.4635000e+01	   2.3214448e+00	   3.5272837e+00	   1.9991891e+00	
   7.4690000e+01	   1.9379131e+00	   3.2293730e+00	   1.7532328e+00	
   7.4745000e+01	   1.7430197e+00	   3.3664925e+00	   1.5347588e+00	
   7.4800000e+01	   1.8998621e+00	   3.0542268e+00	   1.7999471e+00	
   7.4855000e+01	   2.4463238e+00	   3.4946764e+00	   1.7641503e+00	
   7.4910000e+01	   2.5686623e+00	   3.9260219e+00	   2.6906921e+00	
   7.4965000e+01	   2.4194686e+00	   3.4407119e+00	   2.1426850e+00	
   7.5020000e+01	   2.7542472e+00	   4.1516822e+00	   2.1380825e+00	
   7.5075000e+01	   2.7232577e+00	   4.1337545e+00	   2.4549332e+00	
   7.5130000e+01	   2.5785585e+00	   3.7559485e+00	   1.9718756e+00	
   7.5185000e+01	   2.2978711e+00	   3.7188296e+00	   1.7997220e+00	
   7.5240000e+01	   2.2721418e+00	   3.2084883e+00	   1.9139649e+00	
   7.5295000e+01	   2.5346971e+00	   3.8369842e+00	   2.0111467e+00	
   7.5350000e+01	   2.2483259e+00	   3.5415918e+00	   1.6834374e+00	
   7.5405000e+01	   2.0101911e+00	   3.2212665e+00	   1.6729552e+00	
   7.5460000e+01	   1.9424398e+00	   3.3267688e+00	   1.8259195e+00	
   7.5515000e+01	   1.9476105e+00	   3.0957126e+00	   1.4280777e+00	
   7.5570000e+01	   2.3101987e+00	   3.5567387e+00	   1.6146221e+00	
   7.5625000e+01	   2.1213839e+00	   3.7180360e+00	   1.8613916e+00	
   7.5680000e+01	   2.4782411e+00	   3.6181307e+00	   2.3868604e+00	
   7.5735000e+01	   2.4706373e+00	   3.9232659e+00	   2.0144432e+00	
   7.5790000e+01	   2.4253787e+00	   3.8966217e+00	   1.9937904e+00	
   7.5845000e+01	   2.5239147e+00	   3.8353598e+00	   1.9200056e+00	
   7.5900000e+01	   2.4481848e+00	   3.6692172e+00	   1.9407867e+00	
   7.5955000e+01	   2.3005694e+00	   3.6155548e+00	   1.6058339e+00	
   7.6010000e+01	   2.2575563e+00	   3.6716621e+00	   1.6699187e+00	
   7.6065000e+01	   2.2161228e+00	   3.6240673e+00	   1.7982427e+00	
   7.6120000e+01	   2.0712896e+00	   3.7573881e+00	   1.4366469e+00	
   7.6175000e+01	   1.7471654e+00	   3.0274987e+00	   1.6913314e+00	
   7.6230000e+01	   1.8977487e+00	   2.8605221e+00	   1.5885375e+00	
   7.6285000e+01	   2.2645349e+00	   3.6569948e+00	   1.8754811e+00	
   7.6340000e+01	   2.2379980e+00	   3.5202798e+00	   2.0679557e+00	
   7.6395000e+01	   2.3399295e+00	   3.7748310e+00	   2.0537112e+00	
   7.6450000e+01	   2.3418368e+00	   3.1782829e+00	   2.3118462e+00	
   7.6505000e+01	   2.1921897e+00	   3.0922128e+00	   1.6033650e+00	
   7.6560000e+01	   2.0888572e+00	   3.6938544e+00	   1.8282905e+00	
   7.6615000e+01	   2.0624392e+00	   3.3422341e+00	   1.8044729e+00	
   7.6670000e+01	   2.2085464e+00	   3.5381633e+00	   1.9459383e+00	
   7.6725000e+01	   2.0274996e+00	   2.6639939e+00	   1.3877633e+00	
   7.6780000e+01	   1.6222394e+00	   2.7570903e+00	   1.1373238e+00	
   7.6835000e+01	   1.6775044e+00	   2.9118450e+00	   1.1135906e+00	
   7.6890000e+01	   2.1409883e+00	   3.5362799e+00	   1.7436513e+00	
   7.6945000e+01	   2.3479554e+00	   3.3162227e+00	   1.7740643e+00	
   7.7000000e+01	   2.4212461e+00	   3.6995850e+00	   1.8530795e+00	
   7.7055000e+01	   2.2843855e+00	   3.3849675e+00	   1.8794575e+00	
   7.7110000e+01	   2.2578377e+00	   3.3717468e+00	   1.8809702e+00	
   7.7165000e+01	   2.2307712e+00	   3.5997919e+00	   1.7767165e+00	
   7.7220000e+01	   2.3604799e+00	   3.4459146e+00	   1.9653074e+00	
   7.7275000e+01	   2.0331679e+00	   3.1887262e+00	   1.6707340e+00	
   7.7330000e+01	   2.1370703e+00	   3.4635033e+00	   1.6933224e+00	
   7.7385000e+01	   2.1859568e+00	   3.5946333e+00	   2.0028211e+00	
   7.7440000e+01	   1.7035542e+00	   2.4146007e+00	   1.3359478e+00	
   7.7495000e+01	   1.7899362e+00	   2.8757892e+00	   9.0514593e-01	
   7.7550000e+01	   2.3152829e+00	   3.6736708e+00	   1.8873887e+00	
   7.7605000e+01	   2.5051015e+00	   3.8296964e+00	   1.7947817e+00	
   7.7660000e+01	   2.6635338e+00	   3.3531073e+00	   1.7119381e+00	
   7.7715000e+01	   2.2822187e+00	   3.9032470e+00	   1.9109999e+00	
   7.7770000e+01	   2.7323608e+00	   3.5027042e+00	   2.1422884e+00	
   7.7825000e+01	   2.6174492e+00	   4.1859672e+00	   1.8602636e+00	
   7.7880000e+01	   2.7660923e+00	   2.8685294e+00	   1.7767165e+00	
   7.7935000e+01	   2.3771158e+00	   3.1605536e+00	   1.6311864e+00	
   7.7990000e+01	   2.1091398e+00	   3.2175841e+00	   1.5847267e+00	
   7.8045000e+01	   2.3376530e+00	   3.4140774e+00	   1.5691673e+00	
   7.8100000e+01	   2.2104614e+00	   2.9837614e+00	   1.4768008e+00	
   7.8155000e+01	   2.1224481e+00	   2.8213400e+00	   1.4594382e+00	
   7.8210000e+01	   2.3256109e+00	   3.2550523e+00	   1.8004036e+00	
   7.8265000e+01	   2.7071553e+00	   3.7947660e+00	   2.3480232e+00	
   7.8320000e+01	   2.7705979e+00	   3.6746045e+00	   2.2418730e+00	
   7.8375000e+01	   2.7600443e+00	   3.5923078e+00	   2.3294242e+00	
   7.8430000e+01	   2.6420167e+00	   3.8770655e+00	   1.9681807e+00	
   7.8485000e+01	   2.8519321e+00	   3.8078457e+00	   2.1587025e+00	
   7.8540000e+01	   2.7920376e+00	   3.7211242e+00	   2.1729522e+00	
   7.8595000e+01	   2.7608557e+00	   3.0914420e+00	   1.6731814e+00	
   7.8650000e+01	   2.4738849e+00	   3.6260456e+00	   1.4292723e+00	
   7.8705000e+01	   2.6411590e+00	   3.6441184e+00	   1.5850641e+00	
   7.8760000e+01	   2.4458922e+00	   3.3364945e+00	   1.6542321e+00	
   7.8815000e+01	   2.1723875e+00	   2.8181936e+00	   1.2255583e+00	
   7.8870000e+01	   1.9713747e+00	   3.0115261e+00	   1.3798947e+00	
   7.8925000e+01	   2.6350441e+00	   3.5001630e+00	   1.9910649e+00	
   7.8980000e+01	   2.9155485e+00	   3.7798810e+00	   1.9631435e+00	
   7.9035000e+01	   2.7794669e+00	   3.6990463e+00	   1.9706079e+00	
   7.9090000e+01	   3.0047868e+00	   3.5966062e+00	   1.9474672e+00	
   7.9145000e+01	   2.8763513e+00	   3.7241244e+00	   2.4901658e+00	
   7.9200000e+01	   2.9507701e+00	   4.0198202e+00	   2.0144432e+00	
   7.9255000e+01	   2.4006290e+00	   3.6286258e+00	   1.9900494e+00	
   7.9310000e+01	   2.3469046e+00	   3.4887572e+00	   1.8085239e+00	
   7.9365000e+01	   2.3927264e+00	   3.2833360e+00	   1.6054549e+00	
   7.9420000e+01	   2.5817208e+00	   3.3312777e+00	   1.9341424e+00	
   7.9475000e+01	   2.6189207e+00	   3.1069504e+00	   1.4285652e+00	
   7.9530000e+01	   2.2504018e+00	   3.0745887e+00	   1.5517273e+00	
   7.9585000e+01	   2.1563873e+00	   3.0914729e+00	   1.3259699e+00	
   7.9640000e+01	   2.8073365e+00	   3.3222551e+00	   1.9488882e+00	
   7.9695000e+01	   2.6687190e+00	   3.5385331e+00	   1.9488414e+00	
   7.9750000e+01	   2.6775897e+00	   3.4368416e+00	   1.8809702e+00	
   7.9805000e+01	   2.7209466e+00	   3.5575375e+00	   2.2969177e+00	
   7.9860000e+01	   2.8001092e+00	   3.7764472e+00	   1.8809702e+00	
   7.9915000e+01	   2.6203405e+00	   3.3975074e+00	   1.7428238e+00	
   7.9970000e+01	   2.3368779e+00	   2.8406546e+00	   1.8448934e+00	
   8.0025000e+01	   2.3488410e+00	   3.6899542e+00	   1.7699338e+00	
   8.0080000e+01	   2.3724152e+00	   3.3245645e+00	   2.1829028e+00	
   8.0135000e+01	   2.3048864e+00	   3.3415486e+00	   2.0198964e+00	
   8.0190000e+01	   1.9242019e+00	   2.8244278e+00	   1.4974344e+00	
   8.0245000e+01	   2.4436169e+00	   3.0371369e+00	   1.4847217e+00	
   8.0300000e+01	   2.8399517e+00	   3.6127411e+00	   1.7066507e+00	
   8.0355000e+01	   2.6990511e+00	   3.8074357e+00	   1.9205191e+00	
   8.0410000e+01	   2.7887523e+00	   3.5522992e+00	   2.1998605e+00	
   8.0465000e+01	   2.7669317e+00	   3.2431937e+00	   1.8892122e+00	
   8.0520000e+01	   2.6620944e+00	   3.7115145e+00	   2.1480027e+00	
   8.0575000e+01	   2.6991182e+00	   3.8358590e+00	   2.0919662e+00	
   8.0630000e+01	   2.7113292e+00	   3.5199225e+00	   1.7759045e+00	
   8.0685000e+01	   2.5302759e+00	   3.0965930e+00	   1.7595737e+00	
   8.0740000e+01	   2.5017553e+00	   3.2701467e+00	   1.5982264e+00	
   8.0795000e+01	   2.2485919e+00	   3.1466698e+00	   1.2879903e+00	
   8.0850000e+01	   2.0275500e+00	   2.8856509e+00	   1.4240933e+00	
   8.0905000e+01	   2.5658705e+00	   3.3424384e+00	   1.7233888e+00	
   8.0960000e+01	   2.6578411e+00	   3.9376258e+00	   2.2355513e+00	
   8.1015000e+01	   2.8238596e+00	   3.4400284e+00	   2.0578043e+00	
   8.1070000e+01	   2.8675101e+00	   3.4126861e+00	   2.3306609e+00	
   8.1125000e+01	   2.5961970e+00	   3.7968318e+00	   2.1459455e+00	
   8.1180000e+01	   2.7943366e+00	   3.7070809e+00	   2.0596299e+00	
   8.1235000e+01	   2.9236838e+00	   3.4843439e+00	   1.9613947e+00	
   8.1290000e+01	   2.6122249e+00	   2.9980734e+00	   1.4168455e+00	
   8.1345000e+01	   2.3954677e+00	   3.1835306e+00	   1.6926529e+00	
   8.1400000e+01	   2.2674177e+00	   3.2555403e+00	   1.5363046e+00	
   8.1455000e+01	   2.4747390e+00	   3.0091495e+00	   2.0173532e+00	
   8.1510000e+01	   2.1867081e+00	   3.0306878e+00	   1.4408431e+00	
   8.1565000e+01	   2.6505011e+00	   3.5770049e+00	   1.6722730e+00	
   8.1620000e+01	   2.7735831e+00	   3.0985276e+00	   2.3376520e+00	
   8.1675000e+01	   2.9265908e+00	   3.8513725e+00	   2.4246416e+00	
   8.1730000e+01	   2.7738515e+00	   3.7899706e+00	   2.0642451e+00	
   8.1785000e+01	   2.8129587e+00	   3.5578836e+00	   2.1627211e+00	
   8.1840000e+01	   2.9498268e+00	   3.8631749e+00	   1.8447281e+00	
   8.1895000e+01	   2.9935160e+00	   3.2062289e+00	   2.1105725e+00	
   8.1950000e+01	   2.7813962e+00	   3.1268034e+00	   1.7982427e+00	
   8.2005000e+01	   2.6887512e+00	   3.2051016e+00	   1.3922787e+00	
   8.2060000e+01	   2.5143145e+00	   3.1332502e+00	   1.6507224e+00	
   8.2115000e+01	   2.5162775e+00	   3.3808421e+00	   1.8926491e+00	
   8.2170000e+01	   2.3349192e+00	   2.8419329e+00	   1.3110031e+00	
   8.2225000e+01	   2.3699385e+00	   3.2041225e+00	   1.1221454e+00	
   8.2280000e+01	   2.8952387e+00	   3.8214506e+00	   2.0696404e+00	
   8.2335000e+01	   3.0530649e+00	   3.6648908e+00	   2.2238306e+00	
   8.2390000e+01	   3.1075311e+00	   3.8405241e+00	   2.3257905e+00	
   8.2445000e+01	   2.7907497e+00	   3.8389316e+00	   2.0638700e+00	
   8.2500000e+01	   3.1336373e+00	   4.1029332e+00	   2.2799501e+00	
   8.2555000e+01	   2.9826057e+00	   3.5599444e+00	   2.3820257e+00	
   8.2610000e+01	   2.8800405e+00	   3.2405987e+00	   1.9809888e+00	
   8.2665000e+01	   2.7301709e+00	   2.8260790e+00	   1.6406684e+00	
   8.2720000e+01	   2.7704181e+00	   2.6501065e+00	   1.7595095e+00	
   8.2775000e+01	   2.6678947e+00	   3.5231102e+00	   1.8957265e+00	
   8.2830000e+01	   2.3227207e+00	   3.2942992e+00	   1.3920506e+00	
   8.2885000e+01	   2.3849146e+00	   2.9073925e+00	   1.4458840e+00	
   8.2940000e+01	   2.6270136e+00	   3.7120507e+00	   1.8508697e+00	
   8.2995000e+01	   2.8462491e+00	   4.0417600e+00	   2.0271057e+00	
   8.3050000e+01	   3.0878927e+00	   3.9970810e+00	   2.6244821e+00	
   8.3105000e+01	   2.8978485e+00	   3.4502010e+00	   1.8300307e+00	
   8.3160000e+01	   2.9653800e+00	   3.3150502e+00	   2.1544056e+00	
   8.3215000e+01	   2.9535861e+00	   3.5546962e+00	   2.3335321e+00	
   8.3270000e+01	   3.1522931e+00	   3.8803126e+00	   2.1036834e+00	
   8.3325000e+01	   2.8246298e+00	   3.6649807e+00	   1.6872414e+00	
   8.3380000e+01	   2.4404658e+00	   3.5201904e+00	   1.2491662e+00	
   8.3435000e+01	   2.4752253e+00	   3.3519673e+00	   1.7878726e+00	
   8.3490000e+01	   2.3612227e+00	   3.4454919e+00	   1.8445401e+00	
   8.3545000e+01	   2.2730675e+00	   3.3764725e+00	   1.7799871e+00	
   8.3600000e+01	   2.3806411e+00	   3.0223745e+00	   1.5787442e+00	
   8.3655000e+01	   2.7600832e+00	   3.7183016e+00	   2.1611127e+00	
   8.3710000e+01	   2.8727478e+00	   3.5808954e+00	   1.9409529e+00	
   8.3765000e+01	   2.7466816e+00	   3.5494269e+00	   2.1443239e+00	
   8.3820000e+01	   2.8771500e+00	   3.5868418e+00	   2.1086758e+00	
   8.3875000e+01	   2.8082936e+00	   3.9674693e+00	   1.9082534e+00	
   8.3930000e+01	   2.9559883e+00	   3.9276338e+00	   1.9001083e+00	
   8.3985000e+01	   2.8095130e+00	   3.6620252e+00	   1.8004036e+00	
   8.4040000e+01	   2.6313259e+00	   3.6134359e+00	   1.8470441e+00	
   8.4095000e+01	   2.5081981e+00	   2.8967732e+00	   1.6427666e+00	
   8.4150000e+01	   2.3562150e+00	   2.9158600e+00	   1.7331272e+00	
   8.4205000e+01	   2.4455837e+00	   3.1630798e+00	   1.6971026e+00	
   8.4260000e+01	   2.3887177e+00	   3.1935846e+00	   1.3999749e+00	
   8.4315000e+01	   2.6252268e+00	   3.8360667e+00	   1.9488882e+00	
   8.4370000e+01	   2.8898501e+00	   3.5223619e+00	   2.3609986e+00	
   8.4425000e+01	   2.8813409e+00	   4.1026470e+00	   2.1088569e+00	
   8.4480000e+01	   2.6632228e+00	   3.3395653e+00	   1.8692488e+00	
   8.4535000e+01	   2.5631685e+00	   3.3065645e+00	   1.9102758e+00	
   8.4590000e+01	   2.7195362e+00	   4.1059946e+00	   2.1139472e+00	
   8.4645000e+01	   2.4682502e+00	   2.9605330e+00	   1.8891861e+00	
   8.4700000e+01	   2.3279386e+00	   3.0664621e+00	   1.7878726e+00	
   8.4755000e+01	   2.4529546e+00	   2.8437008e+00	   1.5684228e+00	
   8.4810000e+01	   2.1422949e+00	   2.8327406e+00	   1.4682669e+00	
   8.4865000e+01	   2.0165574e+00	   2.9555434e+00	   1.3896279e+00	
   8.4920000e+01	   2.3959874e+00	   3.3168690e+00	   1.5865192e+00	
   8.4975000e+01	   2.5962474e+00	   3.5030113e+00	   2.0162864e+00	
   8.5030000e+01	   2.6621526e+00	   3.6224000e+00	   1.8469194e+00	
   8.5085000e+01	   2.8450307e+00	   3.9307149e+00	   2.0900316e+00	
   8.5140000e+01	   2.7597604e+00	   3.3861395e+00	   1.9550477e+00	
   8.5195000e+01	   2.5626056e+00	   3.4567771e+00	   1.9368649e+00	
   8.5250000e+01	   2.7278500e+00	   3.5288111e+00	   1.7472855e+00	
   8.5305000e+01	   2.5762887e+00	   3.3493159e+00	   1.4153735e+00	
   8.5360000e+01	   2.5132144e+00	   2.5160081e+00	   1.2393729e+00	
   8.5415000e+01	   2.2523089e+00	   2.7617387e+00	   1.6548462e+00	
   8.5470000e+01	   2.1366874e+00	   2.9373218e+00	   1.5066604e+00	
   8.5525000e+01	   2.2313854e+00	   3.1166116e+00	   1.3843314e+00	
   8.5580000e+01	   2.1442374e+00	   3.1556092e+00	   1.4839891e+00	
   8.5635000e+01	   2.5317539e+00	   3.3378873e+00	   1.7926149e+00	
   8.5690000e+01	   2.7580394e+00	   3.7053241e+00	   1.9918858e+00	
   8.5745000e+01	   2.8683500e+00	   3.7696664e+00	   2.3017054e+00	
   8.5800000e+01	   2.9008197e+00	   3.3359936e+00	   1.8982883e+00	
   8.5855000e+01	   2.8220081e+00	   3.3957932e+00	   1.6287140e+00	
   8.5910000e+01	   2.5706698e+00	   3.0080114e+00	   1.4776278e+00	
   8.5965000e+01	   2.6249401e+00	   3.3318753e+00	   1.4947439e+00	
   8.6020000e+01	   2.4458340e+00	   3.1595793e+00	   1.2948131e+00	
   8.6075000e+01	   2.4550055e+00	   3.1337197e+00	   1.2020376e+00	
   8.6130000e+01	   2.3638385e+00	   3.3282911e+00	   1.6950441e+00	
   8.6185000e+01	   2.2521946e+00	   2.8948885e+00	   1.0707210e+00	
   8.6240000e+01	   2.6753877e+00	   3.4009079e+00	   1.0068810e+00	
   8.6295000e+01	   2.5231481e+00	   3.5818190e+00	   1.4583237e+00	
   8.6350000e+01	   2.7387992e+00	   3.8338220e+00	   1.8751875e+00	
   8.6405000e+01	   2.9525773e+00	   3.8466800e+00	   1.9016135e+00	
   8.6460000e+01	   2.8611431e+00	   3.5027396e+00	   2.3048774e+00	
   8.6515000e+01	   2.7399200e+00	   3.3702881e+00	   1.9755886e+00	
   8.6570000e+01	   2.6940205e+00	   3.4220970e+00	   1.5620091e+00	
   8.6625000e+01	   2.7956238e+00	   3.6843018e+00	   1.8023665e+00	
   8.6680000e+01	   2.5494647e+00	   3.9213623e+00	   1.4740286e+00	
   8.6735000e+01	   2.6293973e+00	   3.2566779e+00	   1.2547557e+00	
   8.6790000e+01	   2.0327609e+00	   3.2735951e+00	   1.3742400e+00	
   8.6845000e+01	   2.1771958e+00	   3.0575793e+00	   1.5830550e+00	
   8.6900000e+01	   2.1233110e+00	   2.7030553e+00	   1.5226316e+00	
   8.6955000e+01	   2.4223037e+00	   2.9386238e+00	   1.5865192e+00	
   8.7010000e+01	   2.5528363e+00	   3.8625497e+00	   1.7188030e+00	
   8.7065000e+01	   2.9126931e+00	   3.9038547e+00	   2.2815610e+00	
   8.7120000e+01	   2.8260690e+00	   3.7818910e+00	   2.1784437e+00	
   8.7175000e+01	   2.5892450e+00	   3.4500760e+00	   1.3291679e+00	
   8.7230000e+01	   2.5563616e+00	   3.6434457e+00	   1.6397299e+00	
   8.7285000e+01	   2.5677054e+00	   3.1668243e+00	   1.8164109e+00	
   8.7340000e+01	   2.5036076e+00	   3.4716474e+00	   1.5050291e+00	
   8.7395000e+01	   2.1481992e+00	   3.3511028e+00	   1.4562223e+00	
   8.7450000e+01	   2.0638914e+00	   2.9876962e+00	   1.3033204e+00	
   8.7505000e+01	   2.1927617e+00	   3.0887130e+00	   1.6788092e+00	
   8.7560000e+01	   1.9010906e+00	   3.3360226e+00	   9.4256414e-01	
   8.7615000e+01	   2.4926685e+00	   3.5747129e+00	   1.7218977e+00	
   8.7670000e+01	   2.4807933e+00	   3.3200889e+00	   1.6287140e+00	
   8.7725000e+01	   2.4692276e+00	   3.6679698e+00	   1.6673348e+00	
   8.7780000e+01	   2.2493161e+00	   3.4050739e+00	   1.7315555e+00	
   8.7835000e+01	   2.5596850e+00	   3.1086156e+00	   1.3245848e+00	
   8.7890000e+01	   2.2180403e+00	   3.5632031e+00	   1.4053961e+00	
   8.7945000e+01	   2.1697104e+00	   3.5306712e+00	   1.3745343e+00	
   8.8000000e+01	   2.1670015e+00	   3.8602255e+00	   1.3005071e+00	
   8.8055000e+01	   2.1148052e+00	   2.7049690e+00	   1.1564253e+00	
   8.8110000e+01	   1.6793088e+00	   2.4387627e+00	   1.0574001e+00	
   8.8165000e+01	   1.8042805e+00	   2.7630654e+00	   1.0710933e+00	
   8.8220000e+01	   2.3369603e+00	   3.4345931e+00	   1.5704456e+00	
   8.8275000e+01	   2.2668746e+00	   3.4726180e+00	   1.8451678e+00	
   8.8330000e+01	   2.3536208e+00	   3.2470448e+00	   1.3606038e+00	
   8.8385000e+01	   2.0321631e+00	   3.3731660e+00	   1.6600994e+00	
   8.8440000e+01	   2.1613201e+00	   3.5840333e+00	   1.4536744e+00	
   8.8495000e+01	   2.0825994e+00	   3.3485930e+00	   1.5152799e+00	
   8.8550000e+01	   2.0269111e+00	   3.1714968e+00	   1.4100712e+00	
   8.8605000e+01	   1.7991134e+00	   3.0724871e+00	   1.3568379e+00	
   8.8660000e+01	   1.8920022e+00	   3.4918457e+00	   1.4805718e+00	
   8.8715000e+01	   1.8102058e+00	   2.9427216e+00	   1.3331944e+00	
   8.8770000e+01	   1.4081137e+00	   2.7679815e+00	   9.4364687e-01	
   8.8825000e+01	   1.6827967e+00	   2.9195911e+00	   1.1536907e+00	
   8.8880000e+01	   1.8954525e+00	   3.5669295e+00	   1.7376920e+00	
   8.8935000e+01	   2.3472153e+00	   3.8709651e+00	   1.9593010e+00	
   8.8990000e+01	   2.4081504e+00	   3.4987318e+00	   1.4530112e+00	
   8.9045000e+01	   2.1685033e+00	   3.7035298e+00	   1.7736746e+00	
   8.9100000e+01	   2.4762035e+00	   3.4547287e+00	   1.4313332e+00	
   8.9155000e+01	   2.3430492e+00	   3.1395242e+00	   1.7156388e+00	
   8.9210000e+01	   2.0980438e+00	   3.2508059e+00	   1.6347316e+00	
   8.9265000e+01	   1.8804441e+00	   3.0625551e+00	   1.0286651e+00	
   8.9320000e+01	   1.9103262e+00	   3.2913199e+00	   1.4324758e+00	
   8.9375000e+01	   1.8394527e+00	   2.9601538e+00	   1.1716164e+00	
   8.9430000e+01	   1.7126108e+00	   2.9657748e+00	   1.1613294e+00	
   8.9485000e+01	   1.4661491e+00	   2.5906201e+00	   7.6287966e-01	
   8.9540000e+01	   2.0794335e+00	   3.0281101e+00	   1.3314233e+00	
   8.9595000e+01	   2.2037046e+00	   3.8003715e+00	   1.8796849e+00	
   8.9650000e+01	   2.2883522e+00	   3.6034615e+00	   1.8491358e+00	
   8.9705000e+01	   2.2852230e+00	   3.2948103e+00	   1.7223354e+00	
   8.9760000e+01	   2.1619529e+00	   3.6087339e+00	   1.2907897e+00	
   8.9815000e+01	   2.3234195e+00	   3.6679160e+00	   1.4746595e+00	
   8.9870000e+01	   2.3478720e+00	   3.4030512e+00	   1.4052967e+00	
   8.9925000e+01	   2.0640068e+00	   3.2371575e+00	   8.0649327e-01	
   8.9980000e+01	   2.1027815e+00	   3.2910387e+00	   1.2703296e+00	
   9.0035000e+01	   1.9737054e+00	   3.1258283e+00	   1.1437611e+00	
   9.0090000e+01	   2.0961981e+00	   3.7504040e+00	   1.4012840e+00	
   9.0145000e+01	   1.5644393e+00	   2.5421162e+00	   6.8503716e-01	
   9.0200000e+01	   1.6203054e+00	   3.2409013e+00	   9.5405496e-01	
   9.0255000e+01	   2.1506169e+00	   3.8034064e+00	   1.5943078e+00	
   9.0310000e+01	   2.1303939e+00	   3.2371363e+00	   1.4588021e+00	
   9.0365000e+01	   2.2479350e+00	   3.9220450e+00	   1.6880047e+00	
   9.0420000e+01	   2.0601174e+00	   3.5729474e+00	   1.4638633e+00	
   9.0475000e+01	   2.2382226e+00	   3.9541941e+00	   1.6950340e+00	
   9.0530000e+01	   2.2862185e+00	   3.7644899e+00	   1.8246606e+00	
   9.0585000e+01	   1.9554871e+00	   3.1331336e+00	   1.4433183e+00	
   9.0640000e+01	   1.8866923e+00	   3.2113892e+00	   1.2498163e+00	
   9.0695000e+01	   2.0349089e+00	   3.5782087e+00	   1.1995126e+00	
   9.0750000e+01	   1.8936663e+00	   3.4188028e+00	   1.3034171e+00	
   9.0805000e+01	   1.7299100e+00	   2.9598583e+00	   5.9644220e-01	
   9.0860000e+01	   1.4685895e+00	   2.7481015e+00	   8.8980801e-01	
   9.0915000e+01	   1.9369825e+00	   3.5440866e+00	   1.4844086e+00	
   9.0970000e+01	   2.1512529e+00	   3.3922717e+00	   1.3713738e+00	
   9.1025000e+01	   2.2780351e+00	   3.3206342e+00	   1.4992203e+00	
   9.1080000e+01	   1.8983848e+00	   3.3051863e+00	   1.7759045e+00	
   9.1135000e+01	   2.1301057e+00	   3.6344613e+00	   1.7233888e+00	
   9.1190000e+01	   2.0304021e+00	   3.7654501e+00	   1.5333922e+00	
   9.1245000e+01	   2.0750595e+00	   3.2325055e+00	   1.4877931e+00	
   9.1300000e+01	   1.9658237e+00	   3.5154621e+00	   1.2133829e+00	
   9.1355000e+01	   2.0104159e+00	   3.1495930e+00	   1.4562223e+00	
   9.1410000e+01	   1.9078188e+00	   3.2337498e+00	   1.7169974e+00	
   9.1465000e+01	   1.6154003e+00	   2.9088389e+00	   8.9747364e-01	
   9.1520000e+01	   1.3058091e+00	   2.4792125e+00	   9.7720177e-01	
   9.1575000e+01	   1.6552231e+00	   3.4509321e+00	   1.0550776e+00	
   9.1630000e+01	   2.0202475e+00	   4.3677340e+00	   1.6234423e+00	
   9.1685000e+01	   1.8933126e+00	   3.1055993e+00	   1.6029979e+00	
   9.1740000e+01	   1.9555876e+00	   3.4012736e+00	   1.7245222e+00	
   9.1795000e+01	   1.7671462e+00	   3.5431686e+00	   1.7312188e+00	
   9.1850000e+01	   1.9261621e+00	   3.6869650e+00	   1.3825612e+00	
   9.1905000e+01	   1.8430768e+00	   2.9484974e+00	   1.5513352e+00	
   9.1960000e+01	   1.8038866e+00	   2.9710593e+00	   1.0815626e+00	
   9.2015000e+01	   1.4855542e+00	   2.9445320e+00	   1.1150173e+00	
   9.2070000e+01	   1.4585205e+00	   2.9541046e+00	   1.3540633e+00	
   9.2125000e+01	   1.5032762e+00	   2.6642899e+00	   8.4784897e-01	
   9.2180000e+01	   1.2490443e+00	   2.5635062e+00	   6.2301966e-01	
   9.2235000e+01	   1.4624883e+00	   3.0255981e+00	   1.0377120e+00	
   9.2290000e+01	   1.6962200e+00	   3.5560481e+00	   1.6324515e+00	
   9.2345000e+01	   1.8781169e+00	   3.5067653e+00	   1.3499247e+00	
   9.2400000e+01	   1.5782476e+00	   3.0264774e+00	   1.0700051e+00	
   9.2455000e+01	   1.4010627e+00	   3.3352808e+00	   7.1767340e-01	
   9.2510000e+01	   1.6298384e+00	   3.6782931e+00	   1.4536744e+00	
   9.2565000e+01	   1.8841962e+00	   2.8207834e+00	   1.2919682e+00	
   9.2620000e+01	   1.5917700e+00	   3.0818263e+00	   9.1891369e-01	
   9.2675000e+01	   1.1429886e+00	   2.4104964e+00	   7.9436599e-01	
   9.2730000e+01	   1.4594056e+00	   3.1516839e+00	   1.5063544e+00	
   9.2785000e+01	   1.2558321e+00	   2.6383730e+00	   6.1686512e-01	
   9.2840000e+01	   8.7787552e-01	   2.7021919e+00	   6.4718493e-01	
   9.2895000e+01	   1.2717537e+00	   3.1679568e+00	   1.0286651e+00	
   9.2950000e+01	   1.7556406e+00	   3.2656016e+00	   1.1355811e+00	
   9.3005000e+01	   1.7625922e+00	   3.2889167e+00	   1.5074761e+00	
   9.3060000e+01	   1.6391228e+00	   2.8456278e+00	   1.0971632e+00	
   9.3115000e+01	   1.4086505e+00	   2.8084030e+00	   1.3423570e+00	
   9.3170000e+01	   1.6917783e+00	   3.2370558e+00	   1.3636891e+00	
   9.3225000e+01	   1.6430504e+00	   2.7112596e+00	   7.9348496e-01	
   9.3280000e+01	   1.5383782e+00	   2.7218386e+00	   1.0530479e+00	
   9.3335000e+01	   1.0317002e+00	   2.2397976e+00	   1.0051937e+00	
   9.3390000e+01	   1.2092290e+00	   2.2483935e+00	   8.8243507e-01	
   9.3445000e+01	   1.2009772e+00	   2.4974306e+00	   8.1366170e-01	
   9.3500000e+01	   1.1498793e+00	   2.0925073e+00	   7.3339059e-01	
   9.3555000e+01	   1.6213733e+00	   2.9342081e+00	   8.4432196e-01	
   9.3610000e+01	   1.6502659e+00	   3.0849566e+00	   1.1318458e+00	
   9.3665000e+01	   1.7942383e+00	   3.1289550e+00	   1.3096032e+00	
   9.3720000e+01	   1.7565288e+00	   3.0106867e+00	   1.1393414e+00	
   9.3775000e+01	   1.5821664e+00	   2.9249380e+00	   1.4226809e+00	
   9.3830000e+01	   1.7672207e+00	   2.8865189e+00	   1.1748658e+00	
   9.3885000e+01	   1.7943976e+00	   2.8778256e+00	   1.4899086e+00	
   9.3940000e+01	   1.4592303e+00	   2.8956122e+00	   8.8780464e-01	
   9.3995000e+01	   1.0963206e+00	   2.3801202e+00	   7.5263650e-01	
   9.4050000e+01	   1.3909854e+00	   2.6367121e+00	   9.2847343e-01	
   9.4105000e+01	   1.2291244e+00	   2.7294981e+00	   1.1811403e+00	
   9.4160000e+01	   1.3194767e+00	   2.7011150e+00	   8.1986312e-01	
   9.4215000e+01	   1.5358315e+00	   2.9976311e+00	   1.1453153e+00	
   9.4270000e+01	   1.7130805e+00	   2.6681020e+00	   1.3483392e+00	
   9.4325000e+01	   1.9104758e+00	   3.4603073e+00	   1.4586730e+00	
   9.4380000e+01	   1.7895229e+00	   3.1634116e+00	   1.2698069e+00	
   9.4435000e+01	   1.7848725e+00	   2.3245821e+00	   1.0936408e+00	
   9.4490000e+01	   1.6754108e+00	   3.2158021e+00	   1.2490479e+00	
   9.4545000e+01	   1.8051922e+00	   2.9379540e+00	   1.0172399e+00	
   9.4600000e+01	   1.7181562e+00	   2.8623089e+00	   1.6311675e+00	
   9.4655000e+01	   1.6180013e+00	   2.7993348e+00	   9.1816051e-01	
   9.4710000e+01	   1.3735761e+00	   2.8792282e+00	   9.7107402e-01	
   9.4765000e+01	   1.3039957e+00	   2.0916293e+00	   1.0159827e+00	
   9.4820000e+01	   1.3499707e+00	   2.3536264e+00	   8.7704306e-01	
   9.4875000e+01	   1.2934508e+00	   2.6814195e+00	   5.5431421e-01	
   9.4930000e+01	   1.6270158e+00	   2.9481515e+00	   1.0516605e+00	
   9.4985000e+01	   1.7191644e+00	   3.1746068e+00	   1.5241182e+00	
   9.5040000e+01	   2.0661155e+00	   3.5796943e+00	   1.4344764e+00	
   9.5095000e+01	   2.0639571e+00	   3.4605616e+00	   1.5809466e+00	
   9.5150000e+01	   1.7682416e+00	   3.1421635e+00	   1.3541145e+00	
   9.5205000e+01	   1.8022671e+00	   3.3339921e+00	   9.4662952e-01	
   9.5260000e+01	   1.7717911e+00	   3.1497806e+00	   1.3436024e+00	
   9.5315000e+01	   1.7271464e+00	   2.7172838e+00	   1.2547517e+00	
   9.5370000e+01	   1.5396888e+00	   2.4547936e+00	   8.8412115e-01	
   9.5425000e+01	   1.3356891e+00	   2.7200109e+00	   9.6748376e-01	
   9.5480000e+01	   1.4064379e+00	   2.6539362e+00	   6.9752402e-01	
   9.5535000e+01	   1.5707865e+00	   2.5369728e+00	   7.9460920e-01	
