
0   5   7	
   0.0000000e+00	   3.3483394e+00	   1.0731954e+00	
   5.5000000e-02	   3.2344578e+00	   1.0962758e+00	
   1.1000000e-01	   3.2265914e+00	   9.9658280e-01	
   1.6500000e-01	   3.2085918e+00	   9.8989926e-01	
   2.2000000e-01	   2.5968185e+00	   6.3121002e-01	
   2.7500000e-01	   2.6500383e+00	   7.3577319e-01	
   3.3000000e-01	   2.8738094e+00	   7.5091058e-01	
   3.8500000e-01	   3.3448722e+00	   9.5539956e-01	
   4.4000000e-01	   3.3176409e+00	   1.1295033e+00	
   4.9500000e-01	   3.3158094e+00	   1.0572350e+00	
   5.5000000e-01	   3.3188113e+00	   1.1983646e+00	
   6.0500000e-01	   3.1537574e+00	   9.3103314e-01	
   6.6000000e-01	   2.9868417e+00	   8.3908975e-01	
   7.1500000e-01	   3.2386048e+00	   9.3752177e-01	
   7.7000000e-01	   3.0957313e+00	   8.7522366e-01	
   8.2500000e-01	   3.1272298e+00	   8.6941791e-01	
   8.8000000e-01	   2.9626870e+00	   7.0024708e-01	
   9.3500000e-01	   2.9024360e+00	   7.3173699e-01	
   9.9000000e-01	   3.2139776e+00	   1.0328490e+00	
   1.0450000e+00	   3.3110871e+00	   1.0739540e+00	
   1.1000000e+00	   3.3296546e+00	   1.0610350e+00	
   1.1550000e+00	   3.6330593e+00	   1.1566126e+00	
   1.2100000e+00	   3.9714693e+00	   1.2712573e+00	
   1.2650000e+00	   3.4062712e+00	   1.1740721e+00	
   1.3200000e+00	   3.3772068e+00	   1.0484982e+00	
   1.3750000e+00	   2.9677127e+00	   1.0427842e+00	
   1.4300000e+00	   3.1596784e+00	   8.6784410e-01	
   1.4850000e+00	   3.3141880e+00	   9.9985337e-01	
   1.5400000e+00	   3.1328676e+00	   7.4815252e-01	
   1.5950000e+00	   2.7768890e+00	   5.8683045e-01	
   1.6500000e+00	   3.4948359e+00	   1.0130471e+00	
   1.7050000e+00	   3.6634616e+00	   1.2295621e+00	
   1.7600000e+00	   3.7746074e+00	   1.1043129e+00	
   1.8150000e+00	   3.7744537e+00	   1.1214620e+00	
   1.8700000e+00	   3.4127866e+00	   1.2067724e+00	
   1.9250000e+00	   4.0639956e+00	   1.3292419e+00	
   1.9800000e+00	   3.2939965e+00	   1.0435978e+00	
   2.0350000e+00	   3.1979280e+00	   8.8116977e-01	
   2.0900000e+00	   3.2174516e+00	   8.9086115e-01	
   2.1450000e+00	   3.1806886e+00	   9.0001781e-01	
   2.2000000e+00	   2.7656123e+00	   6.5839629e-01	
   2.2550000e+00	   2.8366494e+00	   6.1348252e-01	
   2.3100000e+00	   3.0573463e+00	   8.4888446e-01	
   2.3650000e+00	   3.3594709e+00	   1.0379025e+00	
   2.4200000e+00	   3.9078944e+00	   1.0607824e+00	
   2.4750000e+00	   3.3489937e+00	   8.6827811e-01	
   2.5300000e+00	   3.5192304e+00	   1.0361261e+00	
   2.5850000e+00	   3.5359128e+00	   9.6759918e-01	
   2.6400000e+00	   3.3873189e+00	   1.0941988e+00	
   2.6950000e+00	   3.2120821e+00	   8.7408382e-01	
   2.7500000e+00	   3.2685275e+00	   8.0958448e-01	
   2.8050000e+00	   3.1859641e+00	   8.7395978e-01	
   2.8600000e+00	   3.1028355e+00	   6.5692240e-01	
   2.9150000e+00	   3.0936003e+00	   7.4801563e-01	
   2.9700000e+00	   3.4769626e+00	   9.3161211e-01	
   3.0250000e+00	   3.7112050e+00	   1.1237839e+00	
   3.0800000e+00	   3.7446525e+00	   1.0504833e+00	
   3.1350000e+00	   3.5601215e+00	   9.5097534e-01	
   3.1900000e+00	   3.8912436e+00	   1.0168516e+00	
   3.2450000e+00	   3.1120234e+00	   8.2194365e-01	
   3.3000000e+00	   3.5198293e+00	   1.0485258e+00	
   3.3550000e+00	   3.0354283e+00	   7.3358664e-01	
   3.4100000e+00	   3.1488543e+00	   6.6547423e-01	
   3.4650000e+00	   3.1039104e+00	   6.2479071e-01	
   3.5200000e+00	   3.5124249e+00	   8.8211780e-01	
   3.5750000e+00	   3.7136959e+00	   1.0959059e+00	
   3.6300000e+00	   3.4313756e+00	   9.3067349e-01	
   3.6850000e+00	   3.4810805e+00	   7.7032943e-01	
   3.7400000e+00	   3.7247592e+00	   9.1647322e-01	
   3.7950000e+00	   3.6480611e+00	   8.4184013e-01	
   3.8500000e+00	   3.0382867e+00	   6.7522230e-01	
   3.9050000e+00	   3.2055098e+00	   6.7214695e-01	
   3.9600000e+00	   3.4624073e+00	   7.8242433e-01	
   4.0150000e+00	   2.9559043e+00	   5.8302228e-01	
   4.0700000e+00	   2.8502886e+00	   5.5452728e-01	
   4.1250000e+00	   3.3935317e+00	   5.7525286e-01	
   4.1800000e+00	   3.8187998e+00	   8.9556866e-01	
   4.2350000e+00	   3.3953816e+00	   7.0423080e-01	
   4.2900000e+00	   3.4153667e+00	   7.9124526e-01	
   4.3450000e+00	   3.3797484e+00	   6.4204233e-01	
   4.4000000e+00	   3.4951256e+00	   8.4953872e-01	
   4.4550000e+00	   3.3739698e+00	   7.7040984e-01	
   4.5100000e+00	   3.1772237e+00	   5.5640124e-01	
   4.5650000e+00	   2.8293150e+00	   4.2930588e-01	
   4.6200000e+00	   2.7500089e+00	   5.1174823e-01	
   4.6750000e+00	   2.8430366e+00	   5.0190955e-01	
   4.7300000e+00	   3.6219574e+00	   7.1598250e-01	
   4.7850000e+00	   3.0879524e+00	   6.3453722e-01	
   4.8400000e+00	   3.0704209e+00	   6.3939838e-01	
   4.8950000e+00	   3.3774768e+00	   8.1876139e-01	
   4.9500000e+00	   3.0777639e+00	   6.3224343e-01	
   5.0050000e+00	   2.9934506e+00	   5.0141135e-01	
   5.0600000e+00	   3.1347942e+00	   5.6940651e-01	
   5.1150000e+00	   3.2422524e+00	   7.1245367e-01	
   5.1700000e+00	   3.0207271e+00	   5.2501153e-01	
   5.2250000e+00	   2.4539176e+00	   1.2155656e-01	
   5.2800000e+00	   2.9425163e+00	   5.6054119e-01	
   5.3350000e+00	   3.1548168e+00	   6.3450696e-01	
   5.3900000e+00	   3.2836203e+00	   6.9980557e-01	
   5.4450000e+00	   2.8894892e+00	   6.9013355e-01	
   5.5000000e+00	   3.1947525e+00	   5.9376320e-01	
   5.5550000e+00	   2.9212200e+00	   6.2073094e-01	
   5.6100000e+00	   2.9557575e+00	   6.1188890e-01	
   5.6650000e+00	   3.1442816e+00	   5.8875473e-01	
   5.7200000e+00	   3.0077448e+00	   5.2304895e-01	
   5.7750000e+00	   2.6767655e+00	   3.5260349e-01	
   5.8300000e+00	   2.7162418e+00	   4.1100106e-01	
   5.8850000e+00	   2.8187900e+00	   4.2217161e-01	
   5.9400000e+00	   2.9513093e+00	   5.1093010e-01	
   5.9950000e+00	   3.2798930e+00	   8.0738508e-01	
   6.0500000e+00	   3.5739825e+00	   1.0352087e+00	
   6.1050000e+00	   3.1277735e+00	   6.6952006e-01	
   6.1600000e+00	   3.3267289e+00	   7.8074979e-01	
   6.2150000e+00	   3.0421560e+00	   9.3164673e-01	
   6.2700000e+00	   3.0948595e+00	   7.6191159e-01	
   6.3250000e+00	   2.8262256e+00	   5.1236541e-01	
   6.3800000e+00	   2.7141195e+00	   4.3918395e-01	
   6.4350000e+00	   2.7722384e+00	   5.7117205e-01	
   6.4900000e+00	   3.3713585e+00	   7.3788392e-01	
   6.5450000e+00	   3.2130005e+00	   8.1067610e-01	
   6.6000000e+00	   3.2989074e+00	   8.5507079e-01	
   6.6550000e+00	   3.5173699e+00	   9.5662310e-01	
   6.7100000e+00	   3.2652621e+00	   9.2626060e-01	
   6.7650000e+00	   3.2246641e+00	   8.1737710e-01	
   6.8200000e+00	   3.0133151e+00	   7.5479199e-01	
   6.8750000e+00	   2.8968200e+00	   6.9157373e-01	
   6.9300000e+00	   3.0226972e+00	   6.3944185e-01	
   6.9850000e+00	   2.7850642e+00	   5.2484211e-01	
   7.0400000e+00	   2.4554433e+00	   4.1270611e-01	
   7.0950000e+00	   2.8148056e+00	   6.5134389e-01	
   7.1500000e+00	   3.3911992e+00	   1.0327757e+00	
   7.2050000e+00	   3.6324246e+00	   1.0115791e+00	
   7.2600000e+00	   3.6129272e+00	   1.0035548e+00	
   7.3150000e+00	   3.4466182e+00	   9.4043829e-01	
   7.3700000e+00	   3.4827811e+00	   1.1104771e+00	
   7.4250000e+00	   3.3327231e+00	   9.6120792e-01	
   7.4800000e+00	   3.0373372e+00	   7.5559583e-01	
   7.5350000e+00	   3.5305738e+00	   7.8104771e-01	
   7.5900000e+00	   3.0979201e+00	   8.7996607e-01	
   7.6450000e+00	   3.4346501e+00	   8.7082940e-01	
   7.7000000e+00	   2.7870340e+00	   5.4854703e-01	
   7.7550000e+00	   3.1778129e+00	   7.3395587e-01	
   7.8100000e+00	   3.5796331e+00	   9.9632145e-01	
   7.8650000e+00	   3.6866946e+00	   1.0131200e+00	
   7.9200000e+00	   3.6148491e+00	   1.0493249e+00	
   7.9750000e+00	   3.4239579e+00	   6.6120574e-01	
   8.0300000e+00	   3.3802126e+00	   9.0757185e-01	
   8.0850000e+00	   3.6189563e+00	   1.0473191e+00	
   8.1400000e+00	   3.3271820e+00	   9.7783589e-01	
   8.1950000e+00	   3.4162785e+00	   8.1702068e-01	
   8.2500000e+00	   2.9468757e+00	   7.4848791e-01	
   8.3050000e+00	   3.0524462e+00	   7.4867200e-01	
   8.3600000e+00	   2.8534546e+00	   5.3463855e-01	
   8.4150000e+00	   2.9848764e+00	   6.2441083e-01	
   8.4700000e+00	   3.5283077e+00	   8.9007137e-01	
   8.5250000e+00	   3.8259568e+00	   1.0470640e+00	
   8.5800000e+00	   3.7724151e+00	   1.0263012e+00	
   8.6350000e+00	   3.3578391e+00	   8.8100005e-01	
   8.6900000e+00	   3.3694974e+00	   9.8036365e-01	
   8.7450000e+00	   3.3655185e+00	   8.3214931e-01	
   8.8000000e+00	   3.4057966e+00	   9.5737142e-01	
   8.8550000e+00	   3.1721779e+00	   7.7414854e-01	
   8.9100000e+00	   3.3780381e+00	   8.0378016e-01	
   8.9650000e+00	   2.9743884e+00	   6.3721452e-01	
   9.0200000e+00	   3.2734004e+00	   7.5557015e-01	
   9.0750000e+00	   3.5284464e+00	   8.5444596e-01	
   9.1300000e+00	   3.6059646e+00	   8.6668296e-01	
   9.1850000e+00	   3.6464634e+00	   1.0126370e+00	
   9.2400000e+00	   3.6480793e+00	   8.7926917e-01	
   9.2950000e+00	   3.7463910e+00	   9.8444530e-01	
   9.3500000e+00	   3.3309232e+00	   8.1391624e-01	
   9.4050000e+00	   3.3515851e+00	   8.7017066e-01	
   9.4600000e+00	   3.0639537e+00	   7.7441487e-01	
   9.5150000e+00	   3.1425669e+00	   6.0106459e-01	
   9.5700000e+00	   3.0052645e+00	   5.2094805e-01	
   9.6250000e+00	   3.2091639e+00	   6.7795002e-01	
   9.6800000e+00	   3.8463597e+00	   1.1732356e+00	
   9.7350000e+00	   3.5061487e+00	   8.5451153e-01	
   9.7900000e+00	   3.9000629e+00	   9.9826984e-01	
   9.8450000e+00	   3.6252448e+00	   9.3161211e-01	
   9.9000000e+00	   3.6181604e+00	   9.4401503e-01	
   9.9550000e+00	   3.7979134e+00	   9.5629287e-01	
   1.0010000e+01	   3.5242618e+00	   8.7403194e-01	
   1.0065000e+01	   3.5113171e+00	   7.6121465e-01	
   1.0120000e+01	   3.4555668e+00	   7.7486662e-01	
   1.0175000e+01	   3.2003045e+00	   8.3826885e-01	
   1.0230000e+01	   2.9577593e+00	   5.4345707e-01	
   1.0285000e+01	   3.0879338e+00	   5.6749724e-01	
   1.0340000e+01	   4.0260466e+00	   1.1193158e+00	
   1.0395000e+01	   4.1332005e+00	   1.0322108e+00	
   1.0450000e+01	   3.6422905e+00	   8.4072986e-01	
   1.0505000e+01	   3.5700226e+00	   8.0996473e-01	
   1.0560000e+01	   3.9633996e+00	   1.1115165e+00	
   1.0615000e+01	   3.6622064e+00	   9.9261420e-01	
   1.0670000e+01	   3.6269358e+00	   8.1585584e-01	
   1.0725000e+01	   3.2783960e+00	   7.9090835e-01	
   1.0780000e+01	   3.4646600e+00	   8.1603489e-01	
   1.0835000e+01	   3.2893271e+00	   6.5999974e-01	
   1.0890000e+01	   2.9155367e+00	   5.9289285e-01	
   1.0945000e+01	   3.5523509e+00	   6.1142158e-01	
   1.1000000e+01	   3.9826337e+00	   1.1679398e+00	
   1.1055000e+01	   3.9145534e+00	   1.0125189e+00	
   1.1110000e+01	   3.7993341e+00	   1.0008194e+00	
   1.1165000e+01	   3.8539235e+00	   9.4216728e-01	
   1.1220000e+01	   3.6353030e+00	   8.8316307e-01	
   1.1275000e+01	   3.9240354e+00	   9.5424637e-01	
   1.1330000e+01	   3.5883494e+00	   8.3745676e-01	
   1.1385000e+01	   3.2585487e+00	   6.8846943e-01	
   1.1440000e+01	   3.4435106e+00	   7.0943381e-01	
   1.1495000e+01	   3.4597759e+00	   8.0837277e-01	
   1.1550000e+01	   3.4255890e+00	   6.1817190e-01	
   1.1605000e+01	   2.8772964e+00	   4.1011894e-01	
   1.1660000e+01	   3.2189620e+00	   5.4977503e-01	
   1.1715000e+01	   3.6498649e+00	   9.7787865e-01	
   1.1770000e+01	   3.8273398e+00	   7.7739534e-01	
   1.1825000e+01	   3.7435079e+00	   8.6813356e-01	
   1.1880000e+01	   4.0985905e+00	   8.0219917e-01	
   1.1935000e+01	   3.6142295e+00	   7.5097708e-01	
   1.1990000e+01	   3.7028419e+00	   9.1104830e-01	
   1.2045000e+01	   3.3016888e+00	   5.7310859e-01	
   1.2100000e+01	   3.3346457e+00	   6.3673672e-01	
   1.2155000e+01	   3.2985148e+00	   5.7525286e-01	
   1.2210000e+01	   3.4720186e+00	   6.7526443e-01	
   1.2265000e+01	   3.4247980e+00	   4.3102605e-01	
   1.2320000e+01	   3.3293542e+00	   4.5735717e-01	
   1.2375000e+01	   3.8165518e+00	   8.5026867e-01	
   1.2430000e+01	   3.5622069e+00	   6.8464710e-01	
   1.2485000e+01	   3.5919845e+00	   8.1055997e-01	
   1.2540000e+01	   3.3790541e+00	   7.0414979e-01	
   1.2595000e+01	   3.6052941e+00	   9.0418520e-01	
   1.2650000e+01	   3.7249590e+00	   8.6071169e-01	
   1.2705000e+01	   3.3294492e+00	   6.4652800e-01	
   1.2760000e+01	   3.1666873e+00	   4.4046724e-01	
   1.2815000e+01	   3.1371675e+00	   4.3833056e-01	
   1.2870000e+01	   2.8549648e+00	   3.9308726e-01	
   1.2925000e+01	   2.9501168e+00	   5.2587507e-01	
   1.2980000e+01	   3.5484142e+00	   6.1596816e-01	
   1.3035000e+01	   3.5717204e+00	   7.5510929e-01	
   1.3090000e+01	   3.6643307e+00	   7.6162202e-01	
   1.3145000e+01	   3.6261107e+00	   7.7104276e-01	
   1.3200000e+01	   3.1716585e+00	   6.2742412e-01	
   1.3255000e+01	   3.3571320e+00	   6.5919766e-01	
   1.3310000e+01	   3.4398648e+00	   7.5183627e-01	
   1.3365000e+01	   3.2094281e+00	   6.4271960e-01	
   1.3420000e+01	   2.9680241e+00	   4.1189116e-01	
   1.3475000e+01	   2.6608801e+00	   3.5894367e-01	
   1.3530000e+01	   3.2096748e+00	   4.7646895e-01	
   1.3585000e+01	   3.7979746e+00	   7.6078814e-01	
   1.3640000e+01	   3.5410145e+00	   7.1551345e-01	
   1.3695000e+01	   3.5204878e+00	   7.4001907e-01	
   1.3750000e+01	   3.5010122e+00	   8.4441923e-01	
   1.3805000e+01	   3.8346596e+00	   8.6596677e-01	
   1.3860000e+01	   3.4823603e+00	   7.0444012e-01	
   1.3915000e+01	   3.3814453e+00	   7.0858727e-01	
   1.3970000e+01	   3.1509561e+00	   7.4266790e-01	
   1.4025000e+01	   3.4030527e+00	   6.7913523e-01	
   1.4080000e+01	   3.1979504e+00	   4.7290652e-01	
   1.4135000e+01	   3.1381985e+00	   3.1938232e-01	
   1.4190000e+01	   3.5626624e+00	   8.2716478e-01	
   1.4245000e+01	   3.7760972e+00	   9.6671530e-01	
   1.4300000e+01	   3.6433809e+00	   8.4999136e-01	
   1.4355000e+01	   4.0705450e+00	   8.9785979e-01	
   1.4410000e+01	   3.9009707e+00	   8.0847069e-01	
   1.4465000e+01	   4.0489440e+00	   1.1358499e+00	
   1.4520000e+01	   3.7456430e+00	   7.8782169e-01	
   1.4575000e+01	   3.8629002e+00	   8.0057142e-01	
   1.4630000e+01	   3.7895176e+00	   8.1090881e-01	
   1.4685000e+01	   3.4579143e+00	   7.0076737e-01	
   1.4740000e+01	   3.5033598e+00	   6.5367948e-01	
   1.4795000e+01	   3.4215639e+00	   4.0927913e-01	
   1.4850000e+01	   3.5047204e+00	   8.2748768e-01	
   1.4905000e+01	   4.0125860e+00	   1.0726031e+00	
   1.4960000e+01	   4.1784313e+00	   1.1048363e+00	
   1.5015000e+01	   4.0008599e+00	   8.2657939e-01	
   1.5070000e+01	   4.1103760e+00	   9.1531590e-01	
   1.5125000e+01	   4.2348351e+00	   1.0504734e+00	
   1.5180000e+01	   4.0356246e+00	   1.0773347e+00	
   1.5235000e+01	   3.8502140e+00	   9.8556667e-01	
   1.5290000e+01	   3.6542519e+00	   9.0892015e-01	
   1.5345000e+01	   3.7444641e+00	   8.3298113e-01	
   1.5400000e+01	   3.8419405e+00	   7.7454399e-01	
   1.5455000e+01	   3.4821307e+00	   6.6541449e-01	
   1.5510000e+01	   3.6584414e+00	   7.8772908e-01	
   1.5565000e+01	   3.9142437e+00	   8.5464266e-01	
   1.5620000e+01	   4.5294963e+00	   1.0869923e+00	
   1.5675000e+01	   4.2916601e+00	   1.0570760e+00	
   1.5730000e+01	   4.2200389e+00	   1.1034666e+00	
   1.5785000e+01	   4.2376163e+00	   1.2751204e+00	
   1.5840000e+01	   4.1948330e+00	   1.1852661e+00	
   1.5895000e+01	   4.3925974e+00	   1.1136690e+00	
   1.5950000e+01	   3.8628127e+00	   9.2329670e-01	
   1.6005000e+01	   4.1454912e+00	   1.0035425e+00	
   1.6060000e+01	   3.8814369e+00	   1.0441928e+00	
   1.6115000e+01	   3.8920141e+00	   9.0615811e-01	
   1.6170000e+01	   3.6072802e+00	   5.6100513e-01	
   1.6225000e+01	   3.9522747e+00	   8.8160046e-01	
   1.6280000e+01	   4.1086080e+00	   8.1055997e-01	
   1.6335000e+01	   4.2920155e+00	   1.0718698e+00	
   1.6390000e+01	   4.3016549e+00	   9.5672672e-01	
   1.6445000e+01	   4.0109888e+00	   1.1383405e+00	
   1.6500000e+01	   4.3787601e+00	   9.5210437e-01	
   1.6555000e+01	   4.2430054e+00	   1.0729075e+00	
   1.6610000e+01	   4.0353198e+00	   9.1271649e-01	
   1.6665000e+01	   3.9976500e+00	   9.4069061e-01	
   1.6720000e+01	   4.0760922e+00	   1.0779727e+00	
   1.6775000e+01	   3.7326588e+00	   8.3901379e-01	
   1.6830000e+01	   3.6776976e+00	   6.5026802e-01	
   1.6885000e+01	   3.8371580e+00	   7.0791784e-01	
   1.6940000e+01	   3.4859410e+00	   5.3504868e-01	
   1.6995000e+01	   4.0512871e+00	   9.8019578e-01	
   1.7050000e+01	   4.3375124e+00	   8.5490199e-01	
   1.7105000e+01	   3.9593026e+00	   9.2227624e-01	
   1.7160000e+01	   4.2449535e+00	   1.0028272e+00	
   1.7215000e+01	   4.2062403e+00	   1.0970795e+00	
   1.7270000e+01	   3.6483459e+00	   7.6629766e-01	
   1.7325000e+01	   3.8964524e+00	   7.0748890e-01	
   1.7380000e+01	   3.7135485e+00	   8.1636997e-01	
   1.7435000e+01	   4.1090960e+00	   7.9575277e-01	
   1.7490000e+01	   3.5191190e+00	   4.8957309e-01	
   1.7545000e+01	   3.2309233e+00	   6.2642092e-01	
   1.7600000e+01	   3.6896149e+00	   6.8980373e-01	
   1.7655000e+01	   3.9093005e+00	   9.1461746e-01	
   1.7710000e+01	   3.8010479e+00	   7.9571394e-01	
   1.7765000e+01	   3.8971584e+00	   7.7405073e-01	
   1.7820000e+01	   4.1107788e+00	   9.2140131e-01	
   1.7875000e+01	   4.1637073e+00	   1.0790030e+00	
   1.7930000e+01	   3.9393554e+00	   7.7653266e-01	
   1.7985000e+01	   3.7543282e+00	   9.3050921e-01	
   1.8040000e+01	   3.9140686e+00	   6.7463485e-01	
   1.8095000e+01	   3.5365250e+00	   7.4236142e-01	
   1.8150000e+01	   3.4061588e+00	   6.4411252e-01	
   1.8205000e+01	   3.4591852e+00	   5.8018983e-01	
   1.8260000e+01	   3.2582206e+00	   4.8129491e-01	
   1.8315000e+01	   3.2341965e+00	   4.2999663e-01	
   1.8370000e+01	   3.6661786e+00	   6.8106884e-01	
   1.8425000e+01	   3.9058176e+00	   7.7967749e-01	
   1.8480000e+01	   3.8182398e+00	   7.6594170e-01	
   1.8535000e+01	   3.9307001e+00	   8.9518160e-01	
   1.8590000e+01	   3.8110235e+00	   8.6057795e-01	
   1.8645000e+01	   3.7628201e+00	   7.6130386e-01	
   1.8700000e+01	   3.5815493e+00	   8.5012193e-01	
   1.8755000e+01	   3.7607528e+00	   9.6662328e-01	
   1.8810000e+01	   3.8825111e+00	   7.8190989e-01	
   1.8865000e+01	   3.3251948e+00	   6.5579267e-01	
   1.8920000e+01	   3.0326054e+00	   5.6558447e-01	
   1.8975000e+01	   3.5249567e+00	   6.4620501e-01	
   1.9030000e+01	   3.0647781e+00	   4.0502912e-01	
   1.9085000e+01	   3.0466082e+00	   4.3870015e-01	
   1.9140000e+01	   3.4225998e+00	   5.4895106e-01	
   1.9195000e+01	   3.9815268e+00	   9.8253075e-01	
   1.9250000e+01	   3.7278145e+00	   9.0413162e-01	
   1.9305000e+01	   3.7926984e+00	   7.4148143e-01	
   1.9360000e+01	   3.4964402e+00	   5.6183362e-01	
   1.9415000e+01	   3.7012264e+00	   8.0234319e-01	
   1.9470000e+01	   3.5528346e+00	   7.9782918e-01	
   1.9525000e+01	   3.3807251e+00	   5.5071780e-01	
   1.9580000e+01	   3.1423441e+00	   4.8030961e-01	
   1.9635000e+01	   3.0980148e+00	   5.4146771e-01	
   1.9690000e+01	   3.0421914e+00	   5.0936430e-01	
   1.9745000e+01	   2.7924983e+00	   3.6909512e-01	
   1.9800000e+01	   2.9497704e+00	   3.2326676e-01	
   1.9855000e+01	   3.4347993e+00	   7.0211668e-01	
   1.9910000e+01	   3.6519519e+00	   6.1546475e-01	
   1.9965000e+01	   3.6895675e+00	   7.3419011e-01	
   2.0020000e+01	   3.5873702e+00	   8.4943213e-01	
   2.0075000e+01	   3.3367696e+00	   6.8128290e-01	
   2.0130000e+01	   3.4879558e+00	   7.9422837e-01	
   2.0185000e+01	   3.3271053e+00	   6.5913149e-01	
   2.0240000e+01	   2.9847121e+00	   5.0634663e-01	
   2.0295000e+01	   2.7728405e+00	   4.8798803e-01	
   2.0350000e+01	   2.6921075e+00	   3.4887212e-01	
   2.0405000e+01	   2.6967893e+00	   4.1026953e-01	
   2.0460000e+01	   3.0769062e+00	   3.8275115e-01	
   2.0515000e+01	   3.2194593e+00	   5.7006262e-01	
   2.0570000e+01	   3.4498545e+00	   9.1868003e-01	
   2.0625000e+01	   3.3289634e+00	   7.7907086e-01	
   2.0680000e+01	   2.8972403e+00	   4.5510916e-01	
   2.0735000e+01	   3.0397580e+00	   4.5143429e-01	
   2.0790000e+01	   3.0168649e+00	   5.3374775e-01	
   2.0845000e+01	   3.1788481e+00	   6.8858664e-01	
   2.0900000e+01	   2.8593794e+00	   5.2168359e-01	
   2.0955000e+01	   2.8043255e+00	   3.7776076e-01	
   2.1010000e+01	   2.7552483e+00	   4.5735710e-01	
   2.1065000e+01	   2.9427676e+00	   4.4594732e-01	
   2.1120000e+01	   3.0971041e+00	   5.7256198e-01	
   2.1175000e+01	   3.5400072e+00	   8.6941814e-01	
   2.1230000e+01	   3.3159164e+00	   8.1937498e-01	
   2.1285000e+01	   3.4519059e+00	   8.6276694e-01	
   2.1340000e+01	   3.2458321e+00	   7.3488738e-01	
   2.1395000e+01	   3.3415060e+00	   8.2540403e-01	
   2.1450000e+01	   3.1913328e+00	   7.5300463e-01	
   2.1505000e+01	   3.0984122e+00	   8.1284531e-01	
   2.1560000e+01	   2.6936308e+00	   6.0522500e-01	
   2.1615000e+01	   2.7659129e+00	   5.5367294e-01	
   2.1670000e+01	   2.7778349e+00	   3.9876248e-01	
   2.1725000e+01	   2.8934842e+00	   5.6986891e-01	
   2.1780000e+01	   3.4461523e+00	   9.8308603e-01	
   2.1835000e+01	   3.0499619e+00	   6.5589012e-01	
   2.1890000e+01	   3.1337515e+00	   9.2707878e-01	
   2.1945000e+01	   3.4838757e+00	   1.1650179e+00	
   2.2000000e+01	   3.5316923e+00	   1.0164292e+00	
   2.2055000e+01	   3.4027633e+00	   9.4017005e-01	
   2.2110000e+01	   3.0914354e+00	   8.6541748e-01	
   2.2165000e+01	   3.1484121e+00	   8.8552078e-01	
   2.2220000e+01	   3.2663926e+00	   7.3242728e-01	
   2.2275000e+01	   2.7714449e+00	   4.6736574e-01	
   2.2330000e+01	   3.0689756e+00	   7.7892712e-01	
   2.2385000e+01	   2.7871835e+00	   6.4950408e-01	
   2.2440000e+01	   3.2538164e+00	   8.3927706e-01	
   2.2495000e+01	   3.2475134e+00	   7.4143762e-01	
   2.2550000e+01	   3.4746855e+00	   9.7420568e-01	
   2.2605000e+01	   3.7493154e+00	   1.1749473e+00	
   2.2660000e+01	   3.3938517e+00	   1.0841738e+00	
   2.2715000e+01	   3.6355957e+00	   1.1741024e+00	
   2.2770000e+01	   3.4264746e+00	   1.0353212e+00	
   2.2825000e+01	   3.4806918e+00	   1.0995725e+00	
   2.2880000e+01	   3.4757873e+00	   1.1927836e+00	
   2.2935000e+01	   3.1365390e+00	   8.7888732e-01	
   2.2990000e+01	   3.2180618e+00	   6.8367607e-01	
   2.3045000e+01	   2.8755534e+00	   8.0562376e-01	
   2.3100000e+01	   3.2758678e+00	   9.0069055e-01	
   2.3155000e+01	   2.9104011e+00	   5.8850727e-01	
   2.3210000e+01	   3.3783045e+00	   8.5070762e-01	
   2.3265000e+01	   3.5499248e+00	   1.0808886e+00	
   2.3320000e+01	   3.5720884e+00	   1.0579010e+00	
   2.3375000e+01	   3.6752095e+00	   1.0421873e+00	
   2.3430000e+01	   3.5866800e+00	   1.1245637e+00	
   2.3485000e+01	   3.6972306e+00	   1.1680660e+00	
   2.3540000e+01	   3.5384735e+00	   1.1149609e+00	
   2.3595000e+01	   3.3517603e+00	   9.8064488e-01	
   2.3650000e+01	   3.4043514e+00	   1.0009798e+00	
   2.3705000e+01	   2.9121273e+00	   7.2700245e-01	
   2.3760000e+01	   3.0858486e+00	   8.6038837e-01	
   2.3815000e+01	   3.1219433e+00	   8.9183375e-01	
   2.3870000e+01	   3.0952088e+00	   6.7787251e-01	
   2.3925000e+01	   2.8025019e+00	   5.6665404e-01	
   2.3980000e+01	   3.1787129e+00	   9.1901594e-01	
   2.4035000e+01	   3.5079588e+00	   1.1486758e+00	
   2.4090000e+01	   3.7740884e+00	   1.1158749e+00	
   2.4145000e+01	   3.3490283e+00	   8.7602946e-01	
   2.4200000e+01	   3.4069699e+00	   1.0789889e+00	
   2.4255000e+01	   3.5082357e+00	   1.1846588e+00	
   2.4310000e+01	   3.3989964e+00	   9.4043899e-01	
   2.4365000e+01	   3.2199197e+00	   7.5247796e-01	
   2.4420000e+01	   3.6065841e+00	   1.0498048e+00	
   2.4475000e+01	   3.3583274e+00	   7.0983559e-01	
   2.4530000e+01	   2.9562521e+00	   6.8016193e-01	
   2.4585000e+01	   2.8501475e+00	   5.8522929e-01	
   2.4640000e+01	   2.5933826e+00	   5.2605939e-01	
   2.4695000e+01	   3.1149688e+00	   7.0954166e-01	
   2.4750000e+01	   3.3597633e+00	   8.1840424e-01	
   2.4805000e+01	   3.4140048e+00	   9.9221831e-01	
   2.4860000e+01	   3.3697406e+00	   1.0918869e+00	
   2.4915000e+01	   3.2349954e+00	   8.9031916e-01	
   2.4970000e+01	   3.2788022e+00	   7.0621608e-01	
   2.5025000e+01	   2.9764307e+00	   6.6305649e-01	
   2.5080000e+01	   2.9460945e+00	   8.2551919e-01	
   2.5135000e+01	   3.0684158e+00	   8.0301631e-01	
   2.5190000e+01	   3.1087194e+00	   6.7394065e-01	
   2.5245000e+01	   2.9496801e+00	   5.4036576e-01	
   2.5300000e+01	   2.3808794e+00	   4.9640607e-01	
   2.5355000e+01	   2.4053774e+00	   4.4851106e-01	
   2.5410000e+01	   2.4097562e+00	   3.1506320e-01	
   2.5465000e+01	   3.2264572e+00	   5.2899997e-01	
   2.5520000e+01	   3.0768584e+00	   7.8899385e-01	
   2.5575000e+01	   3.3642110e+00	   8.2351189e-01	
   2.5630000e+01	   3.0336409e+00	   7.5090038e-01	
   2.5685000e+01	   3.3336216e+00	   7.5530168e-01	
   2.5740000e+01	   2.9190924e+00	   7.4349684e-01	
   2.5795000e+01	   2.9214184e+00	   8.3797270e-01	
   2.5850000e+01	   2.6251934e+00	   6.2820733e-01	
   2.5905000e+01	   2.5421080e+00	   4.5089515e-01	
   2.5960000e+01	   2.5896335e+00	   4.3801130e-01	
   2.6015000e+01	   2.3739893e+00	   4.2124890e-01	
   2.6070000e+01	   2.6200320e+00	   3.7988234e-01	
   2.6125000e+01	   3.1539988e+00	   5.4239078e-01	
   2.6180000e+01	   3.0672401e+00	   6.8215660e-01	
   2.6235000e+01	   3.2741115e+00	   7.6933945e-01	
   2.6290000e+01	   2.9597363e+00	   6.7347469e-01	
   2.6345000e+01	   2.8645744e+00	   5.1956916e-01	
   2.6400000e+01	   3.1012766e+00	   6.5721171e-01	
   2.6455000e+01	   2.7735130e+00	   7.1624928e-01	
   2.6510000e+01	   2.6167554e+00	   5.6591576e-01	
   2.6565000e+01	   2.7056137e+00	   4.9833423e-01	
   2.6620000e+01	   2.4010718e+00	   2.7946506e-01	
   2.6675000e+01	   2.1562367e+00	   2.1541605e-01	
   2.6730000e+01	   2.4603092e+00	   3.9891431e-01	
   2.6785000e+01	   3.0148193e+00	   6.2309989e-01	
   2.6840000e+01	   3.1339886e+00	   5.9941760e-01	
   2.6895000e+01	   3.0052762e+00	   6.2466434e-01	
   2.6950000e+01	   3.0124768e+00	   7.4961725e-01	
   2.7005000e+01	   2.9369776e+00	   6.4172464e-01	
   2.7060000e+01	   2.8067822e+00	   4.7541413e-01	
   2.7115000e+01	   2.5626629e+00	   5.1439804e-01	
   2.7170000e+01	   2.7155512e+00	   6.3187555e-01	
   2.7225000e+01	   2.6200232e+00	   4.9444343e-01	
   2.7280000e+01	   2.4370695e+00	   5.0507682e-01	
   2.7335000e+01	   2.2556343e+00	   2.5374010e-01	
   2.7390000e+01	   2.1945092e+00	   3.9872144e-01	
   2.7445000e+01	   2.9892542e+00	   7.0593411e-01	
   2.7500000e+01	   2.8745988e+00	   6.0321361e-01	
   2.7555000e+01	   2.8834738e+00	   6.2433171e-01	
   2.7610000e+01	   3.1791749e+00	   8.1708772e-01	
   2.7665000e+01	   3.2709274e+00	   9.1364854e-01	
   2.7720000e+01	   2.8909293e+00	   6.0288910e-01	
   2.7775000e+01	   2.7624245e+00	   4.6716088e-01	
   2.7830000e+01	   2.5476109e+00	   5.6165822e-01	
   2.7885000e+01	   2.5616294e+00	   6.3329069e-01	
   2.7940000e+01	   2.5130895e+00	   3.6751806e-01	
   2.7995000e+01	   2.5176060e+00	   3.8699874e-01	
   2.8050000e+01	   2.2044670e+00	   3.0597969e-01	
   2.8105000e+01	   2.3890037e+00	   3.5510518e-01	
   2.8160000e+01	   2.7608876e+00	   6.4326171e-01	
   2.8215000e+01	   2.9788095e+00	   6.9009484e-01	
   2.8270000e+01	   3.0417422e+00	   7.1941917e-01	
   2.8325000e+01	   3.0127101e+00	   7.4798921e-01	
   2.8380000e+01	   2.9235963e+00	   6.5897973e-01	
   2.8435000e+01	   2.7124450e+00	   4.8505989e-01	
   2.8490000e+01	   2.8424037e+00	   6.0446032e-01	
   2.8545000e+01	   3.1356910e+00	   7.7522902e-01	
   2.8600000e+01	   2.9426207e+00	   5.9011325e-01	
   2.8655000e+01	   2.7388392e+00	   4.4545919e-01	
   2.8710000e+01	   2.1644967e+00	   1.9515691e-01	
   2.8765000e+01	   2.3361650e+00	   3.8586867e-01	
   2.8820000e+01	   2.3033787e+00	   2.1677265e-01	
   2.8875000e+01	   2.7551349e+00	   4.4673476e-01	
   2.8930000e+01	   3.0728341e+00	   6.6204686e-01	
   2.8985000e+01	   3.0683959e+00	   7.6033127e-01	
   2.9040000e+01	   3.1766340e+00	   8.0005422e-01	
   2.9095000e+01	   2.8020437e+00	   6.7328622e-01	
   2.9150000e+01	   2.7213630e+00	   6.3982247e-01	
   2.9205000e+01	   2.7760236e+00	   6.4480126e-01	
   2.9260000e+01	   2.8750638e+00	   5.5841785e-01	
   2.9315000e+01	   2.4532906e+00	   4.7757444e-01	
   2.9370000e+01	   2.4009956e+00	   1.7796250e-01	
   2.9425000e+01	   2.4583516e+00	   4.8744838e-01	
   2.9480000e+01	   2.2627913e+00	   3.8315857e-01	
   2.9535000e+01	   2.7912365e+00	   4.5981121e-01	
   2.9590000e+01	   2.6958463e+00	   4.7554610e-01	
   2.9645000e+01	   2.8940198e+00	   6.0153151e-01	
   2.9700000e+01	   2.8959071e+00	   7.2787207e-01	
   2.9755000e+01	   2.8110781e+00	   5.2527243e-01	
   2.9810000e+01	   2.7331612e+00	   4.2720835e-01	
   2.9865000e+01	   2.5168371e+00	   4.2944296e-01	
   2.9920000e+01	   2.6516025e+00	   5.0740908e-01	
   2.9975000e+01	   2.2745765e+00	   3.6253612e-01	
   3.0030000e+01	   2.2361381e+00	   3.3391585e-01	
   3.0085000e+01	   2.2968970e+00	   2.5290760e-01	
   3.0140000e+01	   3.1790063e+00	   6.3613950e-01	
   3.0195000e+01	   2.9246233e+00	   5.3567581e-01	
   3.0250000e+01	   2.6722592e+00	   5.4889652e-01	
   3.0305000e+01	   2.8457644e+00	   6.6929972e-01	
   3.0360000e+01	   3.0558551e+00	   7.2076486e-01	
   3.0415000e+01	   2.6605528e+00	   5.8215215e-01	
   3.0470000e+01	   2.9515182e+00	   6.9630189e-01	
   3.0525000e+01	   2.4976327e+00	   4.9326036e-01	
   3.0580000e+01	   2.5759762e+00	   6.3678438e-01	
   3.0635000e+01	   2.4385689e+00	   3.9591850e-01	
   3.0690000e+01	   2.1609440e+00	   2.3943337e-01	
   3.0745000e+01	   2.0706421e+00	   1.2938089e-01	
   3.0800000e+01	   2.8924142e+00	   7.7272883e-01	
   3.0855000e+01	   3.3978766e+00	   9.3361568e-01	
   3.0910000e+01	   2.7298446e+00	   8.0667792e-01	
   3.0965000e+01	   2.8167585e+00	   7.0376574e-01	
   3.1020000e+01	   3.0824992e+00	   8.3925552e-01	
   3.1075000e+01	   2.9046410e+00	   7.2551805e-01	
   3.1130000e+01	   2.8319848e+00	   6.6388422e-01	
   3.1185000e+01	   2.6833374e+00	   4.1334597e-01	
   3.1240000e+01	   2.6762586e+00	   6.8418864e-01	
   3.1295000e+01	   2.5653155e+00	   5.5556998e-01	
   3.1350000e+01	   2.1211276e+00	   2.9614068e-01	
   3.1405000e+01	   2.5068987e+00	   4.2614342e-01	
   3.1460000e+01	   3.0920158e+00	   7.8846569e-01	
   3.1515000e+01	   3.0519218e+00	   8.9257325e-01	
   3.1570000e+01	   3.1991789e+00	   7.0573944e-01	
   3.1625000e+01	   3.0738246e+00	   7.7466335e-01	
   3.1680000e+01	   2.9792268e+00	   6.9409924e-01	
   3.1735000e+01	   2.9272453e+00	   7.2904633e-01	
   3.1790000e+01	   2.9555739e+00	   6.7748523e-01	
   3.1845000e+01	   2.5848383e+00	   5.5261568e-01	
   3.1900000e+01	   2.7692314e+00	   6.3632769e-01	
   3.1955000e+01	   2.6337734e+00	   6.0453776e-01	
   3.2010000e+01	   2.5944767e+00	   5.9046578e-01	
   3.2065000e+01	   2.7587151e+00	   4.8612087e-01	
   3.2120000e+01	   2.6561791e+00	   5.4012629e-01	
   3.2175000e+01	   3.0656096e+00	   8.4289748e-01	
   3.2230000e+01	   3.0424368e+00	   8.5353235e-01	
   3.2285000e+01	   3.2168784e+00	   7.9746630e-01	
   3.2340000e+01	   3.0432244e+00	   7.5891694e-01	
   3.2395000e+01	   3.1620647e+00	   9.8752651e-01	
   3.2450000e+01	   3.1709940e+00	   9.2868927e-01	
   3.2505000e+01	   2.8749277e+00	   6.7124940e-01	
   3.2560000e+01	   2.7468704e+00	   6.2149974e-01	
   3.2615000e+01	   2.6739463e+00	   6.8495982e-01	
   3.2670000e+01	   2.4548609e+00	   5.2970661e-01	
   3.2725000e+01	   2.4594592e+00	   3.8097685e-01	
   3.2780000e+01	   2.5578401e+00	   4.0466157e-01	
   3.2835000e+01	   3.0897986e+00	   6.5974359e-01	
   3.2890000e+01	   3.1569779e+00	   7.3921611e-01	
   3.2945000e+01	   2.9721532e+00	   7.1001009e-01	
   3.3000000e+01	   2.8903165e+00	   7.0178561e-01	
   3.3055000e+01	   3.1691904e+00	   7.8289218e-01	
   3.3110000e+01	   3.0963413e+00	   7.9173695e-01	
   3.3165000e+01	   2.5914756e+00	   6.0927933e-01	
   3.3220000e+01	   2.8203428e+00	   6.2987891e-01	
   3.3275000e+01	   2.5466494e+00	   6.2070321e-01	
   3.3330000e+01	   2.3098216e+00	   4.1821038e-01	
   3.3385000e+01	   2.4090493e+00	   3.0031155e-01	
   3.3440000e+01	   2.7482280e+00	   5.8314465e-01	
   3.3495000e+01	   2.9055246e+00	   8.0382163e-01	
   3.3550000e+01	   2.9925523e+00	   8.6843840e-01	
   3.3605000e+01	   2.8466048e+00	   5.7110382e-01	
   3.3660000e+01	   2.7335496e+00	   6.1751767e-01	
   3.3715000e+01	   2.5949630e+00	   8.1987251e-01	
   3.3770000e+01	   2.7955536e+00	   7.6734838e-01	
   3.3825000e+01	   2.5208328e+00	   6.2414727e-01	
   3.3880000e+01	   2.4928026e+00	   6.3068737e-01	
   3.3935000e+01	   2.1792025e+00	   3.3865013e-01	
   3.3990000e+01	   2.4146401e+00	   5.0992794e-01	
   3.4045000e+01	   2.7578992e+00	   5.6721763e-01	
   3.4100000e+01	   2.7547245e+00	   6.7382883e-01	
   3.4155000e+01	   2.7438571e+00	   6.7362706e-01	
   3.4210000e+01	   3.1025302e+00	   8.3675014e-01	
   3.4265000e+01	   3.0323186e+00	   9.6413788e-01	
   3.4320000e+01	   2.5123809e+00	   6.2546944e-01	
   3.4375000e+01	   2.4142172e+00	   5.0363020e-01	
   3.4430000e+01	   2.9374766e+00	   7.4802045e-01	
   3.4485000e+01	   2.7648422e+00	   6.1191790e-01	
   3.4540000e+01	   2.2680687e+00	   3.9010023e-01	
   3.4595000e+01	   2.2503338e+00	   3.6264183e-01	
   3.4650000e+01	   2.5355390e+00	   6.1163556e-01	
   3.4705000e+01	   2.6287161e+00	   7.8684046e-01	
   3.4760000e+01	   3.1071152e+00	   6.4744325e-01	
   3.4815000e+01	   3.2989204e+00	   7.4589119e-01	
   3.4870000e+01	   2.8431107e+00	   8.7047668e-01	
   3.4925000e+01	   3.0926407e+00	   8.1881932e-01	
   3.4980000e+01	   2.5083650e+00	   6.0420533e-01	
   3.5035000e+01	   2.6935805e+00	   5.3320486e-01	
   3.5090000e+01	   2.8129308e+00	   6.4872481e-01	
   3.5145000e+01	   2.8179360e+00	   6.6396159e-01	
   3.5200000e+01	   2.5393477e+00	   5.8788786e-01	
   3.5255000e+01	   2.4384345e+00	   4.4166088e-01	
   3.5310000e+01	   2.7812379e+00	   5.5950214e-01	
   3.5365000e+01	   3.1420367e+00	   7.7966734e-01	
   3.5420000e+01	   3.2844797e+00	   9.9270757e-01	
   3.5475000e+01	   3.1829430e+00	   7.7715234e-01	
   3.5530000e+01	   2.9892870e+00	   8.0911809e-01	
   3.5585000e+01	   3.5261300e+00	   8.1242229e-01	
   3.5640000e+01	   3.2563370e+00	   9.6279614e-01	
   3.5695000e+01	   3.0283701e+00	   7.6822591e-01	
   3.5750000e+01	   3.1873391e+00	   7.2042145e-01	
   3.5805000e+01	   3.0884257e+00	   8.7881833e-01	
   3.5860000e+01	   2.7335500e+00	   5.8211675e-01	
   3.5915000e+01	   2.8666882e+00	   4.9976040e-01	
   3.5970000e+01	   2.7088747e+00	   6.0714769e-01	
   3.6025000e+01	   2.8475387e+00	   6.2192499e-01	
   3.6080000e+01	   3.2665538e+00	   8.8946205e-01	
   3.6135000e+01	   3.1610581e+00	   8.0532462e-01	
   3.6190000e+01	   3.3445357e+00	   9.3674235e-01	
   3.6245000e+01	   3.5613710e+00	   1.0471373e+00	
   3.6300000e+01	   3.4033278e+00	   9.9593927e-01	
   3.6355000e+01	   3.4317048e+00	   7.9635622e-01	
   3.6410000e+01	   3.2302027e+00	   8.4003712e-01	
   3.6465000e+01	   3.2666124e+00	   8.5871239e-01	
   3.6520000e+01	   3.0274433e+00	   8.3601569e-01	
   3.6575000e+01	   3.0883950e+00	   7.8982841e-01	
   3.6630000e+01	   2.8537710e+00	   5.8430022e-01	
   3.6685000e+01	   2.6913504e+00	   7.4384050e-01	
   3.6740000e+01	   3.4736885e+00	   8.3667166e-01	
   3.6795000e+01	   3.5291779e+00	   6.8075983e-01	
   3.6850000e+01	   3.5173039e+00	   7.1881716e-01	
   3.6905000e+01	   3.4324414e+00	   7.9281024e-01	
   3.6960000e+01	   3.4766129e+00	   1.0065398e+00	
   3.7015000e+01	   3.4528488e+00	   8.5911108e-01	
   3.7070000e+01	   3.2646969e+00	   7.7764589e-01	
   3.7125000e+01	   3.3260724e+00	   8.0661314e-01	
   3.7180000e+01	   3.1318832e+00	   7.9964881e-01	
   3.7235000e+01	   2.7646678e+00	   5.0079354e-01	
   3.7290000e+01	   3.0589965e+00	   7.6206591e-01	
   3.7345000e+01	   2.5448334e+00	   5.5866769e-01	
   3.7400000e+01	   2.7932744e+00	   6.0411082e-01	
   3.7455000e+01	   3.2616455e+00	   6.1483803e-01	
   3.7510000e+01	   3.5430786e+00	   8.3167891e-01	
   3.7565000e+01	   3.1303760e+00	   7.9743721e-01	
   3.7620000e+01	   3.4016254e+00	   8.2178579e-01	
   3.7675000e+01	   3.3349607e+00	   8.0413754e-01	
   3.7730000e+01	   3.2334357e+00	   5.6509297e-01	
   3.7785000e+01	   3.1190857e+00	   5.7177448e-01	
   3.7840000e+01	   3.1892410e+00	   6.7545314e-01	
   3.7895000e+01	   3.1554784e+00	   7.2879918e-01	
   3.7950000e+01	   3.0383298e+00	   4.1732449e-01	
   3.8005000e+01	   2.8089320e+00	   4.3926611e-01	
   3.8060000e+01	   3.0864443e+00	   6.6777533e-01	
   3.8115000e+01	   3.3500394e+00	   5.5472513e-01	
   3.8170000e+01	   3.1977371e+00	   6.2306342e-01	
   3.8225000e+01	   3.2923528e+00	   6.8848914e-01	
   3.8280000e+01	   3.4604550e+00	   7.4401009e-01	
   3.8335000e+01	   3.3202438e+00	   7.9004164e-01	
   3.8390000e+01	   3.2102147e+00	   6.4037283e-01	
   3.8445000e+01	   3.0399833e+00	   5.5396598e-01	
   3.8500000e+01	   3.1893637e+00	   6.6185272e-01	
   3.8555000e+01	   2.8092171e+00	   4.4287026e-01	
   3.8610000e+01	   2.5731517e+00	   2.6933217e-01	
   3.8665000e+01	   2.6727793e+00	   2.3779595e-01	
   3.8720000e+01	   3.2516572e+00	   7.6584424e-01	
   3.8775000e+01	   3.5523921e+00	   7.7903378e-01	
   3.8830000e+01	   3.6051415e+00	   7.8916462e-01	
   3.8885000e+01	   3.0724305e+00	   7.0693547e-01	
   3.8940000e+01	   3.3958882e+00	   7.1305031e-01	
   3.8995000e+01	   3.2137277e+00	   7.7941895e-01	
   3.9050000e+01	   3.1382675e+00	   5.5819342e-01	
   3.9105000e+01	   3.0859713e+00	   4.6808342e-01	
   3.9160000e+01	   2.9579097e+00	   5.2222640e-01	
   3.9215000e+01	   3.0685509e+00	   5.5858129e-01	
   3.9270000e+01	   2.8804901e+00	   3.8353337e-01	
   3.9325000e+01	   2.7906990e+00	   4.7489298e-01	
   3.9380000e+01	   3.3749627e+00	   7.1660909e-01	
   3.9435000e+01	   3.5454300e+00	   7.1968451e-01	
   3.9490000e+01	   3.7146480e+00	   8.8351983e-01	
   3.9545000e+01	   3.6128489e+00	   7.5912114e-01	
   3.9600000e+01	   3.3148397e+00	   7.1995323e-01	
   3.9655000e+01	   3.5454933e+00	   9.0473271e-01	
   3.9710000e+01	   3.1434645e+00	   5.4443412e-01	
   3.9765000e+01	   2.9635855e+00	   6.6205025e-01	
   3.9820000e+01	   2.9923921e+00	   5.9639717e-01	
   3.9875000e+01	   3.0691468e+00	   6.1385176e-01	
   3.9930000e+01	   3.1398315e+00	   5.0076920e-01	
   3.9985000e+01	   3.3219767e+00	   6.8248923e-01	
   4.0040000e+01	   3.3112847e+00	   7.7680388e-01	
   4.0095000e+01	   3.7680513e+00	   1.0165927e+00	
   4.0150000e+01	   3.9299800e+00	   9.6737104e-01	
   4.0205000e+01	   3.2396871e+00	   8.2828155e-01	
   4.0260000e+01	   3.5316682e+00	   8.1857242e-01	
   4.0315000e+01	   3.5432114e+00	   8.6434153e-01	
   4.0370000e+01	   3.2270331e+00	   8.0744343e-01	
   4.0425000e+01	   3.3945475e+00	   7.3795504e-01	
   4.0480000e+01	   3.2344958e+00	   6.4710516e-01	
   4.0535000e+01	   3.0313054e+00	   5.6322980e-01	
   4.0590000e+01	   3.4591110e+00	   6.1558092e-01	
   4.0645000e+01	   3.4289780e+00	   7.0030121e-01	
   4.0700000e+01	   3.7374157e+00	   9.0842534e-01	
   4.0755000e+01	   3.4360900e+00	   8.3801218e-01	
   4.0810000e+01	   3.5399660e+00	   8.4107136e-01	
   4.0865000e+01	   3.6139610e+00	   8.8381776e-01	
   4.0920000e+01	   3.5595200e+00	   8.4734387e-01	
   4.0975000e+01	   3.4600515e+00	   7.2961454e-01	
   4.1030000e+01	   3.4188019e+00	   8.5534632e-01	
   4.1085000e+01	   3.4460415e+00	   7.2908890e-01	
   4.1140000e+01	   2.9598504e+00	   4.3361254e-01	
   4.1195000e+01	   2.9131226e+00	   4.2454602e-01	
   4.1250000e+01	   3.6888659e+00	   8.4232238e-01	
   4.1305000e+01	   3.5427011e+00	   8.6945995e-01	
   4.1360000e+01	   3.5255416e+00	   7.6860183e-01	
   4.1415000e+01	   3.5449608e+00	   9.8641355e-01	
   4.1470000e+01	   3.6128360e+00	   9.1609938e-01	
   4.1525000e+01	   3.5163688e+00	   7.0549348e-01	
   4.1580000e+01	   2.9067073e+00	   5.4206290e-01	
   4.1635000e+01	   3.2087692e+00	   5.6676510e-01	
   4.1690000e+01	   3.4521667e+00	   7.5598706e-01	
   4.1745000e+01	   3.1766558e+00	   6.2829875e-01	
   4.1800000e+01	   2.8712568e+00	   4.2002822e-01	
   4.1855000e+01	   3.2983201e+00	   7.6180353e-01	
   4.1910000e+01	   3.5495150e+00	   8.9122634e-01	
   4.1965000e+01	   3.6845049e+00	   7.3337855e-01	
   4.2020000e+01	   3.5211333e+00	   6.4891398e-01	
   4.2075000e+01	   3.6522248e+00	   8.9565806e-01	
   4.2130000e+01	   3.6374121e+00	   8.9034767e-01	
   4.2185000e+01	   3.4240499e+00	   8.5391804e-01	
   4.2240000e+01	   3.4100919e+00	   7.5208719e-01	
   4.2295000e+01	   3.0622707e+00	   6.6718741e-01	
   4.2350000e+01	   3.4665117e+00	   5.8006650e-01	
   4.2405000e+01	   3.1034526e+00	   6.1146260e-01	
   4.2460000e+01	   2.9999450e+00	   5.0908925e-01	
   4.2515000e+01	   3.4485990e+00	   5.9545109e-01	
   4.2570000e+01	   3.9689476e+00	   9.3383327e-01	
   4.2625000e+01	   3.9279342e+00	   1.0770232e+00	
   4.2680000e+01	   4.1481069e+00	   1.1617101e+00	
   4.2735000e+01	   3.5218913e+00	   7.6012492e-01	
   4.2790000e+01	   3.9834775e+00	   1.1742076e+00	
   4.2845000e+01	   3.8035838e+00	   8.9801091e-01	
   4.2900000e+01	   3.8655371e+00	   8.4091005e-01	
   4.2955000e+01	   3.6833337e+00	   7.8772515e-01	
   4.3010000e+01	   3.2522797e+00	   7.1257309e-01	
   4.3065000e+01	   3.5501500e+00	   8.9270998e-01	
   4.3120000e+01	   3.1186716e+00	   4.8985540e-01	
   4.3175000e+01	   3.1048822e+00	   4.7857569e-01	
   4.3230000e+01	   3.3126954e+00	   6.8078012e-01	
   4.3285000e+01	   3.8544374e+00	   8.8693081e-01	
   4.3340000e+01	   3.9483982e+00	   1.0813667e+00	
   4.3395000e+01	   4.1689206e+00	   8.7941302e-01	
   4.3450000e+01	   4.2090663e+00	   1.0752998e+00	
   4.3505000e+01	   4.1167525e+00	   1.0527610e+00	
   4.3560000e+01	   3.8869564e+00	   9.2987361e-01	
   4.3615000e+01	   3.8395583e+00	   9.0243065e-01	
   4.3670000e+01	   3.4939327e+00	   8.9513548e-01	
   4.3725000e+01	   3.7466609e+00	   1.0338585e+00	
   4.3780000e+01	   3.4761987e+00	   7.0627971e-01	
   4.3835000e+01	   3.2746892e+00	   6.5671916e-01	
   4.3890000e+01	   3.1703463e+00	   4.5892083e-01	
   4.3945000e+01	   3.4127852e+00	   6.6794402e-01	
   4.4000000e+01	   3.8041831e+00	   8.7106203e-01	
   4.4055000e+01	   3.8409609e+00	   9.3499606e-01	
   4.4110000e+01	   4.0268747e+00	   9.7019754e-01	
   4.4165000e+01	   4.2368654e+00	   1.1180319e+00	
   4.4220000e+01	   4.1814623e+00	   1.0237976e+00	
   4.4275000e+01	   3.9186178e+00	   8.8763319e-01	
   4.4330000e+01	   3.9155367e+00	   1.0747508e+00	
   4.4385000e+01	   3.8185861e+00	   9.9560280e-01	
   4.4440000e+01	   3.9075735e+00	   9.2445184e-01	
   4.4495000e+01	   3.7459782e+00	   8.6855981e-01	
   4.4550000e+01	   3.4773602e+00	   7.0753777e-01	
   4.4605000e+01	   3.4270410e+00	   8.3775674e-01	
   4.4660000e+01	   3.4091530e+00	   6.7185357e-01	
   4.4715000e+01	   3.4120809e+00	   7.1010340e-01	
   4.4770000e+01	   3.0400603e+00	   4.4766038e-01	
   4.4825000e+01	   3.8748318e+00	   8.6204702e-01	
   4.4880000e+01	   4.3272063e+00	   1.1518513e+00	
   4.4935000e+01	   4.1333088e+00	   1.0459277e+00	
   4.4990000e+01	   4.1485430e+00	   1.0141713e+00	
   4.5045000e+01	   4.0401451e+00	   1.0595445e+00	
   4.5100000e+01	   3.7157576e+00	   1.0600384e+00	
   4.5155000e+01	   3.8999057e+00	   9.3475904e-01	
   4.5210000e+01	   3.8859235e+00	   8.6235051e-01	
   4.5265000e+01	   3.6833819e+00	   8.1094268e-01	
   4.5320000e+01	   3.5417584e+00	   7.3820993e-01	
   4.5375000e+01	   3.3671688e+00	   5.6560539e-01	
   4.5430000e+01	   3.0769460e+00	   5.6034639e-01	
   4.5485000e+01	   3.2695075e+00	   4.7852736e-01	
   4.5540000e+01	   3.7000624e+00	   7.0651659e-01	
   4.5595000e+01	   4.0762872e+00	   9.2387565e-01	
   4.5650000e+01	   3.8127126e+00	   6.8982120e-01	
   4.5705000e+01	   3.5417052e+00	   7.7981976e-01	
   4.5760000e+01	   3.8461018e+00	   1.0309681e+00	
   4.5815000e+01	   3.7708667e+00	   8.8783533e-01	
   4.5870000e+01	   3.7419373e+00	   7.7412194e-01	
   4.5925000e+01	   3.5179786e+00	   7.7078474e-01	
   4.5980000e+01	   3.5617686e+00	   6.7275735e-01	
   4.6035000e+01	   3.2090609e+00	   6.9256488e-01	
   4.6090000e+01	   3.2044776e+00	   4.4235568e-01	
   4.6145000e+01	   3.0961878e+00	   4.0490349e-01	
   4.6200000e+01	   3.2675600e+00	   4.7817551e-01	
   4.6255000e+01	   3.4294548e+00	   4.5346557e-01	
   4.6310000e+01	   3.4880486e+00	   6.1168774e-01	
   4.6365000e+01	   3.5093849e+00	   6.5315793e-01	
   4.6420000e+01	   3.8710581e+00	   9.2502968e-01	
   4.6475000e+01	   3.8844719e+00	   7.2319924e-01	
   4.6530000e+01	   3.3430180e+00	   6.5924224e-01	
   4.6585000e+01	   3.6965479e+00	   5.9630973e-01	
   4.6640000e+01	   3.4697273e+00	   7.6433905e-01	
   4.6695000e+01	   3.3106491e+00	   7.2292268e-01	
   4.6750000e+01	   3.1963097e+00	   4.3294151e-01	
   4.6805000e+01	   2.6761340e+00	   3.2779573e-01	
   4.6860000e+01	   2.5159039e+00	   2.8355482e-01	
   4.6915000e+01	   3.0688340e+00	   4.2454182e-01	
   4.6970000e+01	   3.3051935e+00	   4.7863724e-01	
   4.7025000e+01	   3.0734774e+00	   5.9951409e-01	
   4.7080000e+01	   3.3036656e+00	   6.1886406e-01	
   4.7135000e+01	   3.2831890e+00	   7.0440385e-01	
   4.7190000e+01	   2.9542721e+00	   4.0689688e-01	
   4.7245000e+01	   3.4566268e+00	   6.2442684e-01	
   4.7300000e+01	   2.9850720e+00	   4.2358907e-01	
   4.7355000e+01	   2.8616337e+00	   3.8825463e-01	
   4.7410000e+01	   2.9318171e+00	   2.8711758e-01	
   4.7465000e+01	   2.4300122e+00	   1.6162263e-01	
   4.7520000e+01	   2.6527098e+00	   3.5077237e-01	
   4.7575000e+01	   2.6159574e+00	   4.4780514e-01	
   4.7630000e+01	   3.0783363e+00	   4.7307227e-01	
   4.7685000e+01	   2.8582599e+00	   3.9617094e-01	
   4.7740000e+01	   2.6717757e+00	   5.3253301e-01	
   4.7795000e+01	   2.9898507e+00	   5.8570605e-01	
   4.7850000e+01	   3.0751622e+00	   5.4998207e-01	
   4.7905000e+01	   2.7631036e+00	   4.0710789e-01	
   4.7960000e+01	   2.5258765e+00	   2.5869717e-01	
   4.8015000e+01	   2.6365145e+00	   2.4341343e-01	
   4.8070000e+01	   2.4462431e+00	   1.4974132e-01	
   4.8125000e+01	   2.4244311e+00	   8.0630879e-02	
   4.8180000e+01	   2.4839376e+00	   1.8440032e-01	
   4.8235000e+01	   3.0941332e+00	   4.3557189e-01	
   4.8290000e+01	   2.8883912e+00	   6.2985957e-01	
   4.8345000e+01	   2.9099317e+00	   3.5693147e-01	
   4.8400000e+01	   2.4665515e+00	   3.5227178e-01	
   4.8455000e+01	   2.7843720e+00	   5.4573155e-01	
   4.8510000e+01	   2.8877288e+00	   6.1638356e-01	
   4.8565000e+01	   2.5055421e+00	   2.2308909e-01	
   4.8620000e+01	   2.2317966e+00	   4.1043721e-01	
   4.8675000e+01	   2.5414868e+00	   4.6075374e-01	
   4.8730000e+01	   2.2623173e+00	   2.7820988e-01	
   4.8785000e+01	   2.3453032e+00	   4.1295773e-02	
   4.8840000e+01	   2.8449535e+00	   6.1572324e-01	
   4.8895000e+01	   2.9287253e+00	   5.8392965e-01	
   4.8950000e+01	   3.3295674e+00	   8.2434606e-01	
   4.9005000e+01	   3.0649802e+00	   5.3365236e-01	
   4.9060000e+01	   2.9589028e+00	   6.9511923e-01	
   4.9115000e+01	   2.9954809e+00	   7.2135124e-01	
   4.9170000e+01	   2.6723449e+00	   4.5462429e-01	
   4.9225000e+01	   2.4920126e+00	   5.1604065e-01	
   4.9280000e+01	   2.7782939e+00	   4.3151302e-01	
   4.9335000e+01	   2.4974652e+00	   4.7796840e-01	
   4.9390000e+01	   2.5158717e+00	   4.0979005e-01	
   4.9445000e+01	   2.5505101e+00	   2.9345838e-01	
   4.9500000e+01	   2.9148970e+00	   6.2538143e-01	
   4.9555000e+01	   2.7340726e+00	   5.2788030e-01	
   4.9610000e+01	   2.9841841e+00	   9.3188455e-01	
   4.9665000e+01	   3.2507727e+00	   7.3238093e-01	
   4.9720000e+01	   2.9497147e+00	   7.3319135e-01	
   4.9775000e+01	   3.0022105e+00	   6.5755416e-01	
   4.9830000e+01	   3.2149443e+00	   8.5610562e-01	
   4.9885000e+01	   2.9779825e+00	   6.6982993e-01	
   4.9940000e+01	   2.5421776e+00	   3.7498971e-01	
   4.9995000e+01	   2.7738549e+00	   6.3164940e-01	
   5.0050000e+01	   2.5797566e+00	   4.6391126e-01	
   5.0105000e+01	   2.6044069e+00	   4.4281687e-01	
   5.0160000e+01	   2.5768664e+00	   3.7332037e-01	
   5.0215000e+01	   2.9383619e+00	   4.6103331e-01	
   5.0270000e+01	   3.1947673e+00	   8.0542622e-01	
   5.0325000e+01	   3.1463860e+00	   8.6817024e-01	
   5.0380000e+01	   3.2269841e+00	   7.3555343e-01	
   5.0435000e+01	   3.2343959e+00	   7.9686587e-01	
   5.0490000e+01	   3.2490572e+00	   8.7778078e-01	
   5.0545000e+01	   3.3718338e+00	   8.5352120e-01	
   5.0600000e+01	   3.1131517e+00	   7.6220895e-01	
   5.0655000e+01	   2.5071748e+00	   5.7169150e-01	
   5.0710000e+01	   2.9010152e+00	   6.7899188e-01	
   5.0765000e+01	   3.0017540e+00	   7.3660184e-01	
   5.0820000e+01	   2.9383069e+00	   6.0549304e-01	
   5.0875000e+01	   2.5837813e+00	   3.5599481e-01	
   5.0930000e+01	   2.9098583e+00	   6.2056797e-01	
   5.0985000e+01	   3.0421216e+00	   7.1136078e-01	
   5.1040000e+01	   3.1780389e+00	   6.6681185e-01	
   5.1095000e+01	   3.0027355e+00	   8.6395399e-01	
   5.1150000e+01	   3.0552050e+00	   9.7392168e-01	
   5.1205000e+01	   3.2351357e+00	   9.1548575e-01	
   5.1260000e+01	   3.1447035e+00	   8.3599595e-01	
   5.1315000e+01	   2.9872453e+00	   7.4322848e-01	
   5.1370000e+01	   2.9693681e+00	   6.1112733e-01	
   5.1425000e+01	   2.9522002e+00	   5.5724755e-01	
   5.1480000e+01	   2.9849525e+00	   6.2209934e-01	
   5.1535000e+01	   2.5963941e+00	   4.0406244e-01	
   5.1590000e+01	   2.4625697e+00	   4.2444484e-01	
   5.1645000e+01	   2.9233530e+00	   5.5233609e-01	
   5.1700000e+01	   3.2988894e+00	   7.2982054e-01	
   5.1755000e+01	   2.9596401e+00	   7.2946569e-01	
   5.1810000e+01	   3.1583689e+00	   7.1430524e-01	
   5.1865000e+01	   3.2859645e+00	   8.5530622e-01	
   5.1920000e+01	   3.4951337e+00	   9.4533012e-01	
   5.1975000e+01	   3.2236042e+00	   6.0255188e-01	
   5.2030000e+01	   2.8804685e+00	   6.7194772e-01	
   5.2085000e+01	   2.6982829e+00	   6.4932357e-01	
   5.2140000e+01	   2.8294420e+00	   7.1060262e-01	
   5.2195000e+01	   2.8271609e+00	   4.4557966e-01	
   5.2250000e+01	   2.5694325e+00	   3.9313187e-01	
   5.2305000e+01	   2.5879509e+00	   3.7847156e-01	
   5.2360000e+01	   2.9192260e+00	   5.8711250e-01	
   5.2415000e+01	   2.9882443e+00	   5.9278830e-01	
   5.2470000e+01	   2.8454017e+00	   4.0997056e-01	
   5.2525000e+01	   2.8691407e+00	   5.7803521e-01	
   5.2580000e+01	   2.9488914e+00	   5.9169939e-01	
   5.2635000e+01	   3.0790034e+00	   6.0630546e-01	
   5.2690000e+01	   2.8227585e+00	   4.4529981e-01	
   5.2745000e+01	   2.7099693e+00	   5.2369366e-01	
   5.2800000e+01	   2.8897591e+00	   5.6388344e-01	
   5.2855000e+01	   2.8350690e+00	   4.3041375e-01	
   5.2910000e+01	   2.7841283e+00	   3.6211581e-01	
   5.2965000e+01	   2.5639912e+00	   1.6375946e-01	
   5.3020000e+01	   3.1067254e+00	   6.4613799e-01	
   5.3075000e+01	   3.0721821e+00	   4.8585531e-01	
   5.3130000e+01	   2.9331691e+00	   5.9825676e-01	
   5.3185000e+01	   2.9247077e+00	   7.0210136e-01	
   5.3240000e+01	   3.3330824e+00	   6.4102741e-01	
   5.3295000e+01	   2.9187375e+00	   4.4833448e-01	
   5.3350000e+01	   2.6574140e+00	   5.0334828e-01	
   5.3405000e+01	   2.7266915e+00	   4.5886656e-01	
   5.3460000e+01	   2.5926256e+00	   4.1745400e-01	
   5.3515000e+01	   2.4928551e+00	   2.9624056e-01	
   5.3570000e+01	   2.2033194e+00	   9.6190136e-02	
   5.3625000e+01	   2.4764846e+00	   1.6785370e-01	
   5.3680000e+01	   2.9228966e+00	   4.1167471e-01	
   5.3735000e+01	   3.3894569e+00	   7.9384846e-01	
   5.3790000e+01	   2.9821154e+00	   5.5427963e-01	
   5.3845000e+01	   2.8005336e+00	   5.6808569e-01	
   5.3900000e+01	   3.0840361e+00	   6.3270277e-01	
   5.3955000e+01	   3.2546564e+00	   6.9169151e-01	
   5.4010000e+01	   2.7059856e+00	   4.5968370e-01	
   5.4065000e+01	   2.5009492e+00	   3.5406072e-01	
   5.4120000e+01	   2.7929370e+00	   4.5435042e-01	
   5.4175000e+01	   2.8454931e+00	   3.8440599e-01	
   5.4230000e+01	   2.3169978e+00	   5.6254673e-02	
   5.4285000e+01	   2.2539164e+00	   2.1420274e-01	
   5.4340000e+01	   3.2790514e+00	   7.3437697e-01	
   5.4395000e+01	   3.1363287e+00	   6.5266009e-01	
   5.4450000e+01	   3.1673913e+00	   6.4710892e-01	
   5.4505000e+01	   3.1527126e+00	   6.5401483e-01	
   5.4560000e+01	   2.9919880e+00	   8.2335251e-01	
   5.4615000e+01	   3.4698708e+00	   9.1028811e-01	
   5.4670000e+01	   2.9165611e+00	   6.4192857e-01	
   5.4725000e+01	   2.7342352e+00	   3.7354454e-01	
   5.4780000e+01	   2.9237694e+00	   5.0155608e-01	
   5.4835000e+01	   2.9490325e+00	   4.3588022e-01	
   5.4890000e+01	   2.6139495e+00	   4.5100101e-01	
   5.4945000e+01	   2.1865223e+00	   3.3682284e-01	
   5.5000000e+01	   2.3532508e+00	   3.8687964e-01	
   5.5055000e+01	   2.9107434e+00	   6.4579675e-01	
   5.5110000e+01	   3.2634573e+00	   8.2197741e-01	
   5.5165000e+01	   3.0135006e+00	   5.0975972e-01	
   5.5220000e+01	   3.2681121e+00	   8.0630484e-01	
   5.5275000e+01	   3.4206071e+00	   8.4621289e-01	
   5.5330000e+01	   3.3428250e+00	   7.1267777e-01	
   5.5385000e+01	   3.4046768e+00	   6.8232465e-01	
   5.5440000e+01	   2.8078136e+00	   7.6865721e-01	
   5.5495000e+01	   3.1641521e+00	   7.9819985e-01	
   5.5550000e+01	   2.6561183e+00	   3.2689501e-01	
   5.5605000e+01	   2.5222805e+00	   2.9221200e-01	
   5.5660000e+01	   2.6466680e+00	   4.3450934e-01	
   5.5715000e+01	   2.8808815e+00	   5.3514376e-01	
   5.5770000e+01	   2.6382740e+00	   4.2626314e-01	
   5.5825000e+01	   3.0463830e+00	   5.6780258e-01	
   5.5880000e+01	   2.9281272e+00	   6.5073412e-01	
   5.5935000e+01	   3.4275554e+00	   9.8177118e-01	
   5.5990000e+01	   3.3485221e+00	   8.1952153e-01	
   5.6045000e+01	   2.9281639e+00	   6.7734615e-01	
   5.6100000e+01	   3.1508696e+00	   7.4606882e-01	
   5.6155000e+01	   3.0506961e+00	   8.9105277e-01	
   5.6210000e+01	   2.8781501e+00	   6.5842155e-01	
   5.6265000e+01	   2.7906668e+00	   5.2648588e-01	
   5.6320000e+01	   2.6346712e+00	   5.1989885e-01	
   5.6375000e+01	   2.8005226e+00	   5.7996695e-01	
   5.6430000e+01	   2.6252654e+00	   4.2319964e-01	
   5.6485000e+01	   2.4865819e+00	   3.3686503e-01	
   5.6540000e+01	   2.6309161e+00	   2.6036183e-01	
   5.6595000e+01	   3.0311042e+00	   7.2153741e-01	
   5.6650000e+01	   2.9603748e+00	   6.9889306e-01	
   5.6705000e+01	   3.3082546e+00	   7.7417756e-01	
   5.6760000e+01	   2.9028750e+00	   5.9640953e-01	
   5.6815000e+01	   3.0417945e+00	   8.0301465e-01	
   5.6870000e+01	   3.0252053e+00	   6.9432619e-01	
   5.6925000e+01	   2.8441771e+00	   6.0129767e-01	
   5.6980000e+01	   2.5847645e+00	   3.9800118e-01	
   5.7035000e+01	   2.7042970e+00	   3.8343862e-01	
   5.7090000e+01	   2.5812953e+00	   4.7652373e-01	
   5.7145000e+01	   2.4650811e+00	   2.6972895e-01	
   5.7200000e+01	   2.3475235e+00	   2.0915388e-01	
   5.7255000e+01	   2.7615445e+00	   5.6003626e-01	
   5.7310000e+01	   3.1173803e+00	   6.5816041e-01	
   5.7365000e+01	   3.0242671e+00	   6.8743420e-01	
   5.7420000e+01	   2.8324481e+00	   4.8925903e-01	
   5.7475000e+01	   2.6351276e+00	   6.5239392e-01	
   5.7530000e+01	   3.0157155e+00	   5.9504299e-01	
   5.7585000e+01	   2.8305283e+00	   7.7868379e-01	
   5.7640000e+01	   2.6676721e+00	   3.7712698e-01	
   5.7695000e+01	   2.4021725e+00	   3.0886627e-01	
   5.7750000e+01	   2.5456643e+00	   4.5068708e-01	
   5.7805000e+01	   2.2462184e+00	   2.1487666e-01	
   5.7860000e+01	   2.1596733e+00	   5.9510370e-02	
   5.7915000e+01	   2.7472667e+00	   6.3108471e-01	
   5.7970000e+01	   3.0267850e+00	   5.6611123e-01	
   5.8025000e+01	   2.6375369e+00	   5.6763143e-01	
   5.8080000e+01	   2.9458213e+00	   4.5160322e-01	
   5.8135000e+01	   2.8662921e+00	   6.4830949e-01	
   5.8190000e+01	   2.8289259e+00	   4.5032355e-01	
   5.8245000e+01	   2.4981968e+00	   3.8604271e-01	
   5.8300000e+01	   2.4469683e+00	   3.2242662e-01	
   5.8355000e+01	   2.1972216e+00	   2.3355812e-01	
   5.8410000e+01	   2.3111868e+00	   2.7634374e-01	
   5.8465000e+01	   2.2943364e+00	   2.4273131e-01	
   5.8520000e+01	   2.7347821e+00	   3.3009224e-01	
   5.8575000e+01	   2.7719238e+00	   4.3166314e-01	
   5.8630000e+01	   2.8081166e+00	   5.0197271e-01	
   5.8685000e+01	   3.3118677e+00	   6.4031129e-01	
   5.8740000e+01	   3.1294467e+00	   5.0178585e-01	
   5.8795000e+01	   2.8554993e+00	   4.6095976e-01	
   5.8850000e+01	   3.0846438e+00	   7.5539946e-01	
   5.8905000e+01	   3.0326484e+00	   7.8517144e-01	
   5.8960000e+01	   2.8882384e+00	   5.6507600e-01	
   5.9015000e+01	   2.5174557e+00	   2.5366334e-01	
   5.9070000e+01	   2.6967936e+00	   3.8153352e-01	
   5.9125000e+01	   2.3608911e+00	   3.4655535e-01	
   5.9180000e+01	   3.1714933e+00	   4.8783138e-01	
   5.9235000e+01	   3.1276798e+00	   6.2982929e-01	
   5.9290000e+01	   3.5044353e+00	   9.7394058e-01	
   5.9345000e+01	   3.3173216e+00	   1.0317345e+00	
   5.9400000e+01	   3.1260634e+00	   6.6992046e-01	
   5.9455000e+01	   3.0889026e+00	   7.2514124e-01	
   5.9510000e+01	   3.3339767e+00	   8.3449983e-01	
   5.9565000e+01	   3.1568334e+00	   8.6707628e-01	
   5.9620000e+01	   3.1077675e+00	   6.3989236e-01	
   5.9675000e+01	   2.9337582e+00	   6.3266949e-01	
   5.9730000e+01	   2.8233512e+00	   6.3268101e-01	
   5.9785000e+01	   2.8622991e+00	   6.3569275e-01	
   5.9840000e+01	   3.0267579e+00	   6.4923853e-01	
   5.9895000e+01	   3.2646969e+00	   6.8031518e-01	
   5.9950000e+01	   3.5217488e+00	   8.3336688e-01	
   6.0005000e+01	   3.8899707e+00	   1.1214590e+00	
   6.0060000e+01	   3.6109056e+00	   9.1432683e-01	
   6.0115000e+01	   3.7965658e+00	   9.5307357e-01	
   6.0170000e+01	   3.2170035e+00	   8.2640410e-01	
   6.0225000e+01	   3.4269019e+00	   8.7674541e-01	
   6.0280000e+01	   3.5936762e+00	   8.7669825e-01	
   6.0335000e+01	   3.4094258e+00	   7.9011233e-01	
   6.0390000e+01	   3.3217482e+00	   6.2918638e-01	
   6.0445000e+01	   3.1515005e+00	   7.1283708e-01	
   6.0500000e+01	   3.2034790e+00	   8.2209188e-01	
   6.0555000e+01	   2.9771507e+00	   3.5989334e-01	
   6.0610000e+01	   3.2195019e+00	   7.5185404e-01	
   6.0665000e+01	   3.7590868e+00	   1.0308487e+00	
   6.0720000e+01	   3.9923597e+00	   1.1493886e+00	
   6.0775000e+01	   3.9128036e+00	   1.2275090e+00	
   6.0830000e+01	   3.4452049e+00	   9.2111429e-01	
   6.0885000e+01	   3.8676232e+00	   1.0260320e+00	
   6.0940000e+01	   3.9445779e+00	   1.0495501e+00	
   6.0995000e+01	   3.9183687e+00	   1.1182104e+00	
   6.1050000e+01	   3.7875941e+00	   8.3728701e-01	
   6.1105000e+01	   3.2654767e+00	   1.0124047e+00	
   6.1160000e+01	   3.6873059e+00	   1.0202645e+00	
   6.1215000e+01	   3.4610591e+00	   7.3136830e-01	
   6.1270000e+01	   3.1028274e+00	   6.7024558e-01	
   6.1325000e+01	   3.2879402e+00	   7.1269721e-01	
   6.1380000e+01	   3.9658083e+00	   1.1000213e+00	
   6.1435000e+01	   4.1256299e+00	   9.3510455e-01	
   6.1490000e+01	   3.7921784e+00	   9.4274021e-01	
   6.1545000e+01	   4.0239697e+00	   1.2593555e+00	
   6.1600000e+01	   3.9080090e+00	   9.9155334e-01	
   6.1655000e+01	   4.0022387e+00	   9.1199985e-01	
   6.1710000e+01	   3.7099769e+00	   8.1032145e-01	
   6.1765000e+01	   3.6010773e+00	   9.2143696e-01	
   6.1820000e+01	   3.6346105e+00	   9.5131696e-01	
   6.1875000e+01	   3.6547387e+00	   7.6260597e-01	
   6.1930000e+01	   3.2731801e+00	   7.1232720e-01	
   6.1985000e+01	   3.7435647e+00	   7.9675944e-01	
   6.2040000e+01	   3.6601414e+00	   9.9051536e-01	
   6.2095000e+01	   4.0419031e+00	   1.1100498e+00	
   6.2150000e+01	   3.9326130e+00	   1.0515105e+00	
   6.2205000e+01	   4.0290984e+00	   9.8104755e-01	
   6.2260000e+01	   3.8978531e+00	   1.1044519e+00	
   6.2315000e+01	   3.9364172e+00	   1.0846131e+00	
   6.2370000e+01	   3.9209289e+00	   1.0232004e+00	
   6.2425000e+01	   3.8121920e+00	   7.6291619e-01	
   6.2480000e+01	   3.5063526e+00	   6.1839613e-01	
   6.2535000e+01	   3.6866779e+00	   8.0150063e-01	
   6.2590000e+01	   3.4391910e+00	   5.9777329e-01	
   6.2645000e+01	   3.4646726e+00	   7.4569411e-01	
   6.2700000e+01	   4.3216687e+00	   1.1896973e+00	
   6.2755000e+01	   4.2425571e+00	   1.0382973e+00	
   6.2810000e+01	   4.1290497e+00	   9.0469736e-01	
   6.2865000e+01	   4.2269695e+00	   1.0144074e+00	
   6.2920000e+01	   3.9723071e+00	   9.6543853e-01	
   6.2975000e+01	   4.3530933e+00	   1.0657296e+00	
   6.3030000e+01	   3.9430668e+00	   8.8064451e-01	
   6.3085000e+01	   3.7204871e+00	   7.3317149e-01	
   6.3140000e+01	   3.8036175e+00	   8.4145890e-01	
   6.3195000e+01	   3.5648273e+00	   7.6153968e-01	
   6.3250000e+01	   3.7516780e+00	   7.3942218e-01	
   6.3305000e+01	   3.5293527e+00	   5.2142334e-01	
   6.3360000e+01	   3.4962932e+00	   7.1683458e-01	
   6.3415000e+01	   4.0691953e+00	   1.1032388e+00	
   6.3470000e+01	   4.2188086e+00	   1.0845327e+00	
   6.3525000e+01	   3.9923633e+00	   8.4187699e-01	
   6.3580000e+01	   4.0196267e+00	   9.3132075e-01	
   6.3635000e+01	   4.3248625e+00	   1.1325122e+00	
   6.3690000e+01	   4.3648235e+00	   9.9952484e-01	
   6.3745000e+01	   3.8511661e+00	   8.0293369e-01	
   6.3800000e+01	   4.0356930e+00	   1.0513069e+00	
   6.3855000e+01	   4.1565648e+00	   1.0488415e+00	
   6.3910000e+01	   3.9620599e+00	   6.9391763e-01	
   6.3965000e+01	   3.7854178e+00	   6.9810473e-01	
   6.4020000e+01	   3.5466075e+00	   7.3783066e-01	
   6.4075000e+01	   3.8725493e+00	   8.2634260e-01	
   6.4130000e+01	   3.9670599e+00	   9.6028967e-01	
   6.4185000e+01	   4.1176985e+00	   8.8036188e-01	
   6.4240000e+01	   4.1733462e+00	   9.4955181e-01	
   6.4295000e+01	   4.4393627e+00	   1.1607121e+00	
   6.4350000e+01	   4.3657643e+00	   1.0930515e+00	
   6.4405000e+01	   4.2528092e+00	   9.9874188e-01	
   6.4460000e+01	   4.0929605e+00	   9.4992887e-01	
   6.4515000e+01	   4.0683647e+00	   9.3773408e-01	
   6.4570000e+01	   3.9751067e+00	   8.4409906e-01	
   6.4625000e+01	   3.5644023e+00	   5.0696508e-01	
   6.4680000e+01	   3.2938960e+00	   5.2142287e-01	
   6.4735000e+01	   3.5469276e+00	   6.3454460e-01	
   6.4790000e+01	   3.8327549e+00	   6.3046708e-01	
   6.4845000e+01	   3.9531276e+00	   8.0730453e-01	
   6.4900000e+01	   4.1228666e+00	   8.6388787e-01	
   6.4955000e+01	   4.3910752e+00	   1.0303873e+00	
   6.5010000e+01	   4.0037080e+00	   8.9244142e-01	
   6.5065000e+01	   3.9149488e+00	   7.9147417e-01	
   6.5120000e+01	   3.9464473e+00	   6.9909655e-01	
   6.5175000e+01	   4.0025512e+00	   8.7303072e-01	
   6.5230000e+01	   3.8899490e+00	   6.7749578e-01	
   6.5285000e+01	   3.7038104e+00	   7.6003326e-01	
   6.5340000e+01	   3.5986455e+00	   5.8452753e-01	
   6.5395000e+01	   3.2051529e+00	   3.4553860e-01	
   6.5450000e+01	   3.2688504e+00	   3.6983546e-01	
   6.5505000e+01	   3.8303138e+00	   6.7384601e-01	
   6.5560000e+01	   3.9406764e+00	   6.6965430e-01	
   6.5615000e+01	   3.9560726e+00	   8.2891964e-01	
   6.5670000e+01	   3.6910123e+00	   7.7471451e-01	
   6.5725000e+01	   3.6900731e+00	   6.9877647e-01	
   6.5780000e+01	   3.7333455e+00	   7.1538399e-01	
   6.5835000e+01	   3.6035281e+00	   5.0663923e-01	
   6.5890000e+01	   3.3980984e+00	   3.7988959e-01	
   6.5945000e+01	   3.1468909e+00	   5.0165061e-01	
   6.6000000e+01	   3.1859374e+00	   3.6867960e-01	
   6.6055000e+01	   3.0938203e+00	   2.4962577e-01	
   6.6110000e+01	   3.7337025e+00	   6.4433601e-01	
   6.6165000e+01	   3.7960927e+00	   7.3601352e-01	
   6.6220000e+01	   3.4075021e+00	   4.7535114e-01	
   6.6275000e+01	   3.6386428e+00	   6.3834477e-01	
   6.6330000e+01	   4.0041873e+00	   8.6161879e-01	
   6.6385000e+01	   3.5274192e+00	   6.4529728e-01	
   6.6440000e+01	   3.2212536e+00	   5.0225506e-01	
   6.6495000e+01	   3.3121781e+00	   4.4012988e-01	
   6.6550000e+01	   3.4734866e+00	   7.0824340e-01	
   6.6605000e+01	   3.1698881e+00	   2.7876105e-01	
   6.6660000e+01	   3.0016204e+00	   3.4712097e-01	
   6.6715000e+01	   3.1733162e+00	   2.9951454e-01	
   6.6770000e+01	   3.7245432e+00	   6.6112928e-01	
   6.6825000e+01	   3.7127778e+00	   7.9434575e-01	
   6.6880000e+01	   3.6706786e+00	   6.7866733e-01	
   6.6935000e+01	   3.4857664e+00	   6.6668682e-01	
   6.6990000e+01	   3.3876978e+00	   6.9281854e-01	
   6.7045000e+01	   3.6989647e+00	   6.9502243e-01	
   6.7100000e+01	   3.7598607e+00	   6.2268692e-01	
   6.7155000e+01	   3.0383325e+00	   4.6816329e-01	
   6.7210000e+01	   3.3458781e+00	   6.1859055e-01	
   6.7265000e+01	   3.3109600e+00	   4.9453590e-01	
   6.7320000e+01	   2.7978722e+00	   1.6839047e-01	
   6.7375000e+01	   3.6600332e+00	   5.5497392e-01	
   6.7430000e+01	   3.5956971e+00	   6.3195080e-01	
   6.7485000e+01	   3.8649485e+00	   8.6616042e-01	
   6.7540000e+01	   3.7294830e+00	   8.0974809e-01	
   6.7595000e+01	   3.8038458e+00	   7.2369262e-01	
   6.7650000e+01	   3.7489067e+00	   7.8170565e-01	
   6.7705000e+01	   3.6249880e+00	   8.5397261e-01	
   6.7760000e+01	   3.4956283e+00	   6.1948221e-01	
   6.7815000e+01	   3.4650716e+00	   4.6417349e-01	
   6.7870000e+01	   3.3796308e+00	   5.9299675e-01	
   6.7925000e+01	   3.3961594e+00	   6.1112644e-01	
   6.7980000e+01	   3.4770197e+00	   5.0859278e-01	
   6.8035000e+01	   3.2731979e+00	   4.5588996e-01	
   6.8090000e+01	   3.9097009e+00	   8.2202507e-01	
   6.8145000e+01	   3.9942359e+00	   9.1341998e-01	
   6.8200000e+01	   3.8825971e+00	   9.3269635e-01	
   6.8255000e+01	   3.9328402e+00	   6.8948341e-01	
   6.8310000e+01	   3.7079518e+00	   8.8824935e-01	
   6.8365000e+01	   4.0064578e+00	   1.0437534e+00	
   6.8420000e+01	   3.6904333e+00	   6.9463900e-01	
   6.8475000e+01	   3.5145972e+00	   6.1173030e-01	
   6.8530000e+01	   3.4934657e+00	   6.9596526e-01	
   6.8585000e+01	   3.3727214e+00	   7.9500181e-01	
   6.8640000e+01	   3.2521811e+00	   6.9714714e-01	
   6.8695000e+01	   3.5120942e+00	   5.7265207e-01	
   6.8750000e+01	   3.8564797e+00	   9.5069259e-01	
   6.8805000e+01	   3.8575766e+00	   8.2043893e-01	
   6.8860000e+01	   3.9191535e+00	   8.8742118e-01	
   6.8915000e+01	   4.0894461e+00	   8.7772164e-01	
   6.8970000e+01	   3.7885379e+00	   8.8770410e-01	
   6.9025000e+01	   3.7741899e+00	   1.0198360e+00	
   6.9080000e+01	   3.7043140e+00	   7.0305660e-01	
   6.9135000e+01	   3.6833831e+00	   8.7688129e-01	
   6.9190000e+01	   3.4412698e+00	   6.7469531e-01	
   6.9245000e+01	   3.4177681e+00	   6.3384507e-01	
   6.9300000e+01	   3.4936254e+00	   6.4800308e-01	
   6.9355000e+01	   3.4566610e+00	   5.9464870e-01	
   6.9410000e+01	   3.4739129e+00	   8.1649450e-01	
   6.9465000e+01	   4.0455446e+00	   9.8814168e-01	
   6.9520000e+01	   4.0821101e+00	   1.1208746e+00	
   6.9575000e+01	   3.9219275e+00	   8.8670845e-01	
   6.9630000e+01	   3.7792478e+00	   6.7542473e-01	
   6.9685000e+01	   3.7786915e+00	   8.9078506e-01	
   6.9740000e+01	   3.5745268e+00	   9.5393829e-01	
   6.9795000e+01	   3.6747484e+00	   9.2433519e-01	
   6.9850000e+01	   3.3373463e+00	   6.8533919e-01	
   6.9905000e+01	   3.4790038e+00	   7.7480868e-01	
   6.9960000e+01	   3.5922637e+00	   7.7686290e-01	
   7.0015000e+01	   3.4594751e+00	   7.8073820e-01	
   7.0070000e+01	   3.9493198e+00	   9.1031109e-01	
   7.0125000e+01	   4.0857477e+00	   1.0156525e+00	
   7.0180000e+01	   4.0074308e+00	   1.0532676e+00	
   7.0235000e+01	   4.0747494e+00	   1.0112852e+00	
   7.0290000e+01	   3.8917814e+00	   9.2301018e-01	
   7.0345000e+01	   3.5500203e+00	   1.0137149e+00	
   7.0400000e+01	   3.7988163e+00	   8.8657452e-01	
   7.0455000e+01	   3.6298143e+00	   8.0258572e-01	
   7.0510000e+01	   3.5511001e+00	   6.7186217e-01	
   7.0565000e+01	   3.1916310e+00	   6.8711684e-01	
   7.0620000e+01	   3.2019107e+00	   7.2598233e-01	
   7.0675000e+01	   3.7486759e+00	   8.6693374e-01	
   7.0730000e+01	   4.0019938e+00	   9.5244380e-01	
   7.0785000e+01	   3.7512839e+00	   1.0089398e+00	
   7.0840000e+01	   4.1180161e+00	   9.7920348e-01	
   7.0895000e+01	   3.9894933e+00	   1.1580404e+00	
   7.0950000e+01	   3.7389497e+00	   8.9374244e-01	
   7.1005000e+01	   3.9718282e+00	   1.0836051e+00	
   7.1060000e+01	   3.7846173e+00	   9.1492244e-01	
   7.1115000e+01	   3.3649732e+00	   7.6660877e-01	
   7.1170000e+01	   3.4530864e+00	   7.4342120e-01	
   7.1225000e+01	   3.3752791e+00	   8.1032042e-01	
   7.1280000e+01	   3.4670971e+00	   7.3188710e-01	
   7.1335000e+01	   3.4152960e+00	   7.3534809e-01	
   7.1390000e+01	   3.7692615e+00	   9.5276498e-01	
   7.1445000e+01	   3.5272451e+00	   8.1506619e-01	
   7.1500000e+01	   4.0654261e+00	   1.0682199e+00	
   7.1555000e+01	   3.9913576e+00	   1.0838213e+00	
   7.1610000e+01	   3.7483523e+00	   9.4914313e-01	
   7.1665000e+01	   3.9394752e+00	   1.0961029e+00	
   7.1720000e+01	   3.7398883e+00	   9.1786370e-01	
   7.1775000e+01	   3.9178226e+00	   1.0766027e+00	
   7.1830000e+01	   3.4433681e+00	   8.3008114e-01	
   7.1885000e+01	   3.2088285e+00	   7.1435845e-01	
   7.1940000e+01	   3.4751884e+00	   7.6528134e-01	
   7.1995000e+01	   3.5101328e+00	   8.2733788e-01	
   7.2050000e+01	   3.3109390e+00	   6.2468191e-01	
   7.2105000e+01	   3.4280261e+00	   9.4718879e-01	
   7.2160000e+01	   4.0157572e+00	   1.1144118e+00	
   7.2215000e+01	   4.0225120e+00	   1.2072325e+00	
   7.2270000e+01	   3.9750998e+00	   9.1797850e-01	
   7.2325000e+01	   3.8260030e+00	   8.5538274e-01	
   7.2380000e+01	   3.6790609e+00	   1.0106834e+00	
   7.2435000e+01	   4.0077030e+00	   1.0763510e+00	
   7.2490000e+01	   3.4568380e+00	   9.0309996e-01	
   7.2545000e+01	   3.3294420e+00	   8.3290152e-01	
   7.2600000e+01	   3.5016952e+00	   9.8019674e-01	
   7.2655000e+01	   3.3323323e+00	   6.3360958e-01	
   7.2710000e+01	   2.8589008e+00	   7.4016100e-01	
   7.2765000e+01	   3.0027991e+00	   4.6786219e-01	
   7.2820000e+01	   3.4843541e+00	   6.5107276e-01	
   7.2875000e+01	   3.3979043e+00	   7.7131145e-01	
   7.2930000e+01	   3.7885569e+00	   1.0408508e+00	
   7.2985000e+01	   3.3385763e+00	   8.6779767e-01	
   7.3040000e+01	   3.4034107e+00	   8.2992466e-01	
   7.3095000e+01	   3.5183353e+00	   9.2799620e-01	
   7.3150000e+01	   3.4293448e+00	   8.0585641e-01	
   7.3205000e+01	   3.4580746e+00	   8.6275650e-01	
   7.3260000e+01	   3.1213949e+00	   6.9602402e-01	
   7.3315000e+01	   3.2099518e+00	   7.0834387e-01	
   7.3370000e+01	   2.8742971e+00	   7.3989731e-01	
   7.3425000e+01	   2.7852643e+00	   4.7406250e-01	
   7.3480000e+01	   3.0145523e+00	   7.2636253e-01	
   7.3535000e+01	   3.4170147e+00	   8.8816148e-01	
   7.3590000e+01	   3.5319634e+00	   1.0130770e+00	
   7.3645000e+01	   3.4417888e+00	   8.6420842e-01	
   7.3700000e+01	   3.2349954e+00	   7.5496381e-01	
   7.3755000e+01	   3.1825141e+00	   7.8093193e-01	
   7.3810000e+01	   3.4035391e+00	   8.8048550e-01	
   7.3865000e+01	   3.0685721e+00	   8.9410326e-01	
   7.3920000e+01	   2.9655044e+00	   8.0983314e-01	
   7.3975000e+01	   2.6938284e+00	   6.4607064e-01	
   7.4030000e+01	   2.7925225e+00	   6.8086923e-01	
   7.4085000e+01	   2.5195459e+00	   4.0340679e-01	
   7.4140000e+01	   2.7673868e+00	   5.6040567e-01	
   7.4195000e+01	   3.0804490e+00	   8.9322037e-01	
   7.4250000e+01	   3.4913912e+00	   1.1100917e+00	
   7.4305000e+01	   3.4132340e+00	   8.7560100e-01	
   7.4360000e+01	   3.2174742e+00	   9.6673802e-01	
   7.4415000e+01	   3.2963104e+00	   9.2791248e-01	
   7.4470000e+01	   2.9252886e+00	   9.7318254e-01	
   7.4525000e+01	   2.9569139e+00	   8.5960805e-01	
   7.4580000e+01	   2.9351174e+00	   6.9115606e-01	
   7.4635000e+01	   2.7219773e+00	   6.2596556e-01	
   7.4690000e+01	   2.5511189e+00	   7.1490523e-01	
   7.4745000e+01	   2.4274444e+00	   5.3744544e-01	
   7.4800000e+01	   2.6895569e+00	   4.5404509e-01	
   7.4855000e+01	   2.6604924e+00	   4.6141233e-01	
   7.4910000e+01	   3.0896466e+00	   9.2837081e-01	
   7.4965000e+01	   3.3557790e+00	   8.8556034e-01	
   7.5020000e+01	   3.0491457e+00	   1.0342300e+00	
   7.5075000e+01	   2.9719562e+00	   9.3916174e-01	
   7.5130000e+01	   2.9997868e+00	   9.5352776e-01	
   7.5185000e+01	   3.2715626e+00	   1.0518848e+00	
   7.5240000e+01	   2.7385132e+00	   7.5695898e-01	
   7.5295000e+01	   2.7717698e+00	   7.2412377e-01	
   7.5350000e+01	   2.6764893e+00	   8.1398542e-01	
   7.5405000e+01	   2.5043110e+00	   5.2354612e-01	
   7.5460000e+01	   2.3828061e+00	   4.5497226e-01	
   7.5515000e+01	   2.2828215e+00	   4.5929075e-01	
   7.5570000e+01	   2.5546566e+00	   5.7588595e-01	
   7.5625000e+01	   2.8988036e+00	   9.3721575e-01	
   7.5680000e+01	   2.7351088e+00	   6.9812967e-01	
   7.5735000e+01	   2.9035244e+00	   8.1620178e-01	
   7.5790000e+01	   3.0241480e+00	   8.7371783e-01	
   7.5845000e+01	   3.1795471e+00	   1.0171388e+00	
   7.5900000e+01	   2.8588607e+00	   7.8012326e-01	
   7.5955000e+01	   3.0086411e+00	   8.1707374e-01	
   7.6010000e+01	   2.2560311e+00	   6.7043712e-01	
   7.6065000e+01	   2.3321500e+00	   5.9581994e-01	
   7.6120000e+01	   2.5700922e+00	   5.8930620e-01	
   7.6175000e+01	   2.0251960e+00	   2.4205301e-01	
   7.6230000e+01	   2.4984958e+00	   6.1268611e-01	
   7.6285000e+01	   2.7131416e+00	   7.1889587e-01	
   7.6340000e+01	   2.8243796e+00	   8.8060267e-01	
   7.6395000e+01	   2.8500514e+00	   9.1866619e-01	
   7.6450000e+01	   2.5541594e+00	   7.3228651e-01	
   7.6505000e+01	   2.7939856e+00	   8.1803597e-01	
   7.6560000e+01	   2.6890621e+00	   8.7706056e-01	
   7.6615000e+01	   2.4631557e+00	   7.2585171e-01	
   7.6670000e+01	   2.2536371e+00	   6.2596530e-01	
   7.6725000e+01	   2.5651689e+00	   7.4031160e-01	
   7.6780000e+01	   1.9776774e+00	   4.3922576e-01	
   7.6835000e+01	   2.0725831e+00	   3.7449254e-01	
   7.6890000e+01	   2.4268839e+00	   5.0798483e-01	
   7.6945000e+01	   2.9569139e+00	   7.5190624e-01	
   7.7000000e+01	   2.9333460e+00	   8.1461508e-01	
   7.7055000e+01	   2.6713369e+00	   8.7904069e-01	
   7.7110000e+01	   2.2452563e+00	   6.4330019e-01	
   7.7165000e+01	   2.6374353e+00	   7.7537959e-01	
   7.7220000e+01	   2.6348299e+00	   7.8719746e-01	
   7.7275000e+01	   2.6947049e+00	   7.5815986e-01	
   7.7330000e+01	   2.1679358e+00	   4.9075572e-01	
   7.7385000e+01	   2.3918562e+00	   5.2605668e-01	
   7.7440000e+01	   2.4981073e+00	   7.0314012e-01	
   7.7495000e+01	   1.8978729e+00	   1.6882416e-01	
   7.7550000e+01	   2.0732003e+00	   4.6883511e-01	
   7.7605000e+01	   2.6647768e+00	   8.6915906e-01	
   7.7660000e+01	   2.6543947e+00	   8.9327067e-01	
   7.7715000e+01	   2.9507699e+00	   8.2388682e-01	
   7.7770000e+01	   2.6977842e+00	   7.1342728e-01	
   7.7825000e+01	   2.8570695e+00	   9.5317240e-01	
   7.7880000e+01	   2.3862700e+00	   7.9672178e-01	
   7.7935000e+01	   2.7126502e+00	   7.3406058e-01	
   7.7990000e+01	   2.1317177e+00	   7.2111541e-01	
   7.8045000e+01	   2.3378509e+00	   6.5063685e-01	
   7.8100000e+01	   2.3116022e+00	   5.3731212e-01	
   7.8155000e+01	   1.9256493e+00	   3.9633402e-01	
   7.8210000e+01	   2.5246885e+00	   7.3170779e-01	
   7.8265000e+01	   2.3857926e+00	   8.2390048e-01	
   7.8320000e+01	   2.9067226e+00	   9.2640204e-01	
   7.8375000e+01	   2.9532567e+00	   9.4311704e-01	
   7.8430000e+01	   2.8509026e+00	   8.7707279e-01	
   7.8485000e+01	   2.6634819e+00	   7.7680504e-01	
   7.8540000e+01	   2.5053872e+00	   9.0211171e-01	
   7.8595000e+01	   2.7163563e+00	   9.0012558e-01	
   7.8650000e+01	   2.6394563e+00	   5.9719834e-01	
   7.8705000e+01	   2.3553832e+00	   4.7378495e-01	
   7.8760000e+01	   2.4935372e+00	   6.7060286e-01	
   7.8815000e+01	   2.2456825e+00	   5.4638799e-01	
   7.8870000e+01	   1.9644338e+00	   3.1768139e-01	
   7.8925000e+01	   2.3898541e+00	   5.7811021e-01	
   7.8980000e+01	   3.0389741e+00	   9.8679671e-01	
   7.9035000e+01	   2.9775293e+00	   9.5893110e-01	
   7.9090000e+01	   2.8260171e+00	   8.8867197e-01	
   7.9145000e+01	   2.9330298e+00	   8.4446040e-01	
   7.9200000e+01	   2.9020440e+00	   9.2110633e-01	
   7.9255000e+01	   3.0052501e+00	   9.9809915e-01	
   7.9310000e+01	   2.4756109e+00	   7.6301621e-01	
   7.9365000e+01	   2.8294149e+00	   7.3543872e-01	
   7.9420000e+01	   2.4450118e+00	   6.1582879e-01	
   7.9475000e+01	   2.3443835e+00	   5.4340486e-01	
   7.9530000e+01	   2.3570722e+00	   4.8969100e-01	
   7.9585000e+01	   2.2438220e+00	   4.3147053e-01	
   7.9640000e+01	   2.4849912e+00	   6.1421203e-01	
   7.9695000e+01	   2.7594408e+00	   8.4177372e-01	
   7.9750000e+01	   2.9684103e+00	   9.4836067e-01	
   7.9805000e+01	   3.0290181e+00	   9.0448935e-01	
   7.9860000e+01	   2.9533025e+00	   8.5998147e-01	
   7.9915000e+01	   2.6379535e+00	   8.7362868e-01	
   7.9970000e+01	   2.7832895e+00	   7.5208366e-01	
   8.0025000e+01	   2.6656353e+00	   6.8852516e-01	
   8.0080000e+01	   2.3711355e+00	   7.1552467e-01	
   8.0135000e+01	   2.4943825e+00	   7.2634848e-01	
   8.0190000e+01	   2.1843791e+00	   4.5878569e-01	
   8.0245000e+01	   2.3053176e+00	   5.1917389e-01	
   8.0300000e+01	   2.9734251e+00	   6.7770627e-01	
   8.0355000e+01	   2.9144551e+00	   8.7515575e-01	
   8.0410000e+01	   2.7148200e+00	   7.3288673e-01	
   8.0465000e+01	   2.5617197e+00	   6.9260649e-01	
   8.0520000e+01	   2.5890592e+00	   6.3024906e-01	
   8.0575000e+01	   2.8461287e+00	   8.7603140e-01	
   8.0630000e+01	   2.6412785e+00	   6.8087803e-01	
   8.0685000e+01	   2.6173732e+00	   5.6658418e-01	
   8.0740000e+01	   2.6201082e+00	   5.3814438e-01	
   8.0795000e+01	   2.3835893e+00	   5.3516728e-01	
   8.0850000e+01	   2.4000783e+00	   5.6720865e-01	
   8.0905000e+01	   2.3923727e+00	   3.9981178e-01	
   8.0960000e+01	   2.9959921e+00	   7.8434809e-01	
   8.1015000e+01	   2.8495774e+00	   9.2641996e-01	
   8.1070000e+01	   3.0360537e+00	   9.3168179e-01	
   8.1125000e+01	   2.8213885e+00	   6.7708598e-01	
   8.1180000e+01	   2.5208285e+00	   6.9482228e-01	
   8.1235000e+01	   2.9251079e+00	   7.8602870e-01	
   8.1290000e+01	   2.8082319e+00	   8.5964338e-01	
   8.1345000e+01	   2.6156089e+00	   5.8774358e-01	
   8.1400000e+01	   2.2643869e+00	   4.6341654e-01	
   8.1455000e+01	   2.4007269e+00	   5.5789419e-01	
   8.1510000e+01	   2.4374358e+00	   3.7634740e-01	
   8.1565000e+01	   2.5531099e+00	   4.0768519e-01	
   8.1620000e+01	   3.1198982e+00	   7.3938144e-01	
   8.1675000e+01	   3.0243533e+00	   7.4019568e-01	
   8.1730000e+01	   2.9263220e+00	   9.2951266e-01	
   8.1785000e+01	   2.7470058e+00	   7.6314265e-01	
   8.1840000e+01	   2.9133291e+00	   7.0193649e-01	
   8.1895000e+01	   2.8306599e+00	   7.7233199e-01	
   8.1950000e+01	   2.8460162e+00	   9.4774286e-01	
   8.2005000e+01	   2.8151493e+00	   6.5662047e-01	
   8.2060000e+01	   2.4096401e+00	   3.5477922e-01	
   8.2115000e+01	   2.1187482e+00	   4.8889491e-01	
   8.2170000e+01	   2.5463494e+00	   5.3675364e-01	
   8.2225000e+01	   2.4785849e+00	   3.0148463e-01	
   8.2280000e+01	   3.0729699e+00	   5.1279718e-01	
   8.2335000e+01	   2.9532288e+00	   8.4676823e-01	
   8.2390000e+01	   3.2860086e+00	   9.2099894e-01	
   8.2445000e+01	   3.0855150e+00	   8.1433060e-01	
   8.2500000e+01	   3.0490735e+00	   6.0647592e-01	
   8.2555000e+01	   2.9495756e+00	   7.8416190e-01	
   8.2610000e+01	   2.8558218e+00	   6.8280679e-01	
   8.2665000e+01	   2.9311741e+00	   7.4843775e-01	
   8.2720000e+01	   2.8044086e+00	   5.2103674e-01	
   8.2775000e+01	   2.7852711e+00	   6.2183794e-01	
   8.2830000e+01	   2.5759515e+00	   5.3832640e-01	
   8.2885000e+01	   2.1607104e+00	   3.3665521e-01	
   8.2940000e+01	   2.4530047e+00	   3.8038546e-01	
   8.2995000e+01	   2.9050609e+00	   5.5021439e-01	
   8.3050000e+01	   3.2240217e+00	   9.2697879e-01	
   8.3105000e+01	   3.0652945e+00	   7.3052561e-01	
   8.3160000e+01	   3.1006917e+00	   8.0810883e-01	
   8.3215000e+01	   2.9488797e+00	   6.3225960e-01	
   8.3270000e+01	   3.0173223e+00	   6.6328613e-01	
   8.3325000e+01	   3.2507693e+00	   9.5858191e-01	
   8.3380000e+01	   2.8275425e+00	   5.8703326e-01	
   8.3435000e+01	   2.6776135e+00	   3.2718434e-01	
   8.3490000e+01	   2.4974195e+00	   5.0667648e-01	
   8.3545000e+01	   2.6824475e+00	   6.0320537e-01	
   8.3600000e+01	   2.2301677e+00	   1.7034309e-01	
   8.3655000e+01	   2.6646880e+00	   3.2902273e-01	
   8.3710000e+01	   3.0781735e+00	   6.7571074e-01	
   8.3765000e+01	   3.2300118e+00	   7.7439617e-01	
   8.3820000e+01	   3.1622306e+00	   5.6188632e-01	
   8.3875000e+01	   3.0180179e+00	   5.6325777e-01	
   8.3930000e+01	   3.2123442e+00	   6.7457876e-01	
   8.3985000e+01	   3.2551692e+00	   8.1370252e-01	
   8.4040000e+01	   2.7035272e+00	   5.0052550e-01	
   8.4095000e+01	   2.6843391e+00	   2.9575973e-01	
   8.4150000e+01	   2.6516863e+00	   3.3741958e-01	
   8.4205000e+01	   2.5875109e+00	   4.3943942e-01	
   8.4260000e+01	   2.4870067e+00	   3.2359200e-01	
   8.4315000e+01	   3.0516050e+00	   4.8634976e-01	
   8.4370000e+01	   2.8473311e+00	   5.7514835e-01	
   8.4425000e+01	   3.0112375e+00	   7.0166183e-01	
   8.4480000e+01	   3.1556826e+00	   5.4443393e-01	
   8.4535000e+01	   2.7623355e+00	   5.3209016e-01	
   8.4590000e+01	   2.9597761e+00	   5.4670734e-01	
   8.4645000e+01	   2.9369022e+00	   5.6138361e-01	
   8.4700000e+01	   2.7102617e+00	   4.7162846e-01	
   8.4755000e+01	   2.5357234e+00	   3.8805826e-01	
   8.4810000e+01	   2.4066100e+00	   3.8240082e-01	
   8.4865000e+01	   2.4950776e+00	   4.1234757e-01	
   8.4920000e+01	   2.7104598e+00	   3.3284927e-01	
   8.4975000e+01	   2.7245382e+00	   5.1367451e-01	
   8.5030000e+01	   3.1908425e+00	   6.4626718e-01	
   8.5085000e+01	   2.8542949e+00	   5.7095307e-01	
   8.5140000e+01	   3.3057857e+00	   7.4903591e-01	
   8.5195000e+01	   2.9014600e+00	   5.7154988e-01	
   8.5250000e+01	   2.7686796e+00	   5.9869321e-01	
   8.5305000e+01	   2.5940576e+00	   4.9750584e-01	
   8.5360000e+01	   2.8494785e+00	   5.3261883e-01	
   8.5415000e+01	   2.6394275e+00	   5.2127144e-01	
   8.5470000e+01	   2.3687025e+00	   2.0930195e-01	
   8.5525000e+01	   2.3047860e+00	   3.4372704e-01	
   8.5580000e+01	   2.7636136e+00	   4.7912725e-01	
   8.5635000e+01	   3.1973625e+00	   5.2806210e-01	
   8.5690000e+01	   3.0316068e+00	   6.2915023e-01	
   8.5745000e+01	   3.1344534e+00	   5.4870358e-01	
   8.5800000e+01	   3.4459011e+00	   9.5667365e-01	
   8.5855000e+01	   2.9762662e+00	   6.6739066e-01	
   8.5910000e+01	   2.7837347e+00	   4.6258967e-01	
   8.5965000e+01	   2.8284222e+00	   5.6577925e-01	
   8.6020000e+01	   2.7574192e+00	   5.4561414e-01	
   8.6075000e+01	   2.7424271e+00	   5.6675515e-01	
   8.6130000e+01	   2.5996558e+00	   3.0493874e-01	
   8.6185000e+01	   2.6687010e+00	   4.9824420e-01	
   8.6240000e+01	   2.5908358e+00	   3.6005678e-01	
   8.6295000e+01	   2.9265091e+00	   4.8449962e-01	
   8.6350000e+01	   3.2890526e+00	   7.5538351e-01	
   8.6405000e+01	   3.1221413e+00	   7.5764956e-01	
   8.6460000e+01	   3.7084346e+00	   9.6452086e-01	
   8.6515000e+01	   3.2519075e+00	   7.5141250e-01	
   8.6570000e+01	   3.2880945e+00	   8.1237936e-01	
   8.6625000e+01	   2.8908532e+00	   6.5291425e-01	
   8.6680000e+01	   2.9774095e+00	   4.5562619e-01	
   8.6735000e+01	   2.9588064e+00	   6.3656829e-01	
   8.6790000e+01	   2.6465508e+00	   3.4576325e-01	
   8.6845000e+01	   2.6649391e+00	   3.9365177e-01	
   8.6900000e+01	   2.5296255e+00	   4.6592123e-01	
   8.6955000e+01	   2.6200422e+00	   5.4197991e-01	
   8.7010000e+01	   3.1741681e+00	   6.1906992e-01	
   8.7065000e+01	   3.0900867e+00	   6.8416709e-01	
   8.7120000e+01	   3.1864018e+00	   6.6530966e-01	
   8.7175000e+01	   3.2045145e+00	   8.4441419e-01	
   8.7230000e+01	   3.1314938e+00	   6.9645304e-01	
   8.7285000e+01	   2.9871722e+00	   5.5413137e-01	
   8.7340000e+01	   3.0004488e+00	   5.8904676e-01	
   8.7395000e+01	   2.9005403e+00	   5.5378662e-01	
   8.7450000e+01	   2.6467746e+00	   4.1433031e-01	
   8.7505000e+01	   2.9020032e+00	   3.7344497e-01	
   8.7560000e+01	   2.2973839e+00	   2.8137009e-01	
   8.7615000e+01	   3.0333272e+00	   4.9886694e-01	
   8.7670000e+01	   3.1772351e+00	   6.4617523e-01	
   8.7725000e+01	   2.9442852e+00	   5.2324760e-01	
   8.7780000e+01	   3.2632040e+00	   6.0165037e-01	
   8.7835000e+01	   3.1815834e+00	   6.0980435e-01	
   8.7890000e+01	   2.9945534e+00	   6.2889772e-01	
   8.7945000e+01	   3.0459827e+00	   5.1062895e-01	
   8.8000000e+01	   2.8362783e+00	   4.6507315e-01	
   8.8055000e+01	   2.8634567e+00	   6.0796619e-01	
   8.8110000e+01	   2.6120464e+00	   3.9873442e-01	
   8.8165000e+01	   2.7296161e+00	   3.0241727e-01	
   8.8220000e+01	   2.7483614e+00	   3.1488723e-01	
   8.8275000e+01	   3.4155094e+00	   6.8766361e-01	
   8.8330000e+01	   3.3766973e+00	   5.9987153e-01	
   8.8385000e+01	   3.2036667e+00	   6.0504926e-01	
   8.8440000e+01	   3.0814802e+00	   6.7283159e-01	
   8.8495000e+01	   2.8458373e+00	   6.3531225e-01	
   8.8550000e+01	   3.0693432e+00	   4.2288962e-01	
   8.8605000e+01	   2.7937034e+00	   4.4803289e-01	
   8.8660000e+01	   2.8503375e+00	   3.5919564e-01	
   8.8715000e+01	   2.7846462e+00	   4.2567338e-01	
   8.8770000e+01	   2.8773328e+00	   3.6735881e-01	
   8.8825000e+01	   2.3540916e+00	   1.3699198e-01	
   8.8880000e+01	   3.0856066e+00	   4.4086564e-01	
   8.8935000e+01	   3.0026680e+00	   6.3175064e-01	
   8.8990000e+01	   3.2535048e+00	   6.8355591e-01	
   8.9045000e+01	   3.2534610e+00	   5.5190152e-01	
   8.9100000e+01	   3.1199823e+00	   5.8866765e-01	
   8.9155000e+01	   3.3929477e+00	   6.3714211e-01	
   8.9210000e+01	   3.0767122e+00	   5.9397358e-01	
   8.9265000e+01	   2.8407666e+00	   5.4440646e-01	
   8.9320000e+01	   2.5394597e+00	   2.5960245e-01	
   8.9375000e+01	   2.8923138e+00	   4.4333382e-01	
   8.9430000e+01	   2.8881884e+00	   4.8920991e-01	
   8.9485000e+01	   2.5236219e+00	   2.8281198e-01	
   8.9540000e+01	   2.7921242e+00	   3.3252957e-01	
   8.9595000e+01	   3.4950202e+00	   6.3614171e-01	
   8.9650000e+01	   3.6148743e+00	   8.0746963e-01	
   8.9705000e+01	   3.4687727e+00	   6.4718447e-01	
   8.9760000e+01	   3.3458104e+00	   5.4435507e-01	
   8.9815000e+01	   3.0783917e+00	   6.7232118e-01	
   8.9870000e+01	   3.3521854e+00	   7.0662259e-01	
   8.9925000e+01	   3.1421183e+00	   4.7037174e-01	
   8.9980000e+01	   2.9888754e+00	   3.6374801e-01	
   9.0035000e+01	   2.7944738e+00	   5.4453340e-01	
   9.0090000e+01	   2.9224682e+00	   3.7360533e-01	
   9.0145000e+01	   2.7817119e+00	   2.8701867e-01	
   9.0200000e+01	   2.4474116e+00	   2.4617899e-01	
   9.0255000e+01	   3.1923513e+00	   3.8522483e-01	
   9.0310000e+01	   3.4005580e+00	   6.8446770e-01	
   9.0365000e+01	   3.6315801e+00	   8.1989925e-01	
   9.0420000e+01	   3.3162494e+00	   6.5519330e-01	
   9.0475000e+01	   3.2433057e+00	   5.7348765e-01	
   9.0530000e+01	   3.2958030e+00	   7.3456162e-01	
   9.0585000e+01	   3.2512722e+00	   6.6878790e-01	
   9.0640000e+01	   3.1807202e+00	   5.2304716e-01	
   9.0695000e+01	   2.8909163e+00	   4.6964967e-01	
   9.0750000e+01	   3.0849275e+00	   5.7093353e-01	
   9.0805000e+01	   2.7759231e+00	   4.7855438e-01	
   9.0860000e+01	   2.5738889e+00	   7.8298259e-02	
   9.0915000e+01	   2.7067867e+00	   3.3632910e-01	
   9.0970000e+01	   3.1159394e+00	   5.5855197e-01	
   9.1025000e+01	   3.4565214e+00	   7.1423616e-01	
   9.1080000e+01	   3.2936274e+00	   5.2493667e-01	
   9.1135000e+01	   2.8157972e+00	   4.0061053e-01	
   9.1190000e+01	   3.1618403e+00	   5.3925075e-01	
   9.1245000e+01	   3.1923104e+00	   5.6626490e-01	
   9.1300000e+01	   2.9405428e+00	   3.9659262e-01	
   9.1355000e+01	   2.7291410e+00	   3.2367295e-01	
   9.1410000e+01	   2.8650307e+00	   3.2167205e-01	
   9.1465000e+01	   2.9888854e+00	   5.0615276e-01	
   9.1520000e+01	   2.4975919e+00	   9.8212375e-02	
   9.1575000e+01	   2.6282120e+00	   2.6172305e-01	
   9.1630000e+01	   2.9847453e+00	   4.8635551e-01	
   9.1685000e+01	   3.1469509e+00	   7.2246072e-01	
   9.1740000e+01	   3.0984290e+00	   3.8515562e-01	
   9.1795000e+01	   2.9657326e+00	   3.7235843e-01	
   9.1850000e+01	   3.0302201e+00	   4.9550118e-01	
   9.1905000e+01	   2.9759594e+00	   3.7627985e-01	
   9.1960000e+01	   2.8660931e+00	   2.6086035e-01	
   9.2015000e+01	   2.5054294e+00	   1.8385276e-01	
   9.2070000e+01	   2.5434549e+00	   2.3110071e-01	
   9.2125000e+01	   2.5426738e+00	   2.7226929e-01	
   9.2180000e+01	   2.2481823e+00	   2.2258591e-01	
   9.2235000e+01	   2.4168269e+00	  -1.8120262e-02	
   9.2290000e+01	   2.7567936e+00	   2.0739704e-01	
   9.2345000e+01	   2.6323310e+00	   4.0516317e-01	
   9.2400000e+01	   2.8919842e+00	   4.9101171e-01	
   9.2455000e+01	   2.4102561e+00	   2.2133393e-01	
   9.2510000e+01	   2.6247607e+00	   3.4396711e-01	
   9.2565000e+01	   2.7133988e+00	   3.2189062e-01	
   9.2620000e+01	   2.6847042e+00	   3.7457411e-01	
   9.2675000e+01	   2.1371707e+00	  -2.5076330e-02	
   9.2730000e+01	   2.1168154e+00	  -8.1323272e-02	
   9.2785000e+01	   1.8678247e+00	   5.5217237e-02	
   9.2840000e+01	   2.0663157e+00	   9.1450421e-02	
   9.2895000e+01	   2.3722961e+00	   4.5025814e-02	
   9.2950000e+01	   2.6770027e+00	   2.7253263e-01	
   9.3005000e+01	   2.7952632e+00	   5.3642194e-01	
   9.3060000e+01	   2.7250182e+00	   5.7215501e-01	
   9.3115000e+01	   2.1522874e+00	   1.5973788e-01	
   9.3170000e+01	   2.6793735e+00	   2.8899110e-01	
   9.3225000e+01	   2.3129335e+00	   3.3152214e-01	
   9.3280000e+01	   2.3105759e+00	   3.0883555e-01	
   9.3335000e+01	   2.2068717e+00	   1.8424403e-03	
   9.3390000e+01	   2.1331320e+00	   3.3491507e-02	
   9.3445000e+01	   2.2379934e+00	   1.7753944e-01	
   9.3500000e+01	   1.8714328e+00	  -1.8484566e-01	
   9.3555000e+01	   2.0761500e+00	  -1.2208166e-01	
   9.3610000e+01	   2.8288802e+00	   2.7474999e-01	
   9.3665000e+01	   2.6565075e+00	   3.9266666e-01	
   9.3720000e+01	   2.7067433e+00	   5.3485004e-01	
   9.3775000e+01	   2.5180672e+00	   4.6774586e-01	
   9.3830000e+01	   2.3626935e+00	   3.9180745e-01	
   9.3885000e+01	   2.4360710e+00	   4.2151193e-01	
   9.3940000e+01	   2.1935854e+00	   2.4700265e-01	
   9.3995000e+01	   2.1395892e+00	   1.7694805e-01	
   9.4050000e+01	   2.0451959e+00	   4.5263778e-02	
   9.4105000e+01	   2.0316223e+00	   8.3741656e-02	
   9.4160000e+01	   1.8509562e+00	  -1.3971869e-01	
   9.4215000e+01	   2.2875225e+00	   1.2048706e-01	
   9.4270000e+01	   2.5393863e+00	   3.8656463e-01	
   9.4325000e+01	   2.7330344e+00	   4.4686679e-01	
   9.4380000e+01	   2.7387605e+00	   6.5979353e-01	
   9.4435000e+01	   2.5016638e+00	   5.8507806e-01	
   9.4490000e+01	   2.7363219e+00	   5.5222160e-01	
   9.4545000e+01	   2.2346781e+00	   3.6596232e-01	
   9.4600000e+01	   2.3623643e+00	   3.9482096e-01	
   9.4655000e+01	   2.0568831e+00	   3.2056912e-01	
   9.4710000e+01	   1.9458294e+00	   1.2417035e-01	
   9.4765000e+01	   1.8561673e+00	   1.9822338e-02	
   9.4820000e+01	   1.8227102e+00	   1.5594467e-01	
   9.4875000e+01	   2.0260701e+00	   1.7199369e-01	
   9.4930000e+01	   2.1555652e+00	   2.5552884e-01	
   9.4985000e+01	   2.2254175e+00	   3.5939655e-01	
   9.5040000e+01	   2.5117753e+00	   5.2534338e-01	
   9.5095000e+01	   2.6240710e+00	   5.4802119e-01	
   9.5150000e+01	   2.4315480e+00	   4.2655043e-01	
   9.5205000e+01	   2.2931451e+00	   3.4925138e-01	
   9.5260000e+01	   2.2738117e+00	   5.5469899e-01	
   9.5315000e+01	   2.0914386e+00	   4.1454284e-01	
   9.5370000e+01	   2.0147536e+00	   9.4573401e-02	
   9.5425000e+01	   2.0390652e+00	   2.9436364e-01	
   9.5480000e+01	   1.7380097e+00	   1.1831083e-01	
   9.5535000e+01	   1.9272424e+00	   1.6610621e-01	
   9.5590000e+01	   2.3114052e+00	   2.2372085e-01	
   9.5645000e+01	   2.5642881e+00	   3.4913382e-01	
   9.5700000e+01	   2.5083977e+00	   3.6320722e-01	
   9.5755000e+01	   2.5613471e+00	   5.3791568e-01	
   9.5810000e+01	   2.3526672e+00	   3.0254078e-01	
   9.5865000e+01	   2.4882979e+00	   5.1180829e-01	
   9.5920000e+01	   2.3124138e+00	   4.0831960e-01	
   9.5975000e+01	   2.2039272e+00	   4.3717205e-01	
   9.6030000e+01	   2.0996745e+00	   3.5793058e-01	
   9.6085000e+01	   2.0815648e+00	   2.6621663e-01	
   9.6140000e+01	   1.8610446e+00	   8.4185750e-02	
   9.6195000e+01	   1.7603630e+00	   1.2566134e-01	
   9.6250000e+01	   2.1124644e+00	   6.2826911e-02	
   9.6305000e+01	   2.2980509e+00	   3.2951933e-01	
   9.6360000e+01	   2.2231492e+00	   3.4483481e-01	
   9.6415000e+01	   2.6706390e+00	   6.0593560e-01	
   9.6470000e+01	   2.4780985e+00	   5.3201832e-01	
   9.6525000e+01	   2.3761449e+00	   2.5551776e-01	
   9.6580000e+01	   2.3047639e+00	   4.4816078e-01	
   9.6635000e+01	   2.2731517e+00	   3.8371157e-01	
   9.6690000e+01	   2.0458996e+00	   3.1072943e-01	
   9.6745000e+01	   1.8209454e+00	   5.1521058e-02	
   9.6800000e+01	   1.5433228e+00	   2.8616638e-03	
   9.6855000e+01	   1.7606055e+00	   1.7270833e-01	
   9.6910000e+01	   2.3533133e+00	   2.9130145e-01	
   9.6965000e+01	   2.3027471e+00	   1.9650235e-01	
   9.7020000e+01	   2.2181215e+00	   4.4608014e-01	
   9.7075000e+01	   2.1683100e+00	   3.8974505e-01	
   9.7130000e+01	   2.0758626e+00	   3.0704558e-01	
   9.7185000e+01	   2.0275229e+00	   2.2799341e-01	
   9.7240000e+01	   2.0015349e+00	   3.0198384e-01	
   9.7295000e+01	   1.6379284e+00	  -1.0289344e-02	
   9.7350000e+01	   2.1215626e+00	   2.6704572e-01	
   9.7405000e+01	   1.6392948e+00	   2.2029070e-02	
   9.7460000e+01	   1.6533521e+00	  -8.6250106e-02	
   9.7515000e+01	   2.2406800e+00	   5.1219466e-01	
   9.7570000e+01	   2.3143254e+00	   3.2297511e-01	
   9.7625000e+01	   2.3201058e+00	   5.0939666e-01	
   9.7680000e+01	   2.6763429e+00	   3.8309724e-01	
   9.7735000e+01	   2.3644842e+00	   4.6168049e-01	
   9.7790000e+01	   2.1810662e+00	   4.4108318e-01	
   9.7845000e+01	   2.3560316e+00	   4.0882124e-01	
   9.7900000e+01	   1.9214198e+00	   4.0934732e-01	
   9.7955000e+01	   1.7019311e+00	   1.1545935e-01	
   9.8010000e+01	   1.9216590e+00	   2.5481950e-01	
   9.8065000e+01	   1.8915478e+00	   1.1821088e-01	
   9.8120000e+01	   1.8895703e+00	   2.3434508e-01	
   9.8175000e+01	   2.3205000e+00	   5.0279386e-01	
   9.8230000e+01	   2.6293208e+00	   6.2639762e-01	
   9.8285000e+01	   2.7079944e+00	   5.9890004e-01	
   9.8340000e+01	   2.4523492e+00	   3.9914231e-01	
   9.8395000e+01	   2.3562018e+00	   6.0082171e-01	
   9.8450000e+01	   2.4747320e+00	   6.1616849e-01	
   9.8505000e+01	   2.2451038e+00	   5.3752941e-01	
   9.8560000e+01	   2.0926333e+00	   5.5250380e-01	
   9.8615000e+01	   2.0462296e+00	   2.5760945e-01	
   9.8670000e+01	   2.1714374e+00	   4.4604621e-01	
   9.8725000e+01	   1.8725506e+00	   2.9307118e-01	
   9.8780000e+01	   1.7312836e+00	   1.8859486e-01	
   9.8835000e+01	   2.5578210e+00	   4.7588806e-01	
   9.8890000e+01	   2.8898745e+00	   5.6180677e-01	
   9.8945000e+01	   2.8149401e+00	   8.5702114e-01	
   9.9000000e+01	   2.6624804e+00	   6.7833163e-01	
   9.9055000e+01	   2.4643476e+00	   5.2300598e-01	
   9.9110000e+01	   2.4989994e+00	   5.8385927e-01	
   9.9165000e+01	   2.6095578e+00	   5.2842498e-01	
   9.9220000e+01	   2.4304009e+00	   6.4564566e-01	
   9.9275000e+01	   2.0411715e+00	   5.5443414e-01	
   9.9330000e+01	   2.4141540e+00	   4.9273292e-01	
   9.9385000e+01	   2.1855679e+00	   4.3675531e-01	
   9.9440000e+01	   2.0794135e+00	   3.0520039e-01	
   9.9495000e+01	   2.0589846e+00	   3.8907362e-01	
   9.9550000e+01	   2.5205785e+00	   6.0172952e-01	
   9.9605000e+01	   3.0698285e+00	   8.1093781e-01	
   9.9660000e+01	   2.8716180e+00	   8.8975728e-01	
   9.9715000e+01	   2.8365180e+00	   7.1363043e-01	
   9.9770000e+01	   2.7712246e+00	   6.7246401e-01	
   9.9825000e+01	   2.7767866e+00	   8.3202201e-01	
   9.9880000e+01	   2.4986755e+00	   5.5972259e-01	
   9.9935000e+01	   2.0718382e+00	   4.7055254e-01	
   9.9990000e+01	   2.2617826e+00	   5.3878599e-01	
   1.0004500e+02	   1.9563230e+00	   3.8916798e-01	
   1.0010000e+02	   2.1835857e+00	   3.1442788e-01	
   1.0015500e+02	   2.1101608e+00	   3.9985273e-01	
   1.0021000e+02	   2.5711416e+00	   5.2785528e-01	
   1.0026500e+02	   2.6926740e+00	   6.9314407e-01	
   1.0032000e+02	   2.7633079e+00	   6.9216873e-01	
   1.0037500e+02	   2.7369411e+00	   7.3283007e-01	
   1.0043000e+02	   2.5947082e+00	   6.2579592e-01	
   1.0048500e+02	   2.5385955e+00	   6.5010577e-01	
   1.0054000e+02	   2.5536812e+00	   7.3904492e-01	
   1.0059500e+02	   2.1037299e+00	   4.6324993e-01	
   1.0065000e+02	   2.1433205e+00	   3.6905701e-01	
   1.0070500e+02	   2.2740642e+00	   4.7290878e-01	
   1.0076000e+02	   2.1477207e+00	   3.1694106e-01	
   1.0081500e+02	   2.5912280e+00	   5.0656767e-01	
   1.0087000e+02	   2.8280209e+00	   5.5771028e-01	
   1.0092500e+02	   2.6556273e+00	   6.9147986e-01	
   1.0098000e+02	   2.5352494e+00	   6.4244335e-01	
   1.0103500e+02	   2.2964721e+00	   6.1740567e-01	
   1.0109000e+02	   2.2603517e+00	   5.6437669e-01	
   1.0114500e+02	   2.5123807e+00	   5.6750439e-01	
   1.0120000e+02	   2.2229549e+00	   6.5196227e-01	
   1.0125500e+02	   2.2517256e+00	   4.2194763e-01	
   1.0131000e+02	   2.1377801e+00	   3.6342980e-01	
   1.0136500e+02	   1.9717224e+00	   4.5541238e-01	
   1.0142000e+02	   2.2808528e+00	   4.6428821e-01	
   1.0147500e+02	   2.7441297e+00	   7.0371003e-01	
   1.0153000e+02	   2.4353442e+00	   6.4107823e-01	
   1.0158500e+02	   2.4807842e+00	   7.3264456e-01	
   1.0164000e+02	   2.5980512e+00	   7.7047750e-01	
   1.0169500e+02	   2.6785466e+00	   8.5479813e-01	
   1.0175000e+02	   2.4996917e+00	   5.6619796e-01	
   1.0180500e+02	   2.3733691e+00	   7.2456980e-01	
   1.0186000e+02	   2.4217467e+00	   6.5112412e-01	
   1.0191500e+02	   2.1232430e+00	   5.1472060e-01	
   1.0197000e+02	   1.9011408e+00	   3.0708211e-01	
   1.0202500e+02	   1.8900276e+00	   1.6816468e-01	
   1.0208000e+02	   2.0396036e+00	   5.3199719e-01	
   1.0213500e+02	   2.5089901e+00	   6.5589651e-01	
   1.0219000e+02	   2.5103939e+00	   6.0001069e-01	
   1.0224500e+02	   2.9383007e+00	   6.9948821e-01	
   1.0230000e+02	   2.7433598e+00	   8.1404610e-01	
   1.0235500e+02	   2.6894680e+00	   8.5494548e-01	
   1.0241000e+02	   2.6983374e+00	   6.8127332e-01	
   1.0246500e+02	   2.7384724e+00	   9.0311446e-01	
   1.0252000e+02	   2.2857515e+00	   7.8564800e-01	
   1.0257500e+02	   2.4153358e+00	   5.0670077e-01	
   1.0263000e+02	   2.1653588e+00	   5.2516702e-01	
   1.0268500e+02	   2.1125138e+00	   4.8044005e-01	
   1.0274000e+02	   1.9417545e+00	   4.4169508e-01	
   1.0279500e+02	   2.5872973e+00	   7.8228844e-01	
   1.0285000e+02	   2.9435447e+00	   8.4348835e-01	
   1.0290500e+02	   2.7190151e+00	   7.8263219e-01	
   1.0296000e+02	   2.9630146e+00	   8.0235602e-01	
   1.0301500e+02	   2.8416499e+00	   9.3068589e-01	
   1.0307000e+02	   2.4465564e+00	   7.1622974e-01	
   1.0312500e+02	   2.5606998e+00	   8.4117352e-01	
   1.0318000e+02	   2.4818421e+00	   8.2431467e-01	
   1.0323500e+02	   2.5763647e+00	   8.3120828e-01	
   1.0329000e+02	   2.2284365e+00	   5.5481475e-01	
   1.0334500e+02	   2.2468963e+00	   3.4887774e-01	
   1.0340000e+02	   2.0948511e+00	   5.0551514e-01	
   1.0345500e+02	   2.5364392e+00	   7.0185552e-01	
   1.0351000e+02	   2.4765042e+00	   7.5488586e-01	
   1.0356500e+02	   2.9079431e+00	   8.1755351e-01	
   1.0362000e+02	   2.8789901e+00	   8.9165821e-01	
   1.0367500e+02	   2.7624604e+00	   8.8904362e-01	
   1.0373000e+02	   2.5316955e+00	   8.0133215e-01	
   1.0378500e+02	   2.6686122e+00	   6.7885037e-01	
   1.0384000e+02	   2.6344163e+00	   7.8549367e-01	
   1.0389500e+02	   2.2672092e+00	   6.9856614e-01	
   1.0395000e+02	   2.1554130e+00	   6.8380220e-01	
   1.0400500e+02	   1.9512677e+00	   4.3705858e-01	
   1.0406000e+02	   2.0874773e+00	   4.9977778e-01	
   1.0411500e+02	   2.2398267e+00	   6.3350488e-01	
   1.0417000e+02	   2.8274783e+00	   7.0418423e-01	
   1.0422500e+02	   2.6253800e+00	   6.3657665e-01	
   1.0428000e+02	   2.3416867e+00	   7.4089123e-01	
   1.0433500e+02	   2.7979443e+00	   9.4571225e-01	
   1.0439000e+02	   2.3328289e+00	   7.1622162e-01	
   1.0444500e+02	   2.5273472e+00	   5.7155199e-01	
   1.0450000e+02	   2.0498249e+00	   5.5250063e-01	
   1.0455500e+02	   2.2447024e+00	   6.7355416e-01	
   1.0461000e+02	   2.1016085e+00	   5.3626241e-01	
   1.0466500e+02	   2.0616861e+00	   4.5693247e-01	
   1.0472000e+02	   2.0129434e+00	   3.8238791e-01	
   1.0477500e+02	   2.4150473e+00	   8.0746799e-01	
   1.0483000e+02	   2.6700521e+00	   8.4983375e-01	
   1.0488500e+02	   2.6996336e+00	   7.3635968e-01	
   1.0494000e+02	   2.5018808e+00	   6.4315275e-01	
   1.0499500e+02	   2.5984879e+00	   7.5875095e-01	
   1.0505000e+02	   2.5045489e+00	   8.1356793e-01	
   1.0510500e+02	   2.4846722e+00	   7.6288668e-01	
   1.0516000e+02	   1.8229136e+00	   4.0639662e-01	
   1.0521500e+02	   1.9477343e+00	   4.2717520e-01	
   1.0527000e+02	   2.0087866e+00	   5.1713703e-01	
   1.0532500e+02	   1.8459759e+00	   3.5761935e-01	
   1.0538000e+02	   2.2972542e+00	   4.5459759e-01	
   1.0543500e+02	   2.7451137e+00	   7.9852485e-01	
   1.0549000e+02	   2.7217405e+00	   8.5343230e-01	
   1.0554500e+02	   2.6309591e+00	   8.3522102e-01	
   1.0560000e+02	   2.4422310e+00	   7.0500631e-01	
   1.0565500e+02	   2.4350885e+00	   7.3531395e-01	
   1.0571000e+02	   2.2421395e+00	   7.8711066e-01	
   1.0576500e+02	   2.5844214e+00	   6.8581082e-01	
   1.0582000e+02	   2.1991562e+00	   6.3522527e-01	
   1.0587500e+02	   1.9874352e+00	   4.5834285e-01	
   1.0593000e+02	   2.0413403e+00	   5.2888507e-01	
   1.0598500e+02	   2.3032650e+00	   5.1975155e-01	
   1.0604000e+02	   2.4033384e+00	   6.3361999e-01	
   1.0609500e+02	   2.5957164e+00	   6.8000108e-01	
   1.0615000e+02	   2.8260412e+00	   7.9539615e-01	
   1.0620500e+02	   2.5664333e+00	   8.4417610e-01	
   1.0626000e+02	   2.8478909e+00	   9.9850220e-01	
   1.0631500e+02	   2.4861987e+00	   7.3009694e-01	
   1.0637000e+02	   2.4731641e+00	   7.4948854e-01	
   1.0642500e+02	   2.6567655e+00	   8.3795763e-01	
   1.0648000e+02	   2.3295126e+00	   5.5806881e-01	
   1.0653500e+02	   2.2818943e+00	   6.5420558e-01	
   1.0659000e+02	   2.1879132e+00	   6.3985828e-01	
   1.0664500e+02	   2.7002032e+00	   8.8852060e-01	
   1.0670000e+02	   2.9893810e+00	   8.9365176e-01	
   1.0675500e+02	   2.7578596e+00	   8.9769316e-01	
   1.0681000e+02	   2.9684058e+00	   1.0180691e+00	
   1.0686500e+02	   3.1772828e+00	   1.2196427e+00	
   1.0692000e+02	   2.9419031e+00	   9.1453191e-01	
   1.0697500e+02	   2.6594072e+00	   8.4255630e-01	
   1.0703000e+02	   2.8871898e+00	   9.2993726e-01	
   1.0708500e+02	   2.8275564e+00	   9.4641450e-01	
   1.0714000e+02	   2.4815831e+00	   6.6518195e-01	
   1.0719500e+02	   2.6181589e+00	   8.0592356e-01	
   1.0725000e+02	   2.3895424e+00	   7.4950025e-01	
   1.0730500e+02	   2.6991007e+00	   6.4726564e-01	
   1.0736000e+02	   2.9549447e+00	   8.7409388e-01	
   1.0741500e+02	   3.0212796e+00	   7.7876632e-01	
   1.0747000e+02	   3.1343722e+00	   9.5730518e-01	
   1.0752500e+02	   3.1741737e+00	   1.1555454e+00	
   1.0758000e+02	   3.0072871e+00	   9.2594588e-01	
   1.0763500e+02	   2.6942323e+00	   8.0648785e-01	
   1.0769000e+02	   2.8993096e+00	   8.4493125e-01	
   1.0774500e+02	   2.9934363e+00	   9.9770769e-01	
   1.0780000e+02	   2.6425783e+00	   7.3778499e-01	
   1.0785500e+02	   2.3880689e+00	   5.5666224e-01	
   1.0791000e+02	   2.4603611e+00	   5.4767576e-01	
   1.0796500e+02	   2.8444353e+00	   7.6829940e-01	
   1.0802000e+02	   3.0476693e+00	   8.2996783e-01	
   1.0807500e+02	   2.8570324e+00	   7.8925769e-01	
   1.0813000e+02	   3.1563999e+00	   9.3294371e-01	
   1.0818500e+02	   3.0174640e+00	   7.8334828e-01	
   1.0824000e+02	   3.0385452e+00	   8.4043677e-01	
   1.0829500e+02	   2.6479064e+00	   6.0896826e-01	
   1.0835000e+02	   2.8445005e+00	   7.4451503e-01	
   1.0840500e+02	   2.9690667e+00	   8.6495326e-01	
   1.0846000e+02	   2.6019420e+00	   6.0805761e-01	
   1.0851500e+02	   2.5891023e+00	   5.6717327e-01	
   1.0857000e+02	   2.4699384e+00	   4.8641365e-01	
   1.0862500e+02	   2.8738425e+00	   7.6004975e-01	
   1.0868000e+02	   3.2867872e+00	   7.9293905e-01	
   1.0873500e+02	   3.1754729e+00	   8.8968309e-01	
   1.0879000e+02	   3.0696977e+00	   6.4107881e-01	
   1.0884500e+02	   3.3914151e+00	   9.0878244e-01	
   1.0890000e+02	   3.2790138e+00	   9.2537607e-01	
   1.0895500e+02	   2.7946185e+00	   6.3315659e-01	
   1.0901000e+02	   2.6289081e+00	   4.8000632e-01	
   1.0906500e+02	   2.7939365e+00	   6.5227006e-01	
   1.0912000e+02	   2.7780680e+00	   6.6796634e-01	
   1.0917500e+02	   2.6398256e+00	   5.2348181e-01	
   1.0923000e+02	   2.8650127e+00	   6.2470351e-01	
   1.0928500e+02	   3.2792703e+00	   8.9016130e-01	
   1.0934000e+02	   3.3502731e+00	   8.3887767e-01	
   1.0939500e+02	   3.2740113e+00	   7.6182915e-01	
   1.0945000e+02	   3.0185756e+00	   7.9658355e-01	
   1.0950500e+02	   3.1431252e+00	   7.6549001e-01	
   1.0956000e+02	   3.2384597e+00	   8.5459570e-01	
   1.0961500e+02	   3.1184351e+00	   6.9115954e-01	
   1.0967000e+02	   2.8258732e+00	   7.0483585e-01	
   1.0972500e+02	   3.0826202e+00	   6.6599285e-01	
   1.0978000e+02	   2.8543635e+00	   5.0427535e-01	
   1.0983500e+02	   2.7191431e+00	   5.2650562e-01	
   1.0989000e+02	   3.0758171e+00	   6.2404312e-01	
   1.0994500e+02	   3.2857509e+00	   7.6395452e-01	
   1.1000000e+02	   3.6500705e+00	   9.6041638e-01	
   1.1005500e+02	   3.6078480e+00	   1.0091434e+00	
   1.1011000e+02	   3.2913742e+00	   8.3764954e-01	
   1.1016500e+02	   3.2488265e+00	   7.7920248e-01	
   1.1022000e+02	   3.6059634e+00	   9.0618958e-01	
   1.1027500e+02	   3.5668474e+00	   8.2845476e-01	
   1.1033000e+02	   3.0517878e+00	   6.1678976e-01	
   1.1038500e+02	   2.9487257e+00	   5.5605409e-01	
   1.1044000e+02	   2.8278605e+00	   5.8150120e-01	
   1.1049500e+02	   3.0120703e+00	   5.7183042e-01	
   1.1055000e+02	   3.4384096e+00	   7.6372283e-01	
   1.1060500e+02	   3.5792656e+00	   7.0896374e-01	
   1.1066000e+02	   3.9376081e+00	   9.3133393e-01	
   1.1071500e+02	   3.7610113e+00	   9.3317151e-01	
   1.1077000e+02	   3.8160483e+00	   9.5503683e-01	
   1.1082500e+02	   3.2347442e+00	   6.6495911e-01	
   1.1088000e+02	   3.4750020e+00	   8.4361218e-01	
   1.1093500e+02	   3.3112830e+00	   7.3585453e-01	
   1.1099000e+02	   3.1373708e+00	   4.3307129e-01	
   1.1104500e+02	   2.8329471e+00	   5.3566794e-01	
   1.1110000e+02	   3.3018090e+00	   5.8338606e-01	
   1.1115500e+02	   2.9347548e+00	   4.1951967e-01	
   1.1121000e+02	   3.3257942e+00	   4.8157799e-01	
   1.1126500e+02	   3.8261983e+00	   7.9043433e-01	
   1.1132000e+02	   3.7661167e+00	   7.8243288e-01	
   1.1137500e+02	   3.9085711e+00	   9.1505634e-01	
   1.1143000e+02	   3.5450083e+00	   7.4628312e-01	
   1.1148500e+02	   3.6173800e+00	   7.0239154e-01	
   1.1154000e+02	   3.5129141e+00	   7.8050533e-01	
   1.1159500e+02	   3.3491468e+00	   7.0799332e-01	
   1.1165000e+02	   3.2112840e+00	   5.1885930e-01	
   1.1170500e+02	   3.1977270e+00	   4.4065760e-01	
   1.1176000e+02	   3.1581596e+00	   4.2986713e-01	
   1.1181500e+02	   3.0904419e+00	   4.2801515e-01	
   1.1187000e+02	   3.4329713e+00	   5.4236110e-01	
   1.1192500e+02	   3.5856626e+00	   6.0674143e-01	
   1.1198000e+02	   3.4342273e+00	   5.1200285e-01	
   1.1203500e+02	   3.4442528e+00	   5.0049358e-01	
   1.1209000e+02	   3.7996017e+00	   6.9187340e-01	
   1.1214500e+02	   3.5006647e+00	   4.9144460e-01	
   1.1220000e+02	   3.4317629e+00	   5.6480922e-01	
   1.1225500e+02	   3.4840064e+00	   6.7277997e-01	
   1.1231000e+02	   3.4258720e+00	   6.2009455e-01	
   1.1236500e+02	   2.6672427e+00	   1.3198872e-01	
   1.1242000e+02	   2.8971182e+00	   2.1904780e-01	
   1.1247500e+02	   3.4920267e+00	   6.2566703e-01	
   1.1253000e+02	   3.5868698e+00	   6.7696518e-01	
   1.1258500e+02	   3.5724326e+00	   6.1069886e-01	
   1.1264000e+02	   3.2577006e+00	   5.6876568e-01	
   1.1269500e+02	   3.7188931e+00	   8.5221429e-01	
   1.1275000e+02	   3.2049284e+00	   4.9915252e-01	
   1.1280500e+02	   3.3749329e+00	   5.6757132e-01	
   1.1286000e+02	   2.9796553e+00	   3.2784835e-01	
   1.1291500e+02	   3.0326508e+00	   4.4914368e-01	
   1.1297000e+02	   3.1589280e+00	   3.7528279e-01	
   1.1302500e+02	   2.7575496e+00	   3.4236056e-01	
   1.1308000e+02	   3.3763344e+00	   5.0170065e-01	
   1.1313500e+02	   3.6118355e+00	   5.6271800e-01	
   1.1319000e+02	   3.7914982e+00	   6.8557098e-01	
   1.1324500e+02	   3.9053176e+00	   7.8207758e-01	
   1.1330000e+02	   3.6312010e+00	   6.7434739e-01	
   1.1335500e+02	   3.4717235e+00	   7.1669814e-01	
   1.1341000e+02	   3.5124387e+00	   7.4784648e-01	
   1.1346500e+02	   3.4493290e+00	   7.2204640e-01	
   1.1352000e+02	   3.4074105e+00	   5.8749925e-01	
   1.1357500e+02	   2.9088825e+00	   4.0478201e-01	
   1.1363000e+02	   2.8980176e+00	   4.7159197e-01	
   1.1368500e+02	   3.1816746e+00	   3.8623141e-01	
   1.1374000e+02	   3.3123336e+00	   5.0565544e-01	
   1.1379500e+02	   3.7022239e+00	   7.8515468e-01	
   1.1385000e+02	   3.4177215e+00	   7.4103488e-01	
   1.1390500e+02	   3.7945045e+00	   8.9826545e-01	
   1.1396000e+02	   3.7949513e+00	   7.6077041e-01	
   1.1401500e+02	   3.6331472e+00	   7.6261862e-01	
   1.1407000e+02	   3.8557749e+00	   9.0804200e-01	
   1.1412500e+02	   3.4876013e+00	   8.9639323e-01	
   1.1418000e+02	   3.4235812e+00	   7.2283287e-01	
   1.1423500e+02	   3.2297556e+00	   4.9487200e-01	
   1.1429000e+02	   3.5417833e+00	   7.0551360e-01	
   1.1434500e+02	   3.1954170e+00	   5.5007965e-01	
   1.1440000e+02	   3.4513011e+00	   4.6774659e-01	
   1.1445500e+02	   3.8348520e+00	   9.1743024e-01	
   1.1451000e+02	   3.9483017e+00	   9.4915274e-01	
   1.1456500e+02	   4.3061477e+00	   1.1517643e+00	
   1.1462000e+02	   3.8174137e+00	   9.0563184e-01	
   1.1467500e+02	   3.8725068e+00	   8.9485258e-01	
   1.1473000e+02	   3.6934351e+00	   9.5114960e-01	
   1.1478500e+02	   3.9436935e+00	   9.4485550e-01	
   1.1484000e+02	   3.6188059e+00	   7.7415432e-01	
   1.1489500e+02	   3.5689966e+00	   7.1101208e-01	
   1.1495000e+02	   3.3917369e+00	   6.6988625e-01	
   1.1500500e+02	   3.4219981e+00	   6.2590639e-01	
   1.1506000e+02	   3.3050410e+00	   5.6626490e-01	
   1.1511500e+02	   3.7902845e+00	   8.8596851e-01	
   1.1517000e+02	   3.8150046e+00	   1.0719716e+00	
   1.1522500e+02	   4.0594748e+00	   1.0926971e+00	
   1.1528000e+02	   3.7598456e+00	   1.1076794e+00	
   1.1533500e+02	   3.8914699e+00	   7.7742256e-01	
   1.1539000e+02	   3.9742919e+00	   9.1963754e-01	
   1.1544500e+02	   4.0367287e+00	   1.1475495e+00	
   1.1550000e+02	   3.7411053e+00	   9.2932759e-01	
   1.1555500e+02	   3.7562580e+00	   8.8163294e-01	
   1.1561000e+02	   3.6775060e+00	   9.0522125e-01	
   1.1566500e+02	   3.5902216e+00	   9.1388671e-01	
   1.1572000e+02	   3.6042517e+00	   8.1013258e-01	
   1.1577500e+02	   4.0175605e+00	   1.1368385e+00	
   1.1583000e+02	   4.2526051e+00	   9.7869920e-01	
   1.1588500e+02	   4.3295436e+00	   1.2597918e+00	
   1.1594000e+02	   4.4418476e+00	   1.2420706e+00	
   1.1599500e+02	   4.0174895e+00	   8.9979733e-01	
   1.1605000e+02	   3.9188857e+00	   1.0086265e+00	
   1.1610500e+02	   3.9727730e+00	   1.2626685e+00	
   1.1616000e+02	   3.9666556e+00	   1.1481543e+00	
   1.1621500e+02	   3.9884070e+00	   9.2838520e-01	
   1.1627000e+02	   3.6257497e+00	   8.6071459e-01	
   1.1632500e+02	   3.9556875e+00	   1.1048522e+00	
   1.1638000e+02	   4.0498873e+00	   1.2098952e+00	
   1.1643500e+02	   4.1087087e+00	   1.1112489e+00	
   1.1649000e+02	   4.2371086e+00	   1.1994963e+00	
   1.1654500e+02	   4.2109451e+00	   1.2203118e+00	
   1.1660000e+02	   4.0370288e+00	   1.0157498e+00	
   1.1665500e+02	   4.0981616e+00	   1.0214885e+00	
   1.1671000e+02	   3.9404406e+00	   1.0149142e+00	
   1.1676500e+02	   3.8953036e+00	   9.1035250e-01	
   1.1682000e+02	   3.8084545e+00	   9.8969954e-01	
   1.1687500e+02	   3.6238590e+00	   8.8620579e-01	
   1.1693000e+02	   3.5880409e+00	   8.4506072e-01	
   1.1698500e+02	   3.7735855e+00	   8.0204769e-01	
   1.1704000e+02	   4.0856527e+00	   1.1018556e+00	
   1.1709500e+02	   4.2341175e+00	   1.0434887e+00	
   1.1715000e+02	   3.7628472e+00	   1.0684975e+00	
   1.1720500e+02	   3.9831257e+00	   1.0144587e+00	
   1.1726000e+02	   3.8962840e+00	   1.0530951e+00	
   1.1731500e+02	   4.1239092e+00	   1.0071605e+00	
   1.1737000e+02	   3.4257717e+00	   8.1073422e-01	
   1.1742500e+02	   3.4676304e+00	   7.8119967e-01	
   1.1748000e+02	   3.4165761e+00	   7.1494101e-01	
   1.1753500e+02	   3.3901085e+00	   6.8899507e-01	
   1.1759000e+02	   3.7045598e+00	   9.9817823e-01	
   1.1764500e+02	   3.7393607e+00	   8.1539727e-01	
   1.1770000e+02	   3.8308306e+00	   1.1061803e+00	
   1.1775500e+02	   3.8535989e+00	   1.1473189e+00	
   1.1781000e+02	   3.4631888e+00	   7.9306315e-01	
   1.1786500e+02	   3.4782699e+00	   7.5758999e-01	
   1.1792000e+02	   3.3840300e+00	   8.6050642e-01	
   1.1797500e+02	   3.3223624e+00	   8.6362476e-01	
   1.1803000e+02	   2.8798735e+00	   5.2594862e-01	
   1.1808500e+02	   2.8428961e+00	   6.4949866e-01	
   1.1814000e+02	   3.2430944e+00	   8.7281312e-01	
   1.1819500e+02	   3.7045411e+00	   1.0045219e+00	
   1.1825000e+02	   3.5477623e+00	   8.3917431e-01	
   1.1830500e+02	   3.4970001e+00	   8.7754130e-01	
   1.1836000e+02	   3.6255580e+00	   1.0105613e+00	
   1.1841500e+02	   3.5577407e+00	   9.3020545e-01	
   1.1847000e+02	   3.1387324e+00	   6.9601910e-01	
   1.1852500e+02	   3.2280087e+00	   6.6467808e-01	
   1.1858000e+02	   3.2096844e+00	   7.3161518e-01	
   1.1863500e+02	   3.0591549e+00	   6.9032090e-01	
   1.1869000e+02	   3.1020104e+00	   4.9392475e-01	
   1.1874500e+02	   3.4869031e+00	   8.6821080e-01	
   1.1880000e+02	   3.5544598e+00	   1.0276957e+00	
   1.1885500e+02	   3.7634851e+00	   1.1897790e+00	
   1.1891000e+02	   3.4483018e+00	   8.9612924e-01	
   1.1896500e+02	   3.3159355e+00	   8.5176408e-01	
   1.1902000e+02	   3.3532639e+00	   8.9560858e-01	
   1.1907500e+02	   3.4313460e+00	   9.4903487e-01	
   1.1913000e+02	   3.0148123e+00	   8.2668300e-01	
   1.1918500e+02	   2.7246733e+00	   5.8281479e-01	
   1.1924000e+02	   2.7020727e+00	   5.1307873e-01	
   1.1929500e+02	   3.2679511e+00	   7.7805533e-01	
   1.1935000e+02	   3.3866676e+00	   9.1619956e-01	
   1.1940500e+02	   3.4540548e+00	   8.0459153e-01	
   1.1946000e+02	   3.7532776e+00	   1.0973692e+00	
   1.1951500e+02	   3.7592550e+00	   1.1667272e+00	
   1.1957000e+02	   3.7126620e+00	   1.1518314e+00	
   1.1962500e+02	   3.1166768e+00	   8.0240878e-01	
   1.1968000e+02	   3.3906091e+00	   8.9634695e-01	
   1.1973500e+02	   2.9840278e+00	   8.6674061e-01	
   1.1979000e+02	   3.1227898e+00	   8.0442211e-01	
   1.1984500e+02	   2.8986846e+00	   8.3574185e-01	
   1.1990000e+02	   3.3789271e+00	   9.5709740e-01	
   1.1995500e+02	   3.5764008e+00	   1.1429931e+00	
   1.2001000e+02	   3.4711907e+00	   1.3082599e+00	
   1.2006500e+02	   3.5342801e+00	   1.0590016e+00	
   1.2012000e+02	   3.5659172e+00	   1.0601220e+00	
   1.2017500e+02	   3.5805738e+00	   1.2034170e+00	
   1.2023000e+02	   3.4083564e+00	   1.2683301e+00	
   1.2028500e+02	   3.4079169e+00	   1.0523024e+00	
   1.2034000e+02	   3.2111980e+00	   9.2586127e-01	
   1.2039500e+02	   2.9126542e+00	   9.2944093e-01	
   1.2045000e+02	   3.0627284e+00	   1.0532664e+00	
   1.2050500e+02	   3.5277685e+00	   1.0600336e+00	
   1.2056000e+02	   3.5563178e+00	   1.0663948e+00	
   1.2061500e+02	   3.7167443e+00	   1.1936011e+00	
   1.2067000e+02	   3.6583667e+00	   1.2558469e+00	
   1.2072500e+02	   3.5532299e+00	   1.1233172e+00	
   1.2078000e+02	   3.5235136e+00	   1.2657794e+00	
   1.2083500e+02	   3.4954008e+00	   1.2615171e+00	
   1.2089000e+02	   3.6398735e+00	   1.1637478e+00	
   1.2094500e+02	   3.5092576e+00	   1.1213734e+00	
   1.2100000e+02	   3.3864868e+00	   1.0965660e+00	
   1.2105500e+02	   3.3775886e+00	   9.2130983e-01	
   1.2111000e+02	   3.7603857e+00	   1.3684509e+00	
   1.2116500e+02	   4.1520181e+00	   1.5570276e+00	
   1.2122000e+02	   3.8164230e+00	   1.2279354e+00	
   1.2127500e+02	   3.5935801e+00	   1.1086463e+00	
   1.2133000e+02	   3.9366989e+00	   1.3116709e+00	
   1.2138500e+02	   3.7469297e+00	   1.3453013e+00	
   1.2144000e+02	   3.2692106e+00	   1.1548641e+00	
   1.2149500e+02	   3.7679083e+00	   1.0450131e+00	
   1.2155000e+02	   3.5742641e+00	   1.1960545e+00	
   1.2160500e+02	   3.5742218e+00	   1.0174429e+00	
   1.2166000e+02	   3.4932872e+00	   1.0117994e+00	
   1.2171500e+02	   3.8454375e+00	   1.1274666e+00	
   1.2177000e+02	   4.0627324e+00	   1.4399877e+00	
   1.2182500e+02	   4.1404001e+00	   1.4577044e+00	
   1.2188000e+02	   3.8488722e+00	   1.2476158e+00	
   1.2193500e+02	   4.0118230e+00	   1.2283462e+00	
   1.2199000e+02	   4.0344665e+00	   1.5005444e+00	
   1.2204500e+02	   3.8904423e+00	   1.3192427e+00	
   1.2210000e+02	   3.8500997e+00	   1.2067638e+00	
   1.2215500e+02	   3.4886387e+00	   1.1974540e+00	
   1.2221000e+02	   3.6329683e+00	   9.9503683e-01	
   1.2226500e+02	   3.4946468e+00	   9.9643050e-01	
   1.2232000e+02	   3.8991776e+00	   1.2700377e+00	
   1.2237500e+02	   4.2478317e+00	   1.2811251e+00	
   1.2243000e+02	   4.0546070e+00	   1.4715831e+00	
   1.2248500e+02	   4.3538263e+00	   1.5966541e+00	
   1.2254000e+02	   4.4729527e+00	   1.4651995e+00	
   1.2259500e+02	   4.0949276e+00	   1.4524648e+00	
   1.2265000e+02	   3.9721003e+00	   1.2960300e+00	
   1.2270500e+02	   3.9995920e+00	   1.3422606e+00	
   1.2276000e+02	   3.8182986e+00	   1.2734161e+00	
   1.2281500e+02	   3.8586407e+00	   1.1568242e+00	
   1.2287000e+02	   4.0215813e+00	   1.1863883e+00	
   1.2292500e+02	   3.5511321e+00	   1.1945994e+00	
   1.2298000e+02	   4.3088057e+00	   1.4969812e+00	
   1.2303500e+02	   3.9529438e+00	   1.2411828e+00	
   1.2309000e+02	   4.3510811e+00	   1.4817177e+00	
   1.2314500e+02	   4.5870488e+00	   1.6465561e+00	
   1.2320000e+02	   4.2997298e+00	   1.5596312e+00	
   1.2325500e+02	   3.9444344e+00	   1.4335203e+00	
   1.2331000e+02	   4.4076499e+00	   1.4505350e+00	
   1.2336500e+02	   4.2835791e+00	   1.5733021e+00	
   1.2342000e+02	   3.9684323e+00	   1.3903882e+00	
   1.2347500e+02	   3.9832164e+00	   1.2352956e+00	
   1.2353000e+02	   3.7788599e+00	   1.1390195e+00	
   1.2358500e+02	   3.9683387e+00	   1.2107649e+00	
   1.2364000e+02	   3.9612657e+00	   1.1570547e+00	
   1.2369500e+02	   3.9133453e+00	   1.1909647e+00	
   1.2375000e+02	   4.1899153e+00	   1.4678596e+00	
   1.2380500e+02	   4.1968627e+00	   1.5350958e+00	
   1.2386000e+02	   4.2677859e+00	   1.4687936e+00	
   1.2391500e+02	   4.2995991e+00	   1.4190849e+00	
   1.2397000e+02	   4.1034405e+00	   1.4244130e+00	
   1.2402500e+02	   3.8332930e+00	   1.3773196e+00	
   1.2408000e+02	   4.1336588e+00	   1.4901775e+00	
   1.2413500e+02	   3.7467464e+00	   1.1505247e+00	
   1.2419000e+02	   3.7916690e+00	   1.1582028e+00	
   1.2424500e+02	   3.5392606e+00	   1.0541140e+00	
   1.2430000e+02	   4.0140198e+00	   1.1365863e+00	
   1.2435500e+02	   4.1793175e+00	   1.2847995e+00	
   1.2441000e+02	   4.3527412e+00	   1.3567428e+00	
   1.2446500e+02	   4.1337885e+00	   1.3532878e+00	
   1.2452000e+02	   4.2767428e+00	   1.4360602e+00	
   1.2457500e+02	   4.0765592e+00	   1.3595735e+00	
   1.2463000e+02	   3.9675917e+00	   1.3320305e+00	
   1.2468500e+02	   3.7459647e+00	   1.1136979e+00	
   1.2474000e+02	   3.7977438e+00	   1.2830146e+00	
   1.2479500e+02	   3.8034232e+00	   1.2122170e+00	
   1.2485000e+02	   3.6984978e+00	   1.0294011e+00	
   1.2490500e+02	   3.0339963e+00	   8.2126778e-01	
   1.2496000e+02	   3.9438601e+00	   1.1993573e+00	
   1.2501500e+02	   4.2013395e+00	   1.4214956e+00	
   1.2507000e+02	   4.0346584e+00	   1.2309434e+00	
   1.2512500e+02	   3.9652618e+00	   1.2392935e+00	
   1.2518000e+02	   4.1670788e+00	   1.4806903e+00	
   1.2523500e+02	   3.8639857e+00	   1.2683010e+00	
   1.2529000e+02	   3.7643737e+00	   1.0824385e+00	
   1.2534500e+02	   3.6718930e+00	   1.1351764e+00	
   1.2540000e+02	   3.5126175e+00	   1.2667539e+00	
   1.2545500e+02	   3.5127072e+00	   1.0660324e+00	
   1.2551000e+02	   3.4258943e+00	   8.8908572e-01	
   1.2556500e+02	   3.4765143e+00	   1.0532566e+00	
   1.2562000e+02	   3.9142964e+00	   1.2163876e+00	
   1.2567500e+02	   4.1666957e+00	   1.2758182e+00	
   1.2573000e+02	   4.1435895e+00	   1.2926643e+00	
   1.2578500e+02	   3.8328180e+00	   1.2878164e+00	
   1.2584000e+02	   3.8524123e+00	   1.2509742e+00	
   1.2589500e+02	   3.9375288e+00	   1.3378882e+00	
   1.2595000e+02	   3.6355913e+00	   1.2737642e+00	
   1.2600500e+02	   3.3994500e+00	   1.0490527e+00	
   1.2606000e+02	   3.4018302e+00	   9.7806184e-01	
   1.2611500e+02	   3.3771754e+00	   1.1128288e+00	
   1.2617000e+02	   3.1618190e+00	   8.5337722e-01	
   1.2622500e+02	   3.2268548e+00	   9.4274870e-01	
   1.2628000e+02	   3.8845136e+00	   1.3453471e+00	
   1.2633500e+02	   3.7940170e+00	   1.4743577e+00	
   1.2639000e+02	   4.1666585e+00	   1.4462408e+00	
   1.2644500e+02	   4.0480517e+00	   1.4201717e+00	
   1.2650000e+02	   3.8324828e+00	   1.4057270e+00	
   1.2655500e+02	   4.0085099e+00	   1.4264375e+00	
   1.2661000e+02	   3.5872972e+00	   1.2291996e+00	
   1.2666500e+02	   3.6990328e+00	   1.1430359e+00	
   1.2672000e+02	   3.5613408e+00	   1.1468736e+00	
   1.2677500e+02	   3.1378843e+00	   1.1173322e+00	
   1.2683000e+02	   3.0571811e+00	   8.6627102e-01	
