
0   3   6	
   0.0000000e+00	   2.7588820e+00	   1.4098273e+00	
   5.5000000e-02	   2.7043668e+00	   1.4311098e+00	
   1.1000000e-01	   2.6132530e+00	   1.1709378e+00	
   1.6500000e-01	   2.5635127e+00	   1.2073002e+00	
   2.2000000e-01	   2.6159487e+00	   1.1906911e+00	
   2.7500000e-01	   2.4725335e+00	   9.5804208e-01	
   3.3000000e-01	   2.3815281e+00	   7.4270955e-01	
   3.8500000e-01	   2.8589968e+00	   1.4335598e+00	
   4.4000000e-01	   3.1813685e+00	   1.4947532e+00	
   4.9500000e-01	   2.9648466e+00	   1.6220653e+00	
   5.5000000e-01	   2.8622305e+00	   1.3510500e+00	
   6.0500000e-01	   2.7552799e+00	   1.1534784e+00	
   6.6000000e-01	   2.8260661e+00	   1.3463935e+00	
   7.1500000e-01	   2.7818581e+00	   1.4382172e+00	
   7.7000000e-01	   2.9571562e+00	   1.0103123e+00	
   8.2500000e-01	   2.6605909e+00	   1.1509792e+00	
   8.8000000e-01	   2.6645863e+00	   1.1179547e+00	
   9.3500000e-01	   2.7928765e+00	   1.1824670e+00	
   9.9000000e-01	   3.1043410e+00	   1.2855656e+00	
   1.0450000e+00	   3.0405551e+00	   1.4182173e+00	
   1.1000000e+00	   3.3550593e+00	   1.5668494e+00	
   1.1550000e+00	   3.5850229e+00	   1.5698093e+00	
   1.2100000e+00	   3.2604927e+00	   1.5257804e+00	
   1.2650000e+00	   3.2018485e+00	   1.4404755e+00	
   1.3200000e+00	   3.3378604e+00	   1.5275635e+00	
   1.3750000e+00	   3.5070947e+00	   1.4376296e+00	
   1.4300000e+00	   3.0240965e+00	   1.4586605e+00	
   1.4850000e+00	   2.6709860e+00	   1.1607428e+00	
   1.5400000e+00	   2.3757398e+00	   1.0303747e+00	
   1.5950000e+00	   2.8434242e+00	   1.2343376e+00	
   1.6500000e+00	   3.5838829e+00	   1.4040198e+00	
   1.7050000e+00	   3.8346248e+00	   1.5224405e+00	
   1.7600000e+00	   3.9920298e+00	   1.4343232e+00	
   1.8150000e+00	   3.3101390e+00	   1.7269045e+00	
   1.8700000e+00	   3.5821460e+00	   1.3541117e+00	
   1.9250000e+00	   3.6238184e+00	   1.6114226e+00	
   1.9800000e+00	   3.2832417e+00	   1.1568791e+00	
   2.0350000e+00	   3.2544443e+00	   1.2144203e+00	
   2.0900000e+00	   3.1499111e+00	   1.1268840e+00	
   2.1450000e+00	   2.8262906e+00	   1.2581728e+00	
   2.2000000e+00	   2.7478319e+00	   9.6166966e-01	
   2.2550000e+00	   3.1187409e+00	   1.1827729e+00	
   2.3100000e+00	   3.4070216e+00	   1.4325586e+00	
   2.3650000e+00	   3.8212771e+00	   1.2346635e+00	
   2.4200000e+00	   4.0751484e+00	   1.4210883e+00	
   2.4750000e+00	   3.8432778e+00	   1.6853861e+00	
   2.5300000e+00	   3.7240480e+00	   1.6595101e+00	
   2.5850000e+00	   3.5684046e+00	   1.3709354e+00	
   2.6400000e+00	   3.2420976e+00	   1.2840910e+00	
   2.6950000e+00	   3.4559323e+00	   1.5263797e+00	
   2.7500000e+00	   3.7081926e+00	   1.3451679e+00	
   2.8050000e+00	   3.0017490e+00	   8.6347691e-01	
   2.8600000e+00	   2.4775199e+00	   1.1193558e+00	
   2.9150000e+00	   3.0938186e+00	   1.3927129e+00	
   2.9700000e+00	   4.3907532e+00	   1.7382533e+00	
   3.0250000e+00	   3.4693299e+00	   1.4458921e+00	
   3.0800000e+00	   3.4118852e+00	   1.4529390e+00	
   3.1350000e+00	   3.0252330e+00	   1.5321897e+00	
   3.1900000e+00	   3.8010362e+00	   1.5571006e+00	
   3.2450000e+00	   3.2990815e+00	   1.4946782e+00	
   3.3000000e+00	   3.1353567e+00	   1.2061962e+00	
   3.3550000e+00	   3.1626791e+00	   1.2039221e+00	
   3.4100000e+00	   3.0699314e+00	   1.1379614e+00	
   3.4650000e+00	   3.0812522e+00	   1.2422673e+00	
   3.5200000e+00	   3.4365484e+00	   1.4497320e+00	
   3.5750000e+00	   3.2283580e+00	   1.6420976e+00	
   3.6300000e+00	   4.0684855e+00	   1.6595101e+00	
   3.6850000e+00	   4.0880153e+00	   1.3811292e+00	
   3.7400000e+00	   3.5555560e+00	   1.3732436e+00	
   3.7950000e+00	   3.2716571e+00	   1.1848464e+00	
   3.8500000e+00	   3.0605733e+00	   1.4075711e+00	
   3.9050000e+00	   3.4766926e+00	   1.2939467e+00	
   3.9600000e+00	   3.0130589e+00	   1.1736843e+00	
   4.0150000e+00	   2.6345583e+00	   8.4247885e-01	
   4.0700000e+00	   2.9234448e+00	   1.0237061e+00	
   4.1250000e+00	   3.3320144e+00	   1.2860449e+00	
   4.1800000e+00	   3.4523688e+00	   1.2348557e+00	
   4.2350000e+00	   3.5209322e+00	   1.6469062e+00	
   4.2900000e+00	   3.2551728e+00	   1.5118270e+00	
   4.3450000e+00	   3.1726465e+00	   1.1886392e+00	
   4.4000000e+00	   2.8746197e+00	   1.1082468e+00	
   4.4550000e+00	   3.0505727e+00	   1.1148812e+00	
   4.5100000e+00	   3.3153175e+00	   9.7979935e-01	
   4.5650000e+00	   3.1578518e+00	   1.0288595e+00	
   4.6200000e+00	   2.3740536e+00	   6.5738507e-01	
   4.6750000e+00	   3.0951774e+00	   1.1115557e+00	
   4.7300000e+00	   3.6847644e+00	   1.3220142e+00	
   4.7850000e+00	   3.7071296e+00	   1.3831834e+00	
   4.8400000e+00	   3.1333064e+00	   1.1333517e+00	
   4.8950000e+00	   2.8029926e+00	   1.0566572e+00	
   4.9500000e+00	   3.4133824e+00	   1.2721672e+00	
   5.0050000e+00	   2.6934707e+00	   1.3549684e+00	
   5.0600000e+00	   2.8142436e+00	   8.3583994e-01	
   5.1150000e+00	   2.0795164e+00	   8.5602704e-01	
   5.1700000e+00	   2.3908646e+00	   5.5491323e-01	
   5.2250000e+00	   2.9328059e+00	   8.7987567e-01	
   5.2800000e+00	   2.8099460e+00	   1.3165922e+00	
   5.3350000e+00	   2.7014625e+00	   1.2333461e+00	
   5.3900000e+00	   2.7430988e+00	   9.7437365e-01	
   5.4450000e+00	   3.3049087e+00	   1.0397674e+00	
   5.5000000e+00	   2.9255630e+00	   1.0743515e+00	
   5.5550000e+00	   2.9914366e+00	   1.1792724e+00	
   5.6100000e+00	   2.6941176e+00	   1.1243906e+00	
   5.6650000e+00	   2.5316251e+00	   1.0932549e+00	
   5.7200000e+00	   3.0352545e+00	   9.2604284e-01	
   5.7750000e+00	   2.6750308e+00	   7.7461800e-01	
   5.8300000e+00	   2.5884707e+00	   7.4042496e-01	
   5.8850000e+00	   3.0524635e+00	   1.1979075e+00	
   5.9400000e+00	   3.6974483e+00	   1.2042506e+00	
   5.9950000e+00	   3.5794840e+00	   1.3150847e+00	
   6.0500000e+00	   3.2169203e+00	   1.0993745e+00	
   6.1050000e+00	   3.2137845e+00	   1.3327020e+00	
   6.1600000e+00	   3.2142537e+00	   1.1821652e+00	
   6.2150000e+00	   3.3374534e+00	   1.0755653e+00	
   6.2700000e+00	   2.9727686e+00	   7.9632896e-01	
   6.3250000e+00	   3.4383825e+00	   1.0494318e+00	
   6.3800000e+00	   3.3130498e+00	   8.6852441e-01	
   6.4350000e+00	   3.4758721e+00	   1.0277015e+00	
   6.4900000e+00	   3.1992835e+00	   1.1831388e+00	
   6.5450000e+00	   3.2119275e+00	   1.2856136e+00	
   6.6000000e+00	   3.3789294e+00	   1.2029368e+00	
   6.6550000e+00	   3.5202756e+00	   1.2096765e+00	
   6.7100000e+00	   3.1361497e+00	   1.1725703e+00	
   6.7650000e+00	   3.6977473e+00	   1.3125723e+00	
   6.8200000e+00	   3.1164573e+00	   1.2532607e+00	
   6.8750000e+00	   3.2896230e+00	   1.1755884e+00	
   6.9300000e+00	   3.0430111e+00	   9.5374447e-01	
   6.9850000e+00	   2.9045312e+00	   7.2078363e-01	
   7.0400000e+00	   3.2698477e+00	   9.0493438e-01	
   7.0950000e+00	   3.8329561e+00	   1.3245902e+00	
   7.1500000e+00	   3.5202499e+00	   1.0733091e+00	
   7.2050000e+00	   3.5055029e+00	   1.4025772e+00	
   7.2600000e+00	   3.7186491e+00	   1.3863095e+00	
   7.3150000e+00	   3.7360592e+00	   1.3785688e+00	
   7.3700000e+00	   3.3352074e+00	   1.0675672e+00	
   7.4250000e+00	   3.2757702e+00	   1.2996200e+00	
   7.4800000e+00	   3.6722193e+00	   1.2668678e+00	
   7.5350000e+00	   3.3551449e+00	   1.0695519e+00	
   7.5900000e+00	   3.4478137e+00	   8.8575570e-01	
   7.6450000e+00	   3.1974677e+00	   7.0405796e-01	
   7.7000000e+00	   2.8613245e+00	   8.9966261e-01	
   7.7550000e+00	   3.1639458e+00	   1.2415721e+00	
   7.8100000e+00	   3.2582346e+00	   1.2239171e+00	
   7.8650000e+00	   3.6850712e+00	   1.3467622e+00	
   7.9200000e+00	   3.6744530e+00	   1.3177577e+00	
   7.9750000e+00	   3.4786570e+00	   1.2794137e+00	
   8.0300000e+00	   3.6036557e+00	   1.0791641e+00	
   8.0850000e+00	   3.3149049e+00	   1.1018120e+00	
   8.1400000e+00	   3.4961916e+00	   1.1366919e+00	
   8.1950000e+00	   3.2285047e+00	   1.2018003e+00	
   8.2500000e+00	   2.9062109e+00	   7.4508341e-01	
   8.3050000e+00	   2.6559705e+00	   6.4866449e-01	
   8.3600000e+00	   3.2704799e+00	   9.3272593e-01	
   8.4150000e+00	   3.3834608e+00	   1.3370686e+00	
   8.4700000e+00	   3.2628546e+00	   1.3040356e+00	
   8.5250000e+00	   3.2311082e+00	   1.1983348e+00	
   8.5800000e+00	   3.1521246e+00	   1.1084289e+00	
   8.6350000e+00	   3.1282263e+00	   1.2324981e+00	
   8.6900000e+00	   3.1481773e+00	   1.2212753e+00	
   8.7450000e+00	   3.7321104e+00	   8.9876701e-01	
   8.8000000e+00	   2.8048441e+00	   1.0519140e+00	
   8.8550000e+00	   2.9422764e+00	   8.7922853e-01	
   8.9100000e+00	   3.1481490e+00	   8.6053750e-01	
   8.9650000e+00	   3.0615295e+00	   8.8906888e-01	
   9.0200000e+00	   2.8552468e+00	   1.0189855e+00	
   9.0750000e+00	   3.8998633e+00	   1.1952483e+00	
   9.1300000e+00	   3.5688591e+00	   1.3469659e+00	
   9.1850000e+00	   2.9639773e+00	   1.1386149e+00	
   9.2400000e+00	   3.3919181e+00	   9.5749237e-01	
   9.2950000e+00	   3.1777026e+00	   1.1048394e+00	
   9.3500000e+00	   3.6384575e+00	   1.0789020e+00	
   9.4050000e+00	   2.8217561e+00	   1.0668519e+00	
   9.4600000e+00	   3.5087380e+00	   8.1210905e-01	
   9.5150000e+00	   2.8818880e+00	   8.8292858e-01	
   9.5700000e+00	   2.7816457e+00	   1.1136554e+00	
   9.6250000e+00	   3.4263642e+00	   1.1165551e+00	
   9.6800000e+00	   3.0529752e+00	   1.1185405e+00	
   9.7350000e+00	   3.7402999e+00	   1.1755828e+00	
   9.7900000e+00	   3.6425680e+00	   1.3429331e+00	
   9.8450000e+00	   3.2302121e+00	   1.3157828e+00	
   9.9000000e+00	   3.1775480e+00	   1.1522214e+00	
   9.9550000e+00	   3.5519288e+00	   1.2200909e+00	
   1.0010000e+01	   2.9707567e+00	   9.4813677e-01	
   1.0065000e+01	   3.7858517e+00	   8.9216852e-01	
   1.0120000e+01	   2.7915643e+00	   7.1949102e-01	
   1.0175000e+01	   2.5626988e+00	   9.0510660e-01	
   1.0230000e+01	   2.7728373e+00	   7.8971258e-01	
   1.0285000e+01	   3.5152671e+00	   1.1282681e+00	
   1.0340000e+01	   3.5285308e+00	   1.2848095e+00	
   1.0395000e+01	   3.2761570e+00	   1.0824383e+00	
   1.0450000e+01	   3.5812389e+00	   1.1867265e+00	
   1.0505000e+01	   3.3946089e+00	   1.2045513e+00	
   1.0560000e+01	   2.8245031e+00	   1.0640988e+00	
   1.0615000e+01	   3.0030547e+00	   1.0373542e+00	
   1.0670000e+01	   3.4640858e+00	   1.2339842e+00	
   1.0725000e+01	   3.5759586e+00	   8.8966122e-01	
   1.0780000e+01	   2.7881865e+00	   7.8719110e-01	
   1.0835000e+01	   2.4438775e+00	   6.2637156e-01	
   1.0890000e+01	   2.3704961e+00	   7.1093816e-01	
   1.0945000e+01	   3.5200476e+00	   1.1853492e+00	
   1.1000000e+01	   3.7434935e+00	   1.0752694e+00	
   1.1055000e+01	   3.5719893e+00	   1.0883868e+00	
   1.1110000e+01	   3.3509280e+00	   1.1227399e+00	
   1.1165000e+01	   2.9196739e+00	   1.1299467e+00	
   1.1220000e+01	   2.9610905e+00	   1.0866729e+00	
   1.1275000e+01	   3.3039146e+00	   7.1869912e-01	
   1.1330000e+01	   3.1729558e+00	   9.9102840e-01	
   1.1385000e+01	   3.0143786e+00	   8.9918308e-01	
   1.1440000e+01	   2.8913888e+00	   8.0432961e-01	
   1.1495000e+01	   2.3985129e+00	   6.8354755e-01	
   1.1550000e+01	   2.7590775e+00	   4.7421379e-01	
   1.1605000e+01	   2.7207157e+00	   8.7902266e-01	
   1.1660000e+01	   3.3200057e+00	   9.5567281e-01	
   1.1715000e+01	   2.8257989e+00	   1.0123509e+00	
   1.1770000e+01	   3.7164499e+00	   1.4038249e+00	
   1.1825000e+01	   3.2358272e+00	   9.6641658e-01	
   1.1880000e+01	   3.0973955e+00	   1.0729129e+00	
   1.1935000e+01	   2.9336595e+00	   8.5198154e-01	
   1.1990000e+01	   3.2165830e+00	   9.8095628e-01	
   1.2045000e+01	   2.5255792e+00	   9.9404675e-01	
   1.2100000e+01	   2.5880600e+00	   7.5844252e-01	
   1.2155000e+01	   2.4593215e+00	   6.5120978e-01	
   1.2210000e+01	   2.0912977e+00	   2.4000551e-01	
   1.2265000e+01	   2.2093260e+00	   4.2838820e-01	
   1.2320000e+01	   2.9598760e+00	   9.8281290e-01	
   1.2375000e+01	   3.2553260e+00	   8.8780675e-01	
   1.2430000e+01	   2.9392691e+00	   8.4014701e-01	
   1.2485000e+01	   3.2323574e+00	   9.6042562e-01	
   1.2540000e+01	   3.3037369e+00	   9.8224006e-01	
   1.2595000e+01	   2.3671504e+00	   8.5944986e-01	
   1.2650000e+01	   2.0953677e+00	   6.6107289e-01	
   1.2705000e+01	   2.7320620e+00	   8.1030926e-01	
   1.2760000e+01	   2.6161004e+00	   8.6543987e-01	
   1.2815000e+01	   2.2550204e+00	   4.2625624e-01	
   1.2870000e+01	   2.0964349e+00	   3.3376813e-01	
   1.2925000e+01	   2.5638600e+00	   8.9468074e-01	
   1.2980000e+01	   2.6388542e+00	   7.5090064e-01	
   1.3035000e+01	   2.7153528e+00	   8.0960648e-01	
   1.3090000e+01	   2.2714945e+00	   7.6777228e-01	
   1.3145000e+01	   2.5058603e+00	   6.9711382e-01	
   1.3200000e+01	   3.2327367e+00	   9.5052123e-01	
   1.3255000e+01	   2.6000263e+00	   7.9875438e-01	
   1.3310000e+01	   2.4433237e+00	   7.0719431e-01	
   1.3365000e+01	   2.7598806e+00	   5.7769161e-01	
   1.3420000e+01	   2.1423998e+00	   3.1472012e-01	
   1.3475000e+01	   2.2132858e+00	   4.5894803e-01	
   1.3530000e+01	   2.3757385e+00	   6.9141606e-01	
   1.3585000e+01	   2.7673193e+00	   6.7979903e-01	
   1.3640000e+01	   3.0309151e+00	   9.7856631e-01	
   1.3695000e+01	   3.3414758e+00	   1.0819931e+00	
   1.3750000e+01	   2.3871098e+00	   8.7873106e-01	
   1.3805000e+01	   2.2608014e+00	   7.3471758e-01	
   1.3860000e+01	   2.8771918e+00	   1.1124671e+00	
   1.3915000e+01	   2.8722320e+00	   9.6333965e-01	
   1.3970000e+01	   2.6723903e+00	   7.9151309e-01	
   1.4025000e+01	   2.6762187e+00	   6.1718915e-01	
   1.4080000e+01	   2.0874334e+00	   6.6647813e-01	
   1.4135000e+01	   3.0752573e+00	   7.4785446e-01	
   1.4190000e+01	   3.3278951e+00	   9.6321661e-01	
   1.4245000e+01	   2.9159836e+00	   1.0518209e+00	
   1.4300000e+01	   3.3043705e+00	   1.1922139e+00	
   1.4355000e+01	   3.7757690e+00	   1.0480671e+00	
   1.4410000e+01	   2.9934932e+00	   1.0679110e+00	
   1.4465000e+01	   3.1213157e+00	   1.0522003e+00	
   1.4520000e+01	   3.1405626e+00	   1.2904474e+00	
   1.4575000e+01	   3.0538060e+00	   1.0516169e+00	
   1.4630000e+01	   2.6675780e+00	   7.5431787e-01	
   1.4685000e+01	   2.1675930e+00	   8.1717325e-01	
   1.4740000e+01	   2.4043401e+00	   7.7236004e-01	
   1.4795000e+01	   2.5782664e+00	   1.1830197e+00	
   1.4850000e+01	   3.3189628e+00	   1.0023672e+00	
   1.4905000e+01	   3.1216414e+00	   1.3411191e+00	
   1.4960000e+01	   3.4157297e+00	   1.3835923e+00	
   1.5015000e+01	   3.2521760e+00	   1.3739922e+00	
   1.5070000e+01	   3.2376823e+00	   1.4976290e+00	
   1.5125000e+01	   3.1467505e+00	   1.0528021e+00	
   1.5180000e+01	   3.4045700e+00	   1.4035442e+00	
   1.5235000e+01	   3.8593284e+00	   1.1216971e+00	
   1.5290000e+01	   3.1885720e+00	   1.1447922e+00	
   1.5345000e+01	   2.8137479e+00	   9.8990288e-01	
   1.5400000e+01	   2.9811550e+00	   1.0839457e+00	
   1.5455000e+01	   2.1693368e+00	   9.6668229e-01	
   1.5510000e+01	   3.0171840e+00	   1.1514378e+00	
   1.5565000e+01	   3.0783627e+00	   1.2526273e+00	
   1.5620000e+01	   3.0670553e+00	   1.2468721e+00	
   1.5675000e+01	   3.2265049e+00	   1.4458921e+00	
   1.5730000e+01	   3.4004478e+00	   1.4447793e+00	
   1.5785000e+01	   3.0719609e+00	   1.3456655e+00	
   1.5840000e+01	   2.8346656e+00	   1.2768469e+00	
   1.5895000e+01	   3.3230111e+00	   1.3444182e+00	
   1.5950000e+01	   3.5347886e+00	   1.3657511e+00	
   1.6005000e+01	   3.1182020e+00	   1.1609562e+00	
   1.6060000e+01	   2.7491813e+00	   9.2172315e-01	
   1.6115000e+01	   2.4757610e+00	   1.1794695e+00	
   1.6170000e+01	   2.4006642e+00	   9.8127021e-01	
   1.6225000e+01	   2.7697442e+00	   1.1513574e+00	
   1.6280000e+01	   2.6906118e+00	   1.2789738e+00	
   1.6335000e+01	   3.0355605e+00	   1.5760430e+00	
   1.6390000e+01	   3.0954094e+00	   1.4373523e+00	
   1.6445000e+01	   3.1530864e+00	   1.3772813e+00	
   1.6500000e+01	   3.0739742e+00	   1.1802696e+00	
   1.6555000e+01	   2.7347265e+00	   1.3242506e+00	
   1.6610000e+01	   3.3002055e+00	   1.2995749e+00	
   1.6665000e+01	   2.3981561e+00	   1.1028932e+00	
   1.6720000e+01	   2.5128458e+00	   9.6519675e-01	
   1.6775000e+01	   3.0165819e+00	   1.1380215e+00	
   1.6830000e+01	   2.2277898e+00	   8.7035626e-01	
   1.6885000e+01	   2.3964500e+00	   1.0090662e+00	
   1.6940000e+01	   2.5012177e+00	   9.5953960e-01	
   1.6995000e+01	   2.7410148e+00	   1.1195956e+00	
   1.7050000e+01	   3.3416752e+00	   1.5100826e+00	
   1.7105000e+01	   2.7986305e+00	   1.1766138e+00	
   1.7160000e+01	   2.4185840e+00	   1.1603373e+00	
   1.7215000e+01	   3.0782999e+00	   1.1438449e+00	
   1.7270000e+01	   2.9280122e+00	   1.0498851e+00	
   1.7325000e+01	   2.9206522e+00	   1.1079849e+00	
   1.7380000e+01	   3.0229779e+00	   1.1845607e+00	
   1.7435000e+01	   2.3812638e+00	   1.0057942e+00	
   1.7490000e+01	   2.3824306e+00	   7.9604307e-01	
   1.7545000e+01	   2.7762473e+00	   9.2824328e-01	
   1.7600000e+01	   2.1433482e+00	   7.5968382e-01	
   1.7655000e+01	   2.4231346e+00	   9.9226256e-01	
   1.7710000e+01	   2.7261038e+00	   1.1567189e+00	
   1.7765000e+01	   3.2188601e+00	   1.3345005e+00	
   1.7820000e+01	   2.7612906e+00	   1.0917909e+00	
   1.7875000e+01	   2.3862885e+00	   1.0040910e+00	
   1.7930000e+01	   2.4199362e+00	   1.1884548e+00	
   1.7985000e+01	   2.9918219e+00	   1.3008315e+00	
   1.8040000e+01	   2.7098955e+00	   1.2057290e+00	
   1.8095000e+01	   2.1108209e+00	   8.0961640e-01	
   1.8150000e+01	   2.0866597e+00	   8.2846518e-01	
   1.8205000e+01	   2.1758671e+00	   7.4916313e-01	
   1.8260000e+01	   2.2203686e+00	   3.8970939e-01	
   1.8315000e+01	   1.9620195e+00	   3.9522192e-01	
   1.8370000e+01	   2.2623160e+00	   8.1602896e-01	
   1.8425000e+01	   2.9982194e+00	   1.2412676e+00	
   1.8480000e+01	   2.5438874e+00	   1.0147654e+00	
   1.8535000e+01	   2.4116752e+00	   1.1170831e+00	
   1.8590000e+01	   2.8357721e+00	   1.1066624e+00	
   1.8645000e+01	   2.9451255e+00	   1.1800227e+00	
   1.8700000e+01	   2.7611605e+00	   1.0924093e+00	
   1.8755000e+01	   2.2643694e+00	   9.9359489e-01	
   1.8810000e+01	   2.0493859e+00	   7.8518642e-01	
   1.8865000e+01	   2.2321695e+00	   6.4132735e-01	
   1.8920000e+01	   2.2908028e+00	   8.1371708e-01	
   1.8975000e+01	   2.1958185e+00	   6.7833019e-01	
   1.9030000e+01	   1.2076372e+00	   3.0161743e-01	
   1.9085000e+01	   2.4165979e+00	   7.4118217e-01	
   1.9140000e+01	   2.8528390e+00	   1.2107197e+00	
   1.9195000e+01	   2.2485915e+00	   1.0565558e+00	
   1.9250000e+01	   2.3030292e+00	   1.0851255e+00	
   1.9305000e+01	   2.8828300e+00	   1.1491668e+00	
   1.9360000e+01	   2.7519115e+00	   1.1780682e+00	
   1.9415000e+01	   2.3736859e+00	   6.8617743e-01	
   1.9470000e+01	   2.4467599e+00	   7.8368454e-01	
   1.9525000e+01	   2.4508571e+00	   9.3421300e-01	
   1.9580000e+01	   1.9007586e+00	   9.4813732e-01	
   1.9635000e+01	   2.3601366e+00	   6.6064918e-01	
   1.9690000e+01	   1.9838473e+00	   5.4016503e-01	
   1.9745000e+01	   1.6848843e+00	   6.8480203e-01	
   1.9800000e+01	   2.3779087e+00	   8.4715787e-01	
   1.9855000e+01	   2.0073631e+00	   9.1995809e-01	
   1.9910000e+01	   2.1358494e+00	   7.4445599e-01	
   1.9965000e+01	   2.2831344e+00	   1.1178482e+00	
   2.0020000e+01	   2.7887338e+00	   8.9053735e-01	
   2.0075000e+01	   2.0153145e+00	   9.1362041e-01	
   2.0130000e+01	   1.7887529e+00	   8.4233042e-01	
   2.0185000e+01	   1.9651346e+00	   5.8029535e-01	
   2.0240000e+01	   1.9008277e+00	   5.1334172e-01	
   2.0295000e+01	   1.9472094e+00	   7.0771685e-01	
   2.0350000e+01	   1.6511628e+00	   4.9989406e-01	
   2.0405000e+01	   1.7931798e+00	   5.6384023e-01	
   2.0460000e+01	   2.2760380e+00	   9.0711609e-01	
   2.0515000e+01	   2.3059731e+00	   9.1807434e-01	
   2.0570000e+01	   2.1726137e+00	   1.1624047e+00	
   2.0625000e+01	   1.9991271e+00	   8.2555096e-01	
   2.0680000e+01	   2.4665877e+00	   9.5019343e-01	
   2.0735000e+01	   2.2640475e+00	   1.0301514e+00	
   2.0790000e+01	   1.5571036e+00	   9.1973687e-01	
   2.0845000e+01	   1.8259665e+00	   6.4141572e-01	
   2.0900000e+01	   2.2473876e+00	   6.8023604e-01	
   2.0955000e+01	   1.5526395e+00	   8.6356063e-01	
   2.1010000e+01	   1.3266902e+00	   5.9467002e-01	
   2.1065000e+01	   1.7779425e+00	   7.1499104e-01	
   2.1120000e+01	   2.4532638e+00	   1.1106370e+00	
   2.1175000e+01	   2.4681083e+00	   1.1721875e+00	
   2.1230000e+01	   2.4083200e+00	   8.4225948e-01	
   2.1285000e+01	   2.2483531e+00	   9.4410249e-01	
   2.1340000e+01	   2.4243019e+00	   1.0614400e+00	
   2.1395000e+01	   2.4028142e+00	   9.4163180e-01	
   2.1450000e+01	   1.9644984e+00	   7.8750408e-01	
   2.1505000e+01	   1.7490638e+00	   6.7805584e-01	
   2.1560000e+01	   2.2648897e+00	   6.9759864e-01	
   2.1615000e+01	   2.0945416e+00	   7.1231965e-01	
   2.1670000e+01	   1.4318367e+00	   4.3555776e-01	
   2.1725000e+01	   2.5840745e+00	   9.5293222e-01	
   2.1780000e+01	   2.2797428e+00	   1.0897832e+00	
   2.1835000e+01	   2.5836614e+00	   1.2592273e+00	
   2.1890000e+01	   2.5876251e+00	   1.2936804e+00	
   2.1945000e+01	   2.9655511e+00	   1.1825460e+00	
   2.2000000e+01	   2.6442141e+00	   1.4602821e+00	
   2.2055000e+01	   2.3575929e+00	   1.2873653e+00	
   2.2110000e+01	   2.6585691e+00	   1.2984818e+00	
   2.2165000e+01	   1.8318179e+00	   8.6945619e-01	
   2.2220000e+01	   2.0996568e+00	   8.3209255e-01	
   2.2275000e+01	   2.4808225e+00	   8.8406613e-01	
   2.2330000e+01	   2.1708947e+00	   6.8575102e-01	
   2.2385000e+01	   2.6751955e+00	   1.0148472e+00	
   2.2440000e+01	   2.1958284e+00	   9.7312204e-01	
   2.2495000e+01	   2.8713750e+00	   1.3759851e+00	
   2.2550000e+01	   2.6007376e+00	   1.3356107e+00	
   2.2605000e+01	   2.7644102e+00	   1.2362938e+00	
   2.2660000e+01	   2.9637419e+00	   1.2010008e+00	
   2.2715000e+01	   3.3584031e+00	   1.4306438e+00	
   2.2770000e+01	   2.8506605e+00	   1.4036925e+00	
   2.2825000e+01	   2.9102777e+00	   1.2284116e+00	
   2.2880000e+01	   2.1797992e+00	   9.3502742e-01	
   2.2935000e+01	   2.5851734e+00	   1.1334766e+00	
   2.2990000e+01	   2.5776556e+00	   1.0461581e+00	
   2.3045000e+01	   2.1377035e+00	   7.9305263e-01	
   2.3100000e+01	   2.1059406e+00	   7.5389372e-01	
   2.3155000e+01	   2.4464640e+00	   1.1300507e+00	
   2.3210000e+01	   2.7663732e+00	   1.4255065e+00	
   2.3265000e+01	   2.6359137e+00	   1.4793696e+00	
   2.3320000e+01	   2.6150555e+00	   1.3905588e+00	
   2.3375000e+01	   3.0148654e+00	   1.3947343e+00	
   2.3430000e+01	   2.9668654e+00	   1.3706252e+00	
   2.3485000e+01	   2.9797732e+00	   1.5010968e+00	
   2.3540000e+01	   2.5138961e+00	   1.2101496e+00	
   2.3595000e+01	   2.3964131e+00	   1.2528593e+00	
   2.3650000e+01	   2.9953080e+00	   1.1590771e+00	
   2.3705000e+01	   2.3996949e+00	   9.1094264e-01	
   2.3760000e+01	   2.2463514e+00	   1.0314549e+00	
   2.3815000e+01	   1.7248626e+00	   9.5914742e-01	
   2.3870000e+01	   2.7007671e+00	   8.5047142e-01	
   2.3925000e+01	   2.6236206e+00	   1.2344816e+00	
   2.3980000e+01	   2.8523665e+00	   1.3182039e+00	
   2.4035000e+01	   2.7487369e+00	   1.2183649e+00	
   2.4090000e+01	   3.3343761e+00	   1.5514671e+00	
   2.4145000e+01	   3.3780325e+00	   1.3979192e+00	
   2.4200000e+01	   3.0402083e+00	   1.4163561e+00	
   2.4255000e+01	   2.5081240e+00	   1.2924456e+00	
   2.4310000e+01	   2.7457280e+00	   1.5922872e+00	
   2.4365000e+01	   2.3320431e+00	   1.2621146e+00	
   2.4420000e+01	   2.2156100e+00	   9.8418052e-01	
   2.4475000e+01	   2.0438389e+00	   1.0198430e+00	
   2.4530000e+01	   1.9967888e+00	   1.0838823e+00	
   2.4585000e+01	   1.9464760e+00	   8.1575701e-01	
   2.4640000e+01	   2.0272353e+00	   8.3625897e-01	
   2.4695000e+01	   2.0447355e+00	   7.8291132e-01	
   2.4750000e+01	   2.7976103e+00	   1.2924456e+00	
   2.4805000e+01	   3.0680479e+00	   1.3782914e+00	
   2.4860000e+01	   2.4541960e+00	   1.3324320e+00	
   2.4915000e+01	   2.7628008e+00	   1.1222226e+00	
   2.4970000e+01	   2.6269186e+00	   1.2515154e+00	
   2.5025000e+01	   3.0325545e+00	   1.2507449e+00	
   2.5080000e+01	   1.7185882e+00	   8.9440001e-01	
   2.5135000e+01	   1.7518391e+00	   7.7733440e-01	
   2.5190000e+01	   2.3034060e+00	   9.2238743e-01	
   2.5245000e+01	   2.3231835e+00	   9.7565146e-01	
   2.5300000e+01	   1.6427424e+00	   6.1792452e-01	
   2.5355000e+01	   1.6972092e+00	   4.7913028e-01	
   2.5410000e+01	   2.5350282e+00	   9.9462686e-01	
   2.5465000e+01	   2.1029270e+00	   1.1252142e+00	
   2.5520000e+01	   2.3482845e+00	   1.0610491e+00	
   2.5575000e+01	   2.1677966e+00	   1.0872264e+00	
   2.5630000e+01	   2.1920030e+00	   1.0910880e+00	
   2.5685000e+01	   2.7331159e+00	   9.9086423e-01	
   2.5740000e+01	   1.7629326e+00	   1.1330670e+00	
   2.5795000e+01	   2.1714426e+00	   8.9226459e-01	
   2.5850000e+01	   1.7475623e+00	   5.7694661e-01	
   2.5905000e+01	   1.7123080e+00	   7.0317996e-01	
   2.5960000e+01	   1.8425120e+00	   7.4865511e-01	
   2.6015000e+01	   1.6435604e+00	   5.8984066e-01	
   2.6070000e+01	   2.1725327e+00	   7.3646038e-01	
   2.6125000e+01	   1.9761680e+00	   1.2096377e+00	
   2.6180000e+01	   2.3901065e+00	   1.2420180e+00	
   2.6235000e+01	   2.1333409e+00	   9.5155954e-01	
   2.6290000e+01	   2.2373380e+00	   9.8642257e-01	
   2.6345000e+01	   1.7475104e+00	   1.0201930e+00	
   2.6400000e+01	   2.7085802e+00	   1.0689461e+00	
   2.6455000e+01	   2.3836874e+00	   7.8672935e-01	
   2.6510000e+01	   1.9882227e+00	   7.6213418e-01	
   2.6565000e+01	   1.4678291e+00	   6.3503457e-01	
   2.6620000e+01	   2.0476598e+00	   6.4408342e-01	
   2.6675000e+01	   1.6379870e+00	   3.8064629e-01	
   2.6730000e+01	   1.7292396e+00	   6.4955002e-01	
   2.6785000e+01	   2.1921296e+00	   9.4328303e-01	
   2.6840000e+01	   2.7640174e+00	   1.0391262e+00	
   2.6895000e+01	   2.1823902e+00	   9.5660279e-01	
   2.6950000e+01	   2.2682754e+00	   8.8271212e-01	
   2.7005000e+01	   2.3335631e+00	   8.9375858e-01	
   2.7060000e+01	   2.1671586e+00	   6.7290403e-01	
   2.7115000e+01	   2.3570408e+00	   9.6108125e-01	
   2.7170000e+01	   2.3274451e+00	   7.3599932e-01	
   2.7225000e+01	   2.0327826e+00	   8.2391226e-01	
   2.7280000e+01	   2.1051003e+00	   7.0674257e-01	
   2.7335000e+01	   1.6143076e+00	   5.8686344e-01	
   2.7390000e+01	   1.8540240e+00	   8.1385711e-01	
   2.7445000e+01	   2.0560031e+00	   8.1343326e-01	
   2.7500000e+01	   2.5443601e+00	   1.0112001e+00	
   2.7555000e+01	   3.0515821e+00	   1.0477775e+00	
   2.7610000e+01	   2.4713474e+00	   9.7177904e-01	
   2.7665000e+01	   2.4455721e+00	   1.0875848e+00	
   2.7720000e+01	   2.6067353e+00	   1.1551977e+00	
   2.7775000e+01	   2.4583936e+00	   1.2391621e+00	
   2.7830000e+01	   2.4711063e+00	   5.3669499e-01	
   2.7885000e+01	   2.1883776e+00	   6.7142190e-01	
   2.7940000e+01	   2.1882792e+00	   8.3737065e-01	
   2.7995000e+01	   2.0490809e+00	   8.2437260e-01	
   2.8050000e+01	   1.6787977e+00	   5.3379794e-01	
   2.8105000e+01	   1.6591618e+00	   5.0698019e-01	
   2.8160000e+01	   1.9791457e+00	   8.0157597e-01	
   2.8215000e+01	   2.2218689e+00	   9.9886303e-01	
   2.8270000e+01	   2.3587646e+00	   1.2947838e+00	
   2.8325000e+01	   2.6526938e+00	   8.8284410e-01	
   2.8380000e+01	   2.2142469e+00	   9.6862096e-01	
   2.8435000e+01	   3.3232766e+00	   1.2715999e+00	
   2.8490000e+01	   2.6648438e+00	   7.9750677e-01	
   2.8545000e+01	   2.1884297e+00	   8.2387955e-01	
   2.8600000e+01	   2.5036052e+00	   6.8371028e-01	
   2.8655000e+01	   1.9578344e+00	   7.3889379e-01	
   2.8710000e+01	   1.8802769e+00	   5.3455123e-01	
   2.8765000e+01	   1.3678968e+00	   3.3687772e-01	
   2.8820000e+01	   1.8443270e+00	   6.9599388e-01	
   2.8875000e+01	   2.1168593e+00	   9.8026605e-01	
   2.8930000e+01	   2.8971079e+00	   8.9201527e-01	
   2.8985000e+01	   2.3464837e+00	   1.0353966e+00	
   2.9040000e+01	   2.3693599e+00	   1.0346791e+00	
   2.9095000e+01	   2.4193507e+00	   1.1165761e+00	
   2.9150000e+01	   3.0527066e+00	   1.0363086e+00	
   2.9205000e+01	   2.3498343e+00	   6.9490386e-01	
   2.9260000e+01	   1.8946968e+00	   7.9957174e-01	
   2.9315000e+01	   1.7895428e+00	   5.0626208e-01	
   2.9370000e+01	   1.9150106e+00	   5.6802508e-01	
   2.9425000e+01	   2.1492254e+00	   4.6765263e-01	
   2.9480000e+01	   1.6848107e+00	   6.4786660e-01	
   2.9535000e+01	   2.2815060e+00	   9.4315433e-01	
   2.9590000e+01	   2.8670499e+00	   9.9285861e-01	
   2.9645000e+01	   2.0510055e+00	   6.5583692e-01	
   2.9700000e+01	   2.3570934e+00	   7.0379675e-01	
   2.9755000e+01	   2.1225805e+00	   8.0544251e-01	
   2.9810000e+01	   2.9056234e+00	   1.0143670e+00	
   2.9865000e+01	   2.5605085e+00	   8.2465499e-01	
   2.9920000e+01	   2.0453051e+00	   5.8119608e-01	
   2.9975000e+01	   2.0362984e+00	   6.7276575e-01	
   3.0030000e+01	   2.2113424e+00	   5.7465945e-01	
   3.0085000e+01	   2.1190521e+00	   5.9979270e-01	
   3.0140000e+01	   2.1871277e+00	   7.5053069e-01	
   3.0195000e+01	   2.5135608e+00	   1.0663792e+00	
   3.0250000e+01	   2.1668230e+00	   1.1017925e+00	
   3.0305000e+01	   2.4461303e+00	   8.6907097e-01	
   3.0360000e+01	   2.8378104e+00	   8.8681932e-01	
   3.0415000e+01	   2.3659816e+00	   5.9661189e-01	
   3.0470000e+01	   2.4830385e+00	   6.0488663e-01	
   3.0525000e+01	   2.3361925e+00	   5.8446099e-01	
   3.0580000e+01	   1.6644852e+00	   4.3645881e-01	
   3.0635000e+01	   1.4580384e+00	   1.0201737e-01	
   3.0690000e+01	   2.0691520e+00	   5.4555453e-01	
   3.0745000e+01	   2.4139396e+00	   5.3471812e-01	
   3.0800000e+01	   2.5360784e+00	   8.7651826e-01	
   3.0855000e+01	   2.5923548e+00	   7.3906820e-01	
   3.0910000e+01	   2.7045147e+00	   1.0810066e+00	
   3.0965000e+01	   3.4410434e+00	   9.9281595e-01	
   3.1020000e+01	   3.2751278e+00	   1.0011924e+00	
   3.1075000e+01	   2.6802314e+00	   8.5965967e-01	
   3.1130000e+01	   2.6848901e+00	   7.0545616e-01	
   3.1185000e+01	   2.8035402e+00	   8.8877203e-01	
   3.1240000e+01	   2.2928723e+00	   6.0171070e-01	
   3.1295000e+01	   1.9880286e+00	   4.6490448e-01	
   3.1350000e+01	   2.6747210e+00	   6.2063368e-01	
   3.1405000e+01	   2.7836157e+00	   7.5087925e-01	
   3.1460000e+01	   2.6991494e+00	   1.0571179e+00	
   3.1515000e+01	   2.9625925e+00	   1.0502541e+00	
   3.1570000e+01	   3.4386794e+00	   1.1322702e+00	
   3.1625000e+01	   3.0752479e+00	   9.6033720e-01	
   3.1680000e+01	   2.8555417e+00	   1.0264408e+00	
   3.1735000e+01	   2.7700335e+00	   7.5136765e-01	
   3.1790000e+01	   3.4720560e+00	   7.5709048e-01	
   3.1845000e+01	   3.0386914e+00	   1.0201076e+00	
   3.1900000e+01	   2.6416020e+00	   5.9395076e-01	
   3.1955000e+01	   2.7019853e+00	   6.1932550e-01	
   3.2010000e+01	   2.7032980e+00	   4.3131479e-01	
   3.2065000e+01	   2.7837828e+00	   9.1967202e-01	
   3.2120000e+01	   3.0937635e+00	   8.7486907e-01	
   3.2175000e+01	   2.5736796e+00	   9.3953274e-01	
   3.2230000e+01	   3.4454942e+00	   1.0867796e+00	
   3.2285000e+01	   3.6677496e+00	   9.7323371e-01	
   3.2340000e+01	   3.0963911e+00	   9.1978715e-01	
   3.2395000e+01	   3.3553047e+00	   9.1913994e-01	
   3.2450000e+01	   2.4311201e+00	   6.4735572e-01	
   3.2505000e+01	   3.0016165e+00	   7.6170355e-01	
   3.2560000e+01	   2.8994891e+00	   6.7645581e-01	
   3.2615000e+01	   2.3620760e+00	   5.6029925e-01	
   3.2670000e+01	   2.2975107e+00	   5.4210434e-01	
   3.2725000e+01	   3.0547770e+00	   4.6906476e-01	
   3.2780000e+01	   2.7886245e+00	   7.4004616e-01	
   3.2835000e+01	   3.0752475e+00	   7.3630080e-01	
   3.2890000e+01	   2.9777411e+00	   5.7065609e-01	
   3.2945000e+01	   3.1792370e+00	   7.2530653e-01	
   3.3000000e+01	   3.2280155e+00	   9.4083082e-01	
   3.3055000e+01	   3.1723465e+00	   7.5069352e-01	
   3.3110000e+01	   3.1005757e+00	   6.6465717e-01	
   3.3165000e+01	   2.8973434e+00	   7.5194250e-01	
   3.3220000e+01	   2.7712927e+00	   6.3066706e-01	
   3.3275000e+01	   2.1896716e+00	   4.2340949e-01	
   3.3330000e+01	   2.1593246e+00	   5.6770816e-01	
   3.3385000e+01	   2.6687249e+00	   6.6201634e-01	
   3.3440000e+01	   2.8436000e+00	   8.7123812e-01	
   3.3495000e+01	   3.1355258e+00	   8.2550238e-01	
   3.3550000e+01	   2.8156497e+00	   5.6548640e-01	
   3.3605000e+01	   2.9832547e+00	   6.3803413e-01	
   3.3660000e+01	   2.8765453e+00	   8.2983104e-01	
   3.3715000e+01	   3.0023607e+00	   5.7453623e-01	
   3.3770000e+01	   2.9263843e+00	   5.5785101e-01	
   3.3825000e+01	   2.1055069e+00	   3.0433884e-01	
   3.3880000e+01	   2.7707448e+00	   3.6577559e-01	
   3.3935000e+01	   2.5751944e+00	   5.3161452e-01	
   3.3990000e+01	   2.1780468e+00	   2.7378618e-01	
   3.4045000e+01	   2.4807699e+00	   5.5166472e-01	
   3.4100000e+01	   2.8905548e+00	   8.0513280e-01	
   3.4155000e+01	   3.6760730e+00	   9.4100089e-01	
   3.4210000e+01	   3.6772959e+00	   7.0110341e-01	
   3.4265000e+01	   3.5739620e+00	   6.9209177e-01	
   3.4320000e+01	   3.4731965e+00	   8.3089967e-01	
   3.4375000e+01	   3.3165084e+00	   5.1140680e-01	
   3.4430000e+01	   2.9109337e+00	   6.0847512e-01	
   3.4485000e+01	   2.6582410e+00	   2.3748660e-01	
   3.4540000e+01	   2.4087283e+00	   5.2208117e-01	
   3.4595000e+01	   3.1461400e+00	   2.9764191e-01	
   3.4650000e+01	   2.5940272e+00	   3.8436317e-01	
   3.4705000e+01	   2.6168022e+00	   6.7122327e-01	
   3.4760000e+01	   3.4101677e+00	   7.7804228e-01	
   3.4815000e+01	   3.6545139e+00	   8.6127983e-01	
   3.4870000e+01	   3.2252916e+00	   8.3673548e-01	
   3.4925000e+01	   2.8852205e+00	   5.3098707e-01	
   3.4980000e+01	   3.2846837e+00	   7.4685780e-01	
   3.5035000e+01	   3.2466340e+00	   8.0492620e-01	
   3.5090000e+01	   2.8931963e+00	   6.6032426e-01	
   3.5145000e+01	   2.7865944e+00	   4.7346419e-01	
   3.5200000e+01	   2.8392373e+00	   6.7708021e-01	
   3.5255000e+01	   2.7944444e+00	   4.1880917e-01	
   3.5310000e+01	   3.5243966e+00	   8.6974789e-01	
   3.5365000e+01	   3.6230810e+00	   8.1256264e-01	
   3.5420000e+01	   3.3552739e+00	   8.1101478e-01	
   3.5475000e+01	   3.5204908e+00	   1.2286289e+00	
   3.5530000e+01	   3.0803518e+00	   1.0639384e+00	
   3.5585000e+01	   2.9201828e+00	   8.6261777e-01	
   3.5640000e+01	   3.4362128e+00	   1.0056761e+00	
   3.5695000e+01	   3.7847094e+00	   9.6033720e-01	
   3.5750000e+01	   3.1645033e+00	   6.1385620e-01	
   3.5805000e+01	   3.0733629e+00	   7.3949516e-01	
   3.5860000e+01	   3.0448691e+00	   6.9763862e-01	
   3.5915000e+01	   3.1715625e+00	   7.1486324e-01	
   3.5970000e+01	   3.2013460e+00	   6.2255059e-01	
   3.6025000e+01	   3.2135876e+00	   8.0811165e-01	
   3.6080000e+01	   3.3399895e+00	   6.3195822e-01	
   3.6135000e+01	   3.3759040e+00	   9.2751138e-01	
   3.6190000e+01	   3.4267240e+00	   1.0209649e+00	
   3.6245000e+01	   3.5743774e+00	   9.4747273e-01	
   3.6300000e+01	   3.3759136e+00	   9.9122881e-01	
   3.6355000e+01	   3.8065530e+00	   1.0163498e+00	
   3.6410000e+01	   3.4489189e+00	   1.1234146e+00	
   3.6465000e+01	   3.1774945e+00	   7.7903318e-01	
   3.6520000e+01	   3.1718033e+00	   7.3630080e-01	
   3.6575000e+01	   3.5006310e+00	   8.4988828e-01	
   3.6630000e+01	   3.1397611e+00	   7.6043208e-01	
   3.6685000e+01	   3.0724893e+00	   7.3699959e-01	
   3.6740000e+01	   3.6014420e+00	   9.6626844e-01	
   3.6795000e+01	   3.7300860e+00	   1.2184624e+00	
   3.6850000e+01	   3.8300141e+00	   1.1889991e+00	
   3.6905000e+01	   3.6122973e+00	   1.0183879e+00	
   3.6960000e+01	   3.3742558e+00	   1.0778732e+00	
   3.7015000e+01	   3.4101540e+00	   1.0983873e+00	
   3.7070000e+01	   3.1732908e+00	   1.0488105e+00	
   3.7125000e+01	   3.7058866e+00	   9.1753737e-01	
   3.7180000e+01	   3.2798713e+00	   1.0725817e+00	
   3.7235000e+01	   2.9859658e+00	   1.0260527e+00	
   3.7290000e+01	   3.2667634e+00	   7.5208488e-01	
   3.7345000e+01	   3.0097750e+00	   6.1417517e-01	
   3.7400000e+01	   2.5595795e+00	   6.4964865e-01	
   3.7455000e+01	   3.4667532e+00	   1.0500929e+00	
   3.7510000e+01	   3.3040605e+00	   1.1492759e+00	
   3.7565000e+01	   3.8394534e+00	   1.2721058e+00	
   3.7620000e+01	   2.9924539e+00	   1.1106887e+00	
   3.7675000e+01	   3.1974833e+00	   9.4649231e-01	
   3.7730000e+01	   3.8155199e+00	   1.0962398e+00	
   3.7785000e+01	   3.0553586e+00	   9.5237791e-01	
   3.7840000e+01	   2.8419725e+00	   8.9181695e-01	
   3.7895000e+01	   2.3130085e+00	   8.0259155e-01	
   3.7950000e+01	   2.6952087e+00	   5.8940407e-01	
   3.8005000e+01	   2.8974692e+00	   7.3168213e-01	
   3.8060000e+01	   2.6980558e+00	   9.3892485e-01	
   3.8115000e+01	   3.2279414e+00	   1.1983349e+00	
   3.8170000e+01	   3.8623132e+00	   1.0447874e+00	
   3.8225000e+01	   3.6266628e+00	   1.0835247e+00	
   3.8280000e+01	   3.0893334e+00	   8.2508258e-01	
   3.8335000e+01	   3.1053632e+00	   8.5076199e-01	
   3.8390000e+01	   2.8871532e+00	   9.3000859e-01	
   3.8445000e+01	   2.8192111e+00	   9.9178508e-01	
   3.8500000e+01	   2.5459809e+00	   8.1114946e-01	
   3.8555000e+01	   2.3911897e+00	   5.4788210e-01	
   3.8610000e+01	   2.8096905e+00	   6.3992958e-01	
   3.8665000e+01	   3.2120563e+00	   8.6356063e-01	
   3.8720000e+01	   2.7245478e+00	   9.7559836e-01	
   3.8775000e+01	   2.8517860e+00	   8.1726412e-01	
   3.8830000e+01	   3.2737717e+00	   9.3905879e-01	
   3.8885000e+01	   2.5576345e+00	   9.5283516e-01	
   3.8940000e+01	   3.2520704e+00	   1.0503030e+00	
   3.8995000e+01	   3.1223751e+00	   9.0111274e-01	
   3.9050000e+01	   3.1482158e+00	   8.6414873e-01	
   3.9105000e+01	   3.3236517e+00	   9.6463325e-01	
   3.9160000e+01	   2.6653094e+00	   8.0241921e-01	
   3.9215000e+01	   2.7527343e+00	   5.4183803e-01	
   3.9270000e+01	   2.5475032e+00	   8.1215059e-01	
   3.9325000e+01	   3.3057913e+00	   1.1536579e+00	
   3.9380000e+01	   2.9582509e+00	   1.1335307e+00	
   3.9435000e+01	   3.1310050e+00	   1.2269823e+00	
   3.9490000e+01	   2.8641613e+00	   9.9233171e-01	
   3.9545000e+01	   2.6026514e+00	   8.9885639e-01	
   3.9600000e+01	   3.6689474e+00	   1.2347022e+00	
   3.9655000e+01	   3.0794021e+00	   9.9870868e-01	
   3.9710000e+01	   2.6061967e+00	   6.9247472e-01	
   3.9765000e+01	   2.3603606e+00	   7.7804228e-01	
   3.9820000e+01	   2.7723979e+00	   8.2428898e-01	
   3.9875000e+01	   2.3822567e+00	   5.2716520e-01	
   3.9930000e+01	   2.5656788e+00	   7.4365910e-01	
   3.9985000e+01	   3.1226703e+00	   1.0578695e+00	
   4.0040000e+01	   3.0850080e+00	   1.2698032e+00	
   4.0095000e+01	   3.3839276e+00	   1.1042937e+00	
   4.0150000e+01	   2.8870062e+00	   1.1040092e+00	
   4.0205000e+01	   3.2369761e+00	   1.4217468e+00	
   4.0260000e+01	   2.9864309e+00	   1.4612178e+00	
   4.0315000e+01	   3.1208580e+00	   1.1054904e+00	
   4.0370000e+01	   2.5858275e+00	   9.3039834e-01	
   4.0425000e+01	   2.6273105e+00	   8.9972243e-01	
   4.0480000e+01	   2.9492290e+00	   7.9826919e-01	
   4.0535000e+01	   2.2929457e+00	   7.8483001e-01	
   4.0590000e+01	   2.6613028e+00	   9.9252106e-01	
   4.0645000e+01	   2.9504548e+00	   1.2474766e+00	
   4.0700000e+01	   2.9357134e+00	   1.2422425e+00	
   4.0755000e+01	   2.9444724e+00	   1.2841752e+00	
   4.0810000e+01	   2.7735531e+00	   1.1944681e+00	
   4.0865000e+01	   2.8452420e+00	   1.2228014e+00	
   4.0920000e+01	   3.0451069e+00	   1.4421771e+00	
   4.0975000e+01	   3.1637350e+00	   1.2050262e+00	
   4.1030000e+01	   2.1954210e+00	   8.5317700e-01	
   4.1085000e+01	   2.5328743e+00	   7.3060892e-01	
   4.1140000e+01	   2.4808496e+00	   9.1844754e-01	
   4.1195000e+01	   2.9408211e+00	   1.2285024e+00	
   4.1250000e+01	   2.7200766e+00	   1.2641030e+00	
   4.1305000e+01	   2.6479188e+00	   1.3991247e+00	
   4.1360000e+01	   3.5157378e+00	   1.4262541e+00	
   4.1415000e+01	   3.4043178e+00	   1.4480961e+00	
   4.1470000e+01	   2.4153636e+00	   1.2108803e+00	
   4.1525000e+01	   3.0028616e+00	   1.1735348e+00	
   4.1580000e+01	   2.5842197e+00	   1.1955987e+00	
   4.1635000e+01	   2.8364897e+00	   1.1034811e+00	
   4.1690000e+01	   1.9491025e+00	   6.9706228e-01	
   4.1745000e+01	   2.1824964e+00	   7.7386243e-01	
   4.1800000e+01	   2.7710642e+00	   1.0401216e+00	
   4.1855000e+01	   3.1740672e+00	   1.2711812e+00	
   4.1910000e+01	   2.7079578e+00	   1.1173882e+00	
   4.1965000e+01	   2.8773201e+00	   1.2881043e+00	
   4.2020000e+01	   2.7715731e+00	   1.1075250e+00	
   4.2075000e+01	   2.8301665e+00	   1.3042784e+00	
   4.2130000e+01	   3.1787760e+00	   1.3790075e+00	
   4.2185000e+01	   2.3632115e+00	   1.1253477e+00	
   4.2240000e+01	   3.2678637e+00	   1.2895756e+00	
   4.2295000e+01	   2.5775589e+00	   1.1124650e+00	
   4.2350000e+01	   2.7390088e+00	   8.6423051e-01	
   4.2405000e+01	   2.6289067e+00	   9.0529281e-01	
   4.2460000e+01	   2.7797319e+00	   1.1586305e+00	
   4.2515000e+01	   2.7303308e+00	   1.1935349e+00	
   4.2570000e+01	   2.9953051e+00	   1.2960612e+00	
   4.2625000e+01	   2.8224999e+00	   1.5800384e+00	
   4.2680000e+01	   3.1989732e+00	   1.5153831e+00	
   4.2735000e+01	   3.3338967e+00	   1.4032942e+00	
   4.2790000e+01	   3.2768490e+00	   1.4794086e+00	
   4.2845000e+01	   2.2626111e+00	   1.2116434e+00	
   4.2900000e+01	   2.6659943e+00	   1.2544041e+00	
   4.2955000e+01	   2.8527885e+00	   1.1259752e+00	
   4.3010000e+01	   2.2623944e+00	   1.0870066e+00	
   4.3065000e+01	   2.3065555e+00	   1.0355342e+00	
   4.3120000e+01	   1.9126075e+00	   8.1066422e-01	
   4.3175000e+01	   2.6984591e+00	   9.4129851e-01	
   4.3230000e+01	   3.4404258e+00	   1.3858535e+00	
   4.3285000e+01	   2.6277750e+00	   1.3024104e+00	
   4.3340000e+01	   3.1771176e+00	   1.5321897e+00	
   4.3395000e+01	   3.7955005e+00	   1.6061419e+00	
   4.3450000e+01	   3.7277680e+00	   1.7867024e+00	
   4.3505000e+01	   3.3472324e+00	   1.3798872e+00	
   4.3560000e+01	   3.2307025e+00	   1.3228445e+00	
   4.3615000e+01	   3.5823631e+00	   1.5214023e+00	
   4.3670000e+01	   3.4741353e+00	   1.2142624e+00	
   4.3725000e+01	   2.7553699e+00	   9.2734107e-01	
   4.3780000e+01	   2.7246519e+00	   1.0806820e+00	
   4.3835000e+01	   2.7047452e+00	   1.2075816e+00	
   4.3890000e+01	   2.3667241e+00	   1.0181516e+00	
   4.3945000e+01	   2.6237572e+00	   9.5796666e-01	
   4.4000000e+01	   3.0260132e+00	   1.4267582e+00	
   4.4055000e+01	   3.5028242e+00	   1.6875351e+00	
   4.4110000e+01	   3.5551970e+00	   1.4217223e+00	
   4.4165000e+01	   3.4197471e+00	   1.5316148e+00	
   4.4220000e+01	   3.4913125e+00	   1.4874971e+00	
   4.4275000e+01	   3.4440704e+00	   1.4528211e+00	
   4.4330000e+01	   3.1712031e+00	   1.5162369e+00	
   4.4385000e+01	   3.1678400e+00	   1.5052675e+00	
   4.4440000e+01	   3.5661855e+00	   1.2679698e+00	
   4.4495000e+01	   2.9806319e+00	   1.2339281e+00	
   4.4550000e+01	   3.1034081e+00	   1.2706019e+00	
   4.4605000e+01	   2.5513820e+00	   9.2958847e-01	
   4.4660000e+01	   2.4659708e+00	   1.0202190e+00	
   4.4715000e+01	   2.3254440e+00	   8.4680240e-01	
   4.4770000e+01	   3.1022216e+00	   1.3982361e+00	
   4.4825000e+01	   3.1997822e+00	   1.4544704e+00	
   4.4880000e+01	   2.7579328e+00	   1.2714546e+00	
   4.4935000e+01	   3.3888863e+00	   1.6046959e+00	
   4.4990000e+01	   3.4456433e+00	   1.6396094e+00	
   4.5045000e+01	   3.0860507e+00	   1.3819840e+00	
   4.5100000e+01	   2.7498615e+00	   1.3094105e+00	
   4.5155000e+01	   2.8757729e+00	   1.3576170e+00	
   4.5210000e+01	   3.2837838e+00	   1.2645926e+00	
   4.5265000e+01	   2.6581997e+00	   1.1165108e+00	
   4.5320000e+01	   2.6970584e+00	   1.1449382e+00	
   4.5375000e+01	   2.8224076e+00	   1.0091266e+00	
   4.5430000e+01	   2.7301427e+00	   1.0338711e+00	
   4.5485000e+01	   2.2063723e+00	   1.2133570e+00	
   4.5540000e+01	   3.0334684e+00	   1.3090935e+00	
   4.5595000e+01	   3.4346145e+00	   1.2760876e+00	
   4.5650000e+01	   3.5526199e+00	   1.5404400e+00	
   4.5705000e+01	   3.5811587e+00	   1.3535545e+00	
   4.5760000e+01	   2.9424969e+00	   1.2392506e+00	
   4.5815000e+01	   2.3267149e+00	   1.2007225e+00	
   4.5870000e+01	   3.1874600e+00	   1.4935729e+00	
   4.5925000e+01	   3.1242469e+00	   1.1255358e+00	
   4.5980000e+01	   2.4606460e+00	   8.2162731e-01	
   4.6035000e+01	   2.6543733e+00	   9.5451134e-01	
   4.6090000e+01	   2.4820023e+00	   9.5514093e-01	
   4.6145000e+01	   2.7765028e+00	   7.3900366e-01	
   4.6200000e+01	   1.9696523e+00	   6.7967457e-01	
   4.6255000e+01	   2.7167306e+00	   1.2947345e+00	
   4.6310000e+01	   3.0049122e+00	   1.2042952e+00	
   4.6365000e+01	   3.1591455e+00	   1.3995053e+00	
   4.6420000e+01	   2.9566148e+00	   1.3958541e+00	
   4.6475000e+01	   3.0534376e+00	   1.2791913e+00	
   4.6530000e+01	   2.9739610e+00	   1.2401487e+00	
   4.6585000e+01	   3.3367033e+00	   1.3770409e+00	
   4.6640000e+01	   2.9249601e+00	   1.2070649e+00	
   4.6695000e+01	   2.7390330e+00	   8.4677682e-01	
   4.6750000e+01	   2.6876625e+00	   9.7128194e-01	
   4.6805000e+01	   2.2146333e+00	   7.4819390e-01	
   4.6860000e+01	   2.1768204e+00	   7.0819448e-01	
   4.6915000e+01	   2.5609692e+00	   6.8929425e-01	
   4.6970000e+01	   2.4036466e+00	   1.1241311e+00	
   4.7025000e+01	   3.2365856e+00	   1.1981123e+00	
   4.7080000e+01	   2.4783137e+00	   1.0928749e+00	
   4.7135000e+01	   2.4331765e+00	   8.6525419e-01	
   4.7190000e+01	   2.5977835e+00	   1.0167560e+00	
   4.7245000e+01	   3.1151908e+00	   1.0716773e+00	
   4.7300000e+01	   2.6264208e+00	   1.0618548e+00	
   4.7355000e+01	   2.7258938e+00	   5.8646497e-01	
   4.7410000e+01	   2.3998829e+00	   5.3160254e-01	
   4.7465000e+01	   1.9403517e+00	   4.9868932e-01	
   4.7520000e+01	   1.9065155e+00	   2.6855356e-01	
   4.7575000e+01	   2.6705103e+00	   8.9016436e-01	
   4.7630000e+01	   2.5377770e+00	   8.3690012e-01	
   4.7685000e+01	   2.8381383e+00	   1.1637572e+00	
   4.7740000e+01	   3.0087987e+00	   1.0658754e+00	
   4.7795000e+01	   2.6435196e+00	   7.0661507e-01	
   4.7850000e+01	   2.1598358e+00	   8.7401997e-01	
   4.7905000e+01	   2.5820934e+00	   6.4790318e-01	
   4.7960000e+01	   2.1848469e+00	   6.3193886e-01	
   4.8015000e+01	   2.1574997e+00	   5.2953196e-01	
   4.8070000e+01	   1.6631163e+00	   5.9680894e-01	
   4.8125000e+01	   1.8770757e+00	   3.7042304e-01	
   4.8180000e+01	   2.3691036e+00	   8.5471123e-01	
   4.8235000e+01	   2.3873867e+00	   8.5295163e-01	
   4.8290000e+01	   2.3183269e+00	   8.5994367e-01	
   4.8345000e+01	   3.1232970e+00	   7.7010024e-01	
   4.8400000e+01	   2.9328360e+00	   9.2312730e-01	
   4.8455000e+01	   2.5593435e+00	   8.1438273e-01	
   4.8510000e+01	   2.4371778e+00	   8.7823321e-01	
   4.8565000e+01	   1.9769904e+00	   5.9687684e-01	
   4.8620000e+01	   2.6136341e+00	   8.5961703e-01	
   4.8675000e+01	   2.1638725e+00	   4.9941413e-01	
   4.8730000e+01	   2.1347492e+00	   3.7256491e-01	
   4.8785000e+01	   2.6931410e+00	   8.1371708e-01	
   4.8840000e+01	   2.5404906e+00	   1.0238893e+00	
   4.8895000e+01	   2.9189535e+00	   1.0862470e+00	
   4.8950000e+01	   2.3763515e+00	   1.0627416e+00	
   4.9005000e+01	   2.7865035e+00	   8.9827868e-01	
   4.9060000e+01	   3.3705852e+00	   1.0744735e+00	
   4.9115000e+01	   2.8562501e+00	   1.0305152e+00	
   4.9170000e+01	   2.4985086e+00	   8.7600522e-01	
   4.9225000e+01	   2.9673914e+00	   7.2601758e-01	
   4.9280000e+01	   2.7063577e+00	   7.2426139e-01	
   4.9335000e+01	   2.4834740e+00	   5.1304514e-01	
   4.9390000e+01	   2.4622122e+00	   5.6557607e-01	
   4.9445000e+01	   2.5362783e+00	   7.0801168e-01	
   4.9500000e+01	   3.1870790e+00	   1.2517633e+00	
   4.9555000e+01	   2.9546604e+00	   1.1267152e+00	
   4.9610000e+01	   3.1852066e+00	   1.0852303e+00	
   4.9665000e+01	   3.2566902e+00	   1.0074245e+00	
   4.9720000e+01	   2.9777569e+00	   1.2896326e+00	
   4.9775000e+01	   3.3346200e+00	   9.7120267e-01	
   4.9830000e+01	   2.8041068e+00	   8.3255142e-01	
   4.9885000e+01	   3.2260148e+00	   9.4571638e-01	
   4.9940000e+01	   2.6296657e+00	   8.7672391e-01	
   4.9995000e+01	   2.6827231e+00	   8.5224266e-01	
   5.0050000e+01	   2.5149368e+00	   8.0799312e-01	
   5.0105000e+01	   2.8388704e+00	   5.9369117e-01	
   5.0160000e+01	   2.8007108e+00	   6.8435662e-01	
   5.0215000e+01	   3.1187409e+00	   1.1355637e+00	
   5.0270000e+01	   3.5870763e+00	   1.1523143e+00	
   5.0325000e+01	   3.3851868e+00	   1.3458868e+00	
   5.0380000e+01	   3.4631079e+00	   1.1188812e+00	
   5.0435000e+01	   3.2204964e+00	   1.3542982e+00	
   5.0490000e+01	   3.5007020e+00	   1.1290055e+00	
   5.0545000e+01	   3.2830081e+00	   8.9272817e-01	
   5.0600000e+01	   2.9835693e+00	   1.0296811e+00	
   5.0655000e+01	   2.6551008e+00	   1.0079487e+00	
   5.0710000e+01	   2.9659247e+00	   8.2369674e-01	
   5.0765000e+01	   2.6551140e+00	   5.5316932e-01	
   5.0820000e+01	   2.3543378e+00	   7.9973788e-01	
   5.0875000e+01	   3.1505307e+00	   9.0684658e-01	
   5.0930000e+01	   2.7771164e+00	   1.0816536e+00	
   5.0985000e+01	   2.8809728e+00	   1.1251016e+00	
   5.1040000e+01	   3.4890290e+00	   1.3559630e+00	
   5.1095000e+01	   3.4708306e+00	   1.3308889e+00	
   5.1150000e+01	   3.3965520e+00	   1.3044447e+00	
   5.1205000e+01	   3.4688977e+00	   1.2136358e+00	
   5.1260000e+01	   3.7156171e+00	   1.3446826e+00	
   5.1315000e+01	   3.7367154e+00	   1.1119681e+00	
   5.1370000e+01	   3.1670568e+00	   1.1285484e+00	
   5.1425000e+01	   2.8396975e+00	   6.6798413e-01	
   5.1480000e+01	   3.0489754e+00	   1.0281034e+00	
   5.1535000e+01	   2.8343631e+00	   1.0137656e+00	
   5.1590000e+01	   2.4708441e+00	   7.7874462e-01	
   5.1645000e+01	   2.8049651e+00	   9.5447520e-01	
   5.1700000e+01	   3.1119591e+00	   1.1596996e+00	
   5.1755000e+01	   3.2355534e+00	   1.1098962e+00	
   5.1810000e+01	   3.0301151e+00	   1.1002157e+00	
   5.1865000e+01	   3.1168687e+00	   1.1323580e+00	
   5.1920000e+01	   3.4728988e+00	   1.0756058e+00	
   5.1975000e+01	   2.9391866e+00	   1.1677642e+00	
   5.2030000e+01	   3.2667382e+00	   1.0119204e+00	
   5.2085000e+01	   2.4882828e+00	   8.2345159e-01	
   5.2140000e+01	   2.7394932e+00	   7.9736431e-01	
   5.2195000e+01	   2.8793590e+00	   7.7890993e-01	
   5.2250000e+01	   2.4825041e+00	   8.7169170e-01	
   5.2305000e+01	   2.8867503e+00	   7.6707531e-01	
   5.2360000e+01	   3.2480127e+00	   9.1531168e-01	
   5.2415000e+01	   3.2568637e+00	   1.1370807e+00	
   5.2470000e+01	   3.6338873e+00	   1.2057620e+00	
   5.2525000e+01	   2.8264830e+00	   8.9113847e-01	
   5.2580000e+01	   2.5454031e+00	   6.0813620e-01	
   5.2635000e+01	   2.9412970e+00	   8.8460718e-01	
   5.2690000e+01	   2.7564357e+00	   9.8620984e-01	
   5.2745000e+01	   2.4745570e+00	   4.3021340e-01	
   5.2800000e+01	   2.5129071e+00	   4.1896930e-01	
   5.2855000e+01	   2.8538426e+00	   7.7881379e-01	
   5.2910000e+01	   2.6918705e+00	   6.4520870e-01	
   5.2965000e+01	   2.6299950e+00	   7.1086434e-01	
   5.3020000e+01	   2.4341502e+00	   7.4274160e-01	
   5.3075000e+01	   2.4283481e+00	   7.8682971e-01	
   5.3130000e+01	   3.2186739e+00	   9.2954379e-01	
   5.3185000e+01	   2.8627448e+00	   1.0595123e+00	
   5.3240000e+01	   3.1300537e+00	   8.0488265e-01	
   5.3295000e+01	   2.4439599e+00	   7.9248464e-01	
   5.3350000e+01	   2.8061088e+00	   7.8780641e-01	
   5.3405000e+01	   2.1686993e+00	   6.1265020e-01	
   5.3460000e+01	   2.4784462e+00	   6.8513327e-01	
   5.3515000e+01	   2.4000642e+00	   2.2569621e-01	
   5.3570000e+01	   2.0931360e+00	   4.6646962e-01	
   5.3625000e+01	   2.5680937e+00	   6.9999625e-01	
   5.3680000e+01	   2.2592876e+00	   8.1332486e-01	
   5.3735000e+01	   2.9410980e+00	   9.1963314e-01	
   5.3790000e+01	   2.8579116e+00	   1.2346582e+00	
   5.3845000e+01	   2.6772494e+00	   1.1707476e+00	
   5.3900000e+01	   3.1110988e+00	   8.3499105e-01	
   5.3955000e+01	   2.2556993e+00	   5.2088105e-01	
   5.4010000e+01	   2.6129920e+00	   7.6395106e-01	
   5.4065000e+01	   2.6544329e+00	   7.6964830e-01	
   5.4120000e+01	   2.1834259e+00	   4.3833930e-01	
   5.4175000e+01	   1.7618119e+00	   6.1134687e-01	
   5.4230000e+01	   2.5740854e+00	   5.9821298e-01	
   5.4285000e+01	   2.5875337e+00	   8.4788000e-01	
   5.4340000e+01	   2.3687845e+00	   8.1319552e-01	
   5.4395000e+01	   2.9961918e+00	   1.0012285e+00	
   5.4450000e+01	   3.5347948e+00	   1.0920078e+00	
   5.4505000e+01	   3.1279583e+00	   1.2170592e+00	
   5.4560000e+01	   3.1385018e+00	   1.0991256e+00	
   5.4615000e+01	   2.4239501e+00	   9.1077736e-01	
   5.4670000e+01	   2.7815026e+00	   1.1976965e+00	
   5.4725000e+01	   2.7657519e+00	   9.0563751e-01	
   5.4780000e+01	   2.2285023e+00	   7.7517086e-01	
   5.4835000e+01	   2.1364642e+00	   5.0869948e-01	
   5.4890000e+01	   2.1273072e+00	   6.0980444e-01	
   5.4945000e+01	   2.1815311e+00	   6.9763862e-01	
   5.5000000e+01	   2.1844085e+00	   6.2327883e-01	
   5.5055000e+01	   2.2085878e+00	   8.3925647e-01	
   5.5110000e+01	   2.3687539e+00	   8.9630517e-01	
   5.5165000e+01	   3.1827085e+00	   1.3232892e+00	
   5.5220000e+01	   2.8232034e+00	   1.0466752e+00	
   5.5275000e+01	   2.6563821e+00	   1.0466459e+00	
   5.5330000e+01	   2.9563375e+00	   1.0771479e+00	
   5.5385000e+01	   2.8980076e+00	   1.0995584e+00	
   5.5440000e+01	   3.1446081e+00	   1.1805337e+00	
   5.5495000e+01	   2.1191000e+00	   8.7577228e-01	
   5.5550000e+01	   2.8518082e+00	   8.3343588e-01	
   5.5605000e+01	   2.3336582e+00	   7.9729823e-01	
   5.5660000e+01	   1.9910089e+00	   6.6209262e-01	
   5.5715000e+01	   2.0146898e+00	   6.2964434e-01	
   5.5770000e+01	   2.1731535e+00	   7.6508193e-01	
   5.5825000e+01	   2.5037052e+00	   1.0602003e+00	
   5.5880000e+01	   2.8090457e+00	   1.1017684e+00	
   5.5935000e+01	   1.9510719e+00	   1.0691130e+00	
   5.5990000e+01	   2.8392582e+00	   8.6003250e-01	
   5.6045000e+01	   3.0730618e+00	   1.1512379e+00	
   5.6100000e+01	   2.7225370e+00	   1.0253943e+00	
   5.6155000e+01	   2.0374324e+00	   8.4268618e-01	
   5.6210000e+01	   2.0573896e+00	   7.9761194e-01	
   5.6265000e+01	   1.9693222e+00	   9.8607988e-01	
   5.6320000e+01	   1.9596335e+00	   7.7346770e-01	
   5.6375000e+01	   1.8345073e+00	   5.3964943e-01	
   5.6430000e+01	   1.5935122e+00	   4.8340783e-01	
   5.6485000e+01	   2.1598377e+00	   4.1434974e-01	
   5.6540000e+01	   2.2508754e+00	   8.0608978e-01	
   5.6595000e+01	   2.4978592e+00	   9.9093536e-01	
   5.6650000e+01	   2.3784739e+00	   1.0163498e+00	
   5.6705000e+01	   2.2161108e+00	   1.2549677e+00	
   5.6760000e+01	   2.4056283e+00	   1.0726611e+00	
   5.6815000e+01	   2.1040822e+00	   9.3052933e-01	
   5.6870000e+01	   2.4691791e+00	   8.4024204e-01	
   5.6925000e+01	   1.9876828e+00	   8.1592780e-01	
   5.6980000e+01	   1.9419532e+00	   9.2593703e-01	
   5.7035000e+01	   1.4504473e+00	   8.1731000e-01	
   5.7090000e+01	   1.2964432e+00	   4.7458858e-01	
   5.7145000e+01	   1.5067553e+00	   5.2295655e-01	
   5.7200000e+01	   1.9245828e+00	   6.8025637e-01	
   5.7255000e+01	   1.7289524e+00	   9.9139267e-01	
   5.7310000e+01	   1.6845981e+00	   8.0600114e-01	
   5.7365000e+01	   2.4657087e+00	   7.9828564e-01	
   5.7420000e+01	   2.0369816e+00	   8.3038079e-01	
   5.7475000e+01	   1.9586869e+00	   8.9439584e-01	
   5.7530000e+01	   1.9889110e+00	   7.7369538e-01	
   5.7585000e+01	   1.7567375e+00	   6.7022651e-01	
   5.7640000e+01	   2.0013501e+00	   8.0431813e-01	
   5.7695000e+01	   1.8152747e+00	   6.6666360e-01	
   5.7750000e+01	   1.2854943e+00	   4.1754452e-01	
   5.7805000e+01	   1.4093908e+00	   4.5834601e-01	
   5.7860000e+01	   1.6931189e+00	   7.0194309e-01	
   5.7915000e+01	   2.0993910e+00	   9.8638861e-01	
   5.7970000e+01	   1.8364503e+00	   7.9242983e-01	
   5.8025000e+01	   1.8760282e+00	   8.0002353e-01	
   5.8080000e+01	   1.3037579e+00	   9.0744208e-01	
   5.8135000e+01	   1.8698983e+00	   8.4716697e-01	
   5.8190000e+01	   2.0393625e+00	   7.6160988e-01	
   5.8245000e+01	   1.8722084e+00	   5.4442860e-01	
   5.8300000e+01	   2.0469276e+00	   7.4845559e-01	
   5.8355000e+01	   1.5743290e+00	   4.5603982e-01	
   5.8410000e+01	   8.8609115e-01	   2.0746293e-01	
   5.8465000e+01	   1.1718053e+00	   6.3289432e-01	
   5.8520000e+01	   2.3049088e+00	   9.0842291e-01	
   5.8575000e+01	   1.8475653e+00	   9.6654096e-01	
   5.8630000e+01	   1.6337302e+00	   6.9929977e-01	
   5.8685000e+01	   1.9698596e+00	   7.5728176e-01	
   5.8740000e+01	   2.0741639e+00	   1.0553981e+00	
   5.8795000e+01	   1.6929168e+00	   1.0139849e+00	
   5.8850000e+01	   2.0838792e+00	   8.4226742e-01	
   5.8905000e+01	   1.5169245e+00	   5.3563876e-01	
   5.8960000e+01	   1.9087373e+00	   8.6034610e-01	
   5.9015000e+01	   2.0146543e+00	   7.2260674e-01	
   5.9070000e+01	   1.3411505e+00	   6.6196586e-01	
   5.9125000e+01	   1.9136952e+00	   3.2923759e-01	
   5.9180000e+01	   2.3874967e+00	   1.0585999e+00	
   5.9235000e+01	   2.6012223e+00	   1.1303597e+00	
   5.9290000e+01	   2.0422503e+00	   1.1623738e+00	
   5.9345000e+01	   2.5096280e+00	   1.1267703e+00	
   5.9400000e+01	   2.4281493e+00	   9.8676108e-01	
   5.9455000e+01	   2.3119815e+00	   1.1958363e+00	
   5.9510000e+01	   2.3871861e+00	   8.6165535e-01	
   5.9565000e+01	   2.1274356e+00	   8.5689967e-01	
   5.9620000e+01	   2.2852487e+00	   1.0651284e+00	
   5.9675000e+01	   2.1829754e+00	   8.8267539e-01	
   5.9730000e+01	   2.2683217e+00	   1.0269618e+00	
   5.9785000e+01	   1.5497956e+00	   6.0579085e-01	
   5.9840000e+01	   2.4022920e+00	   7.8033671e-01	
   5.9895000e+01	   3.2240658e+00	   1.4444285e+00	
   5.9950000e+01	   2.6939164e+00	   1.2221781e+00	
   6.0005000e+01	   2.4966491e+00	   1.2102928e+00	
   6.0060000e+01	   2.6313956e+00	   1.2958528e+00	
   6.0115000e+01	   2.6889809e+00	   1.3008315e+00	
   6.0170000e+01	   3.4396189e+00	   1.3471904e+00	
   6.0225000e+01	   2.7140649e+00	   1.2248413e+00	
   6.0280000e+01	   2.5127450e+00	   9.6146263e-01	
   6.0335000e+01	   2.2078291e+00	   1.1169390e+00	
   6.0390000e+01	   2.6438976e+00	   1.0358011e+00	
   6.0445000e+01	   2.7204537e+00	   7.6406619e-01	
   6.0500000e+01	   2.1573665e+00	   8.5139798e-01	
   6.0555000e+01	   2.4034902e+00	   9.4161266e-01	
   6.0610000e+01	   3.2724753e+00	   1.4366272e+00	
   6.0665000e+01	   3.1497332e+00	   1.4965050e+00	
   6.0720000e+01	   3.2680216e+00	   1.4565041e+00	
   6.0775000e+01	   3.2561483e+00	   1.4512480e+00	
   6.0830000e+01	   3.3379075e+00	   1.2431102e+00	
   6.0885000e+01	   2.7646798e+00	   1.4662746e+00	
   6.0940000e+01	   2.5494641e+00	   1.4796175e+00	
   6.0995000e+01	   3.0601865e+00	   1.1084626e+00	
   6.1050000e+01	   3.3937552e+00	   1.4082824e+00	
   6.1105000e+01	   2.8687492e+00	   1.1226175e+00	
   6.1160000e+01	   2.0573998e+00	   9.3741958e-01	
   6.1215000e+01	   2.1566790e+00	   9.2243193e-01	
   6.1270000e+01	   2.1838818e+00	   7.8064371e-01	
   6.1325000e+01	   3.0733105e+00	   1.2686908e+00	
   6.1380000e+01	   2.8325548e+00	   1.3894437e+00	
   6.1435000e+01	   2.9124591e+00	   1.4894419e+00	
   6.1490000e+01	   3.4511522e+00	   1.4030259e+00	
   6.1545000e+01	   2.6762494e+00	   1.2304756e+00	
   6.1600000e+01	   2.7456167e+00	   1.1693622e+00	
   6.1655000e+01	   2.9417518e+00	   1.4319108e+00	
   6.1710000e+01	   2.8363681e+00	   1.2955769e+00	
   6.1765000e+01	   3.0018083e+00	   1.0433907e+00	
   6.1820000e+01	   2.4952214e+00	   1.0757472e+00	
   6.1875000e+01	   1.9300640e+00	   8.7061678e-01	
   6.1930000e+01	   2.8486515e+00	   1.0010372e+00	
   6.1985000e+01	   2.7986849e+00	   1.4692420e+00	
   6.2040000e+01	   2.8567619e+00	   1.3155195e+00	
   6.2095000e+01	   2.9490126e+00	   1.4606722e+00	
   6.2150000e+01	   3.0506954e+00	   1.7230600e+00	
   6.2205000e+01	   3.2387591e+00	   1.2729338e+00	
   6.2260000e+01	   2.5423151e+00	   1.2523187e+00	
   6.2315000e+01	   2.7071867e+00	   1.2933989e+00	
   6.2370000e+01	   2.9535402e+00	   1.3843608e+00	
   6.2425000e+01	   2.9271188e+00	   1.1355515e+00	
   6.2480000e+01	   2.6615758e+00	   9.3496520e-01	
   6.2535000e+01	   2.1336596e+00	   9.3959415e-01	
   6.2590000e+01	   2.4129263e+00	   9.0669145e-01	
   6.2645000e+01	   3.0898217e+00	   1.2417072e+00	
   6.2700000e+01	   2.9014852e+00	   1.3070153e+00	
   6.2755000e+01	   3.2704399e+00	   1.3567332e+00	
   6.2810000e+01	   3.1285932e+00	   1.2395319e+00	
   6.2865000e+01	   2.8954222e+00	   1.4902186e+00	
   6.2920000e+01	   3.1206294e+00	   1.3586442e+00	
   6.2975000e+01	   3.4163922e+00	   1.3124334e+00	
   6.3030000e+01	   3.3164484e+00	   1.2469221e+00	
   6.3085000e+01	   3.0481925e+00	   1.3199572e+00	
   6.3140000e+01	   2.7782949e+00	   1.0459014e+00	
   6.3195000e+01	   2.7636959e+00	   7.5286489e-01	
   6.3250000e+01	   2.8268421e+00	   9.6945555e-01	
   6.3305000e+01	   3.0274632e+00	   9.3300773e-01	
   6.3360000e+01	   2.6238385e+00	   1.0491427e+00	
   6.3415000e+01	   3.0670818e+00	   1.3581935e+00	
   6.3470000e+01	   3.6700413e+00	   1.3571097e+00	
   6.3525000e+01	   3.2583214e+00	   1.8562061e+00	
   6.3580000e+01	   3.2614408e+00	   1.3529302e+00	
   6.3635000e+01	   2.7417495e+00	   1.2415314e+00	
   6.3690000e+01	   3.8160363e+00	   1.4335679e+00	
   6.3745000e+01	   3.2907100e+00	   1.3290781e+00	
   6.3800000e+01	   3.0394511e+00	   1.0499134e+00	
   6.3855000e+01	   2.6620489e+00	   1.1432783e+00	
   6.3910000e+01	   2.9218753e+00	   1.0277749e+00	
   6.3965000e+01	   2.6504959e+00	   1.0485101e+00	
   6.4020000e+01	   2.9213717e+00	   1.2470089e+00	
   6.4075000e+01	   3.3086088e+00	   1.0080488e+00	
   6.4130000e+01	   3.3047949e+00	   1.4049888e+00	
   6.4185000e+01	   3.7481224e+00	   1.4433147e+00	
   6.4240000e+01	   3.3731641e+00	   1.5029011e+00	
   6.4295000e+01	   3.1472559e+00	   1.4081405e+00	
   6.4350000e+01	   3.7905287e+00	   1.6058188e+00	
   6.4405000e+01	   3.0030369e+00	   1.5047174e+00	
   6.4460000e+01	   3.3146138e+00	   1.2545727e+00	
   6.4515000e+01	   2.8972012e+00	   1.2047231e+00	
   6.4570000e+01	   2.6872375e+00	   8.1737948e-01	
   6.4625000e+01	   2.8865528e+00	   1.0533453e+00	
   6.4680000e+01	   2.2770780e+00	   8.7382442e-01	
   6.4735000e+01	   2.4278695e+00	   8.5489803e-01	
   6.4790000e+01	   2.5686701e+00	   1.0759110e+00	
   6.4845000e+01	   3.4202043e+00	   1.1198467e+00	
   6.4900000e+01	   3.6815087e+00	   1.2193809e+00	
   6.4955000e+01	   2.8599193e+00	   9.7243713e-01	
   6.5010000e+01	   3.1146589e+00	   1.1834009e+00	
   6.5065000e+01	   3.3267688e+00	   1.4090631e+00	
   6.5120000e+01	   3.3822019e+00	   1.2807746e+00	
   6.5175000e+01	   3.1729562e+00	   9.9143312e-01	
   6.5230000e+01	   2.6003138e+00	   8.5233276e-01	
   6.5285000e+01	   2.7040291e+00	   9.3462473e-01	
   6.5340000e+01	   2.2786360e+00	   9.7495240e-01	
   6.5395000e+01	   2.7628219e+00	   6.4623307e-01	
   6.5450000e+01	   3.0348615e+00	   9.0357062e-01	
   6.5505000e+01	   3.4642855e+00	   1.1607743e+00	
   6.5560000e+01	   3.4927216e+00	   1.2192005e+00	
   6.5615000e+01	   3.0731370e+00	   1.0672715e+00	
   6.5670000e+01	   2.5313536e+00	   9.1263346e-01	
   6.5725000e+01	   3.0764037e+00	   9.9435077e-01	
   6.5780000e+01	   2.9772649e+00	   9.9534959e-01	
   6.5835000e+01	   2.8139226e+00	   9.5148519e-01	
   6.5890000e+01	   2.0604668e+00	   6.4149434e-01	
   6.5945000e+01	   2.6884473e+00	   6.1699138e-01	
   6.6000000e+01	   2.2831348e+00	   5.8740702e-01	
   6.6055000e+01	   2.3418457e+00	   6.0744367e-01	
   6.6110000e+01	   2.9799809e+00	   9.6338203e-01	
   6.6165000e+01	   2.9005685e+00	   1.0069793e+00	
   6.6220000e+01	   3.5473516e+00	   1.2276047e+00	
   6.6275000e+01	   3.2489893e+00	   8.2740869e-01	
   6.6330000e+01	   2.7142276e+00	   1.2249816e+00	
   6.6385000e+01	   3.0016521e+00	   9.3306188e-01	
   6.6440000e+01	   3.3580433e+00	   8.7187646e-01	
   6.6495000e+01	   3.0077946e+00	   9.0372322e-01	
   6.6550000e+01	   2.4957996e+00	   6.7793185e-01	
   6.6605000e+01	   1.9548271e+00	   5.5899956e-01	
   6.6660000e+01	   2.2942268e+00	   4.9530861e-01	
   6.6715000e+01	   2.9356269e+00	   1.1308892e+00	
   6.6770000e+01	   2.8451500e+00	   8.0325157e-01	
   6.6825000e+01	   2.6482060e+00	   8.7588337e-01	
   6.6880000e+01	   3.4273429e+00	   1.1048806e+00	
   6.6935000e+01	   3.3246109e+00	   9.1401870e-01	
   6.6990000e+01	   3.2881331e+00	   9.4598784e-01	
   6.7045000e+01	   3.4328826e+00	   9.0309700e-01	
   6.7100000e+01	   2.8505493e+00	   9.3651434e-01	
   6.7155000e+01	   2.8390282e+00	   8.4728960e-01	
   6.7210000e+01	   2.6212970e+00	   6.1831052e-01	
   6.7265000e+01	   3.0321695e+00	   6.7747328e-01	
   6.7320000e+01	   3.1863790e+00	   9.0505849e-01	
   6.7375000e+01	   3.9270832e+00	   1.1152887e+00	
   6.7430000e+01	   3.3701039e+00	   9.8106835e-01	
   6.7485000e+01	   3.5854609e+00	   1.1525567e+00	
   6.7540000e+01	   3.2566480e+00	   1.1510568e+00	
   6.7595000e+01	   3.4785375e+00	   1.0409393e+00	
   6.7650000e+01	   3.7755147e+00	   1.3284482e+00	
   6.7705000e+01	   3.0825496e+00	   1.2033602e+00	
   6.7760000e+01	   2.9544251e+00	   1.0349866e+00	
   6.7815000e+01	   3.0273797e+00	   9.7947591e-01	
   6.7870000e+01	   3.2054195e+00	   8.2914601e-01	
   6.7925000e+01	   3.0795329e+00	   8.8078242e-01	
   6.7980000e+01	   2.6578007e+00	   9.9144550e-01	
   6.8035000e+01	   3.5936659e+00	   1.2102553e+00	
   6.8090000e+01	   3.5453928e+00	   1.3505036e+00	
   6.8145000e+01	   3.7367970e+00	   1.2301808e+00	
   6.8200000e+01	   4.5475605e+00	   1.3664834e+00	
   6.8255000e+01	   3.6152142e+00	   1.5737677e+00	
   6.8310000e+01	   4.0355773e+00	   1.2362662e+00	
   6.8365000e+01	   3.8506116e+00	   9.9537243e-01	
   6.8420000e+01	   3.3312849e+00	   1.1350078e+00	
   6.8475000e+01	   3.9386444e+00	   1.0864905e+00	
   6.8530000e+01	   3.8356347e+00	   1.0379993e+00	
   6.8585000e+01	   2.7636604e+00	   8.5490779e-01	
   6.8640000e+01	   3.1112180e+00	   5.9021484e-01	
   6.8695000e+01	   3.7465023e+00	   1.2607330e+00	
   6.8750000e+01	   3.7125461e+00	   1.4456737e+00	
   6.8805000e+01	   4.1356253e+00	   1.2285909e+00	
   6.8860000e+01	   3.8775177e+00	   1.2183991e+00	
   6.8915000e+01	   3.7772802e+00	   1.2691997e+00	
   6.8970000e+01	   4.5388037e+00	   1.1369683e+00	
   6.9025000e+01	   3.6109849e+00	   8.3910028e-01	
   6.9080000e+01	   3.7920502e+00	   9.8328428e-01	
   6.9135000e+01	   3.5273267e+00	   1.1643971e+00	
   6.9190000e+01	   3.5002480e+00	   1.1438296e+00	
   6.9245000e+01	   3.3773536e+00	   8.4925620e-01	
   6.9300000e+01	   3.5082640e+00	   9.5616307e-01	
   6.9355000e+01	   4.3624926e+00	   1.6165091e+00	
   6.9410000e+01	   4.0752303e+00	   1.3331421e+00	
   6.9465000e+01	   4.4474646e+00	   1.2498073e+00	
   6.9520000e+01	   3.9952905e+00	   1.1095597e+00	
   6.9575000e+01	   3.7511413e+00	   1.4514950e+00	
   6.9630000e+01	   3.7696731e+00	   1.3390032e+00	
   6.9685000e+01	   3.8217400e+00	   1.0858057e+00	
   6.9740000e+01	   3.4315969e+00	   1.1720437e+00	
   6.9795000e+01	   3.5527610e+00	   9.4755269e-01	
   6.9850000e+01	   3.8780512e+00	   1.1821531e+00	
   6.9905000e+01	   3.2139413e+00	   9.5691590e-01	
   6.9960000e+01	   3.7129155e+00	   1.0434924e+00	
   7.0015000e+01	   4.3694670e+00	   1.2203403e+00	
   7.0070000e+01	   4.2901619e+00	   1.4619776e+00	
   7.0125000e+01	   4.5776866e+00	   1.4444203e+00	
   7.0180000e+01	   3.9592452e+00	   1.2164321e+00	
   7.0235000e+01	   4.1907177e+00	   1.2653382e+00	
   7.0290000e+01	   4.3516709e+00	   1.3635996e+00	
   7.0345000e+01	   3.8451504e+00	   1.1123704e+00	
   7.0400000e+01	   3.8412560e+00	   1.0113044e+00	
   7.0455000e+01	   3.7756716e+00	   1.1715861e+00	
   7.0510000e+01	   3.8157436e+00	   1.3672976e+00	
   7.0565000e+01	   3.5156633e+00	   9.4517980e-01	
   7.0620000e+01	   3.3153173e+00	   1.0820759e+00	
   7.0675000e+01	   4.2616585e+00	   1.3306220e+00	
   7.0730000e+01	   4.6892718e+00	   1.5135715e+00	
   7.0785000e+01	   4.3918887e+00	   1.5315588e+00	
   7.0840000e+01	   4.5025115e+00	   1.3497075e+00	
   7.0895000e+01	   4.2209762e+00	   1.3951845e+00	
   7.0950000e+01	   3.9421647e+00	   1.4181262e+00	
   7.1005000e+01	   4.3387172e+00	   1.2752610e+00	
   7.1060000e+01	   3.7761066e+00	   1.1877828e+00	
   7.1115000e+01	   3.6211597e+00	   1.0427616e+00	
   7.1170000e+01	   4.3255223e+00	   1.0546011e+00	
   7.1225000e+01	   3.3792431e+00	   1.1079405e+00	
   7.1280000e+01	   3.8542475e+00	   7.4746643e-01	
   7.1335000e+01	   4.3312993e+00	   1.2538225e+00	
   7.1390000e+01	   3.9080193e+00	   1.1956057e+00	
   7.1445000e+01	   4.3476400e+00	   1.4133648e+00	
   7.1500000e+01	   4.6791094e+00	   1.5939114e+00	
   7.1555000e+01	   4.0453275e+00	   1.4074777e+00	
   7.1610000e+01	   4.2928093e+00	   1.3978274e+00	
   7.1665000e+01	   4.3114476e+00	   1.6130396e+00	
   7.1720000e+01	   4.0541750e+00	   1.2859698e+00	
   7.1775000e+01	   3.6324108e+00	   1.1679164e+00	
   7.1830000e+01	   4.3247337e+00	   1.3289607e+00	
   7.1885000e+01	   3.5900168e+00	   1.0283290e+00	
   7.1940000e+01	   3.5461567e+00	   9.6125828e-01	
   7.1995000e+01	   3.3149628e+00	   8.2595768e-01	
   7.2050000e+01	   3.1963303e+00	   7.2538171e-01	
   7.2105000e+01	   4.0535783e+00	   1.4490623e+00	
   7.2160000e+01	   3.8954602e+00	   1.3222291e+00	
   7.2215000e+01	   4.5274353e+00	   1.5255032e+00	
   7.2270000e+01	   4.0696037e+00	   1.2816218e+00	
   7.2325000e+01	   4.0463265e+00	   1.4310531e+00	
   7.2380000e+01	   4.4350560e+00	   1.3876255e+00	
   7.2435000e+01	   3.5959460e+00	   9.7369014e-01	
   7.2490000e+01	   3.7943803e+00	   1.3125169e+00	
   7.2545000e+01	   3.5295739e+00	   1.1826794e+00	
   7.2600000e+01	   3.9114467e+00	   1.1807361e+00	
   7.2655000e+01	   3.1083135e+00	   9.1426800e-01	
   7.2710000e+01	   3.3409893e+00	   8.2743472e-01	
   7.2765000e+01	   3.4131203e+00	   1.0402630e+00	
   7.2820000e+01	   3.8855265e+00	   1.2867934e+00	
   7.2875000e+01	   3.5497038e+00	   9.0571470e-01	
   7.2930000e+01	   2.9921583e+00	   1.2154961e+00	
   7.2985000e+01	   3.5416524e+00	   1.2740353e+00	
   7.3040000e+01	   3.7149352e+00	   1.2579352e+00	
   7.3095000e+01	   3.3020883e+00	   1.1355241e+00	
   7.3150000e+01	   2.9863625e+00	   1.0444583e+00	
   7.3205000e+01	   3.5900557e+00	   9.4744272e-01	
   7.3260000e+01	   3.1045287e+00	   9.4482841e-01	
   7.3315000e+01	   3.2048371e+00	   7.3073028e-01	
   7.3370000e+01	   2.8765271e+00	   7.3838403e-01	
   7.3425000e+01	   2.9346994e+00	   8.8929931e-01	
   7.3480000e+01	   3.3863244e+00	   1.2263055e+00	
   7.3535000e+01	   3.6166851e+00	   1.2754943e+00	
   7.3590000e+01	   3.2738169e+00	   1.0942759e+00	
   7.3645000e+01	   3.6535677e+00	   1.2378545e+00	
   7.3700000e+01	   3.4487044e+00	   1.1713269e+00	
   7.3755000e+01	   2.9990490e+00	   1.0091157e+00	
   7.3810000e+01	   3.3039783e+00	   1.0700382e+00	
   7.3865000e+01	   3.1683857e+00	   7.6876774e-01	
   7.3920000e+01	   2.8442789e+00	   7.9716181e-01	
   7.3975000e+01	   3.3479064e+00	   6.9864333e-01	
   7.4030000e+01	   2.6047802e+00	   4.4645580e-01	
   7.4085000e+01	   2.6193450e+00	   8.8163715e-01	
   7.4140000e+01	   3.2498977e+00	   1.2233015e+00	
   7.4195000e+01	   3.1865297e+00	   1.1512230e+00	
   7.4250000e+01	   3.0904119e+00	   1.0361235e+00	
   7.4305000e+01	   3.3757890e+00	   1.3785767e+00	
   7.4360000e+01	   3.5874225e+00	   1.2969454e+00	
   7.4415000e+01	   3.1711199e+00	   1.1048804e+00	
   7.4470000e+01	   3.2785505e+00	   8.7516651e-01	
   7.4525000e+01	   2.9003149e+00	   8.3837172e-01	
   7.4580000e+01	   2.4430965e+00	   8.8200766e-01	
   7.4635000e+01	   2.5227667e+00	   7.2650035e-01	
   7.4690000e+01	   2.4362680e+00	   7.6343264e-01	
   7.4745000e+01	   2.3457708e+00	   7.9312993e-01	
   7.4800000e+01	   2.3014689e+00	   4.7461861e-01	
   7.4855000e+01	   2.5166379e+00	   8.8874086e-01	
   7.4910000e+01	   3.3249787e+00	   7.4890355e-01	
   7.4965000e+01	   3.0122467e+00	   1.0313630e+00	
   7.5020000e+01	   3.3496161e+00	   1.2880390e+00	
   7.5075000e+01	   3.6822516e+00	   1.3336481e+00	
   7.5130000e+01	   3.1053703e+00	   1.0328309e+00	
   7.5185000e+01	   2.2287243e+00	   8.8229943e-01	
   7.5240000e+01	   2.4887508e+00	   1.0551627e+00	
   7.5295000e+01	   2.3800697e+00	   7.4760686e-01	
   7.5350000e+01	   2.5009202e+00	   8.1106672e-01	
   7.5405000e+01	   2.0353832e+00	   6.0173986e-01	
   7.5460000e+01	   2.0944166e+00	   5.2796040e-01	
   7.5515000e+01	   2.0205220e+00	   5.8742142e-01	
   7.5570000e+01	   2.1232573e+00	   4.1355947e-01	
   7.5625000e+01	   2.6395783e+00	   9.2551293e-01	
   7.5680000e+01	   3.0572209e+00	   8.6032682e-01	
   7.5735000e+01	   3.3989065e+00	   1.1688527e+00	
   7.5790000e+01	   2.7777655e+00	   8.6626165e-01	
   7.5845000e+01	   2.2006515e+00	   7.9322754e-01	
   7.5900000e+01	   2.3657606e+00	   1.0656742e+00	
   7.5955000e+01	   2.6185206e+00	   8.7411017e-01	
   7.6010000e+01	   2.2585050e+00	   8.0362089e-01	
   7.6065000e+01	   1.9132761e+00	   6.3616704e-01	
   7.6120000e+01	   1.9186434e+00	   5.4704695e-01	
   7.6175000e+01	   1.9270234e+00	   5.8198081e-01	
   7.6230000e+01	   2.0091874e+00	   5.5772359e-01	
   7.6285000e+01	   2.1696781e+00	   7.9849731e-01	
   7.6340000e+01	   2.5787356e+00	   8.5766039e-01	
   7.6395000e+01	   2.5607240e+00	   1.0454318e+00	
   7.6450000e+01	   2.1565595e+00	   8.2264122e-01	
   7.6505000e+01	   2.3786457e+00	   7.0513214e-01	
   7.6560000e+01	   2.5212962e+00	   8.6876675e-01	
   7.6615000e+01	   1.7610621e+00	   5.1047959e-01	
   7.6670000e+01	   1.8099843e+00	   5.2113219e-01	
   7.6725000e+01	   1.5887423e+00	   6.5217849e-01	
   7.6780000e+01	   1.1346996e+00	   4.2710344e-01	
   7.6835000e+01	   1.8068303e+00	   2.3788100e-01	
   7.6890000e+01	   1.7900613e+00	   6.7570377e-01	
   7.6945000e+01	   1.9164962e+00	   9.0169479e-01	
   7.7000000e+01	   1.7250760e+00	   7.1447684e-01	
   7.7055000e+01	   2.0604762e+00	   8.4785790e-01	
   7.7110000e+01	   1.9580474e+00	   9.3088911e-01	
   7.7165000e+01	   1.6481009e+00	   6.2917259e-01	
   7.7220000e+01	   1.9349987e+00	   6.7172627e-01	
   7.7275000e+01	   2.3092309e+00	   8.2689996e-01	
   7.7330000e+01	   1.4261633e+00	   5.1263893e-01	
   7.7385000e+01	   1.2637840e+00	   2.7270030e-01	
   7.7440000e+01	   7.8813124e-01	   1.9212797e-01	
   7.7495000e+01	   1.3022077e+00	   2.9853578e-01	
   7.7550000e+01	   2.0754316e+00	   6.7016512e-01	
   7.7605000e+01	   1.7553576e+00	   8.4283359e-01	
   7.7660000e+01	   2.0012263e+00	   1.0434944e+00	
   7.7715000e+01	   2.0364631e+00	   1.0775021e+00	
   7.7770000e+01	   2.3625161e+00	   1.1110660e+00	
   7.7825000e+01	   1.7613160e+00	   7.3563300e-01	
   7.7880000e+01	   1.6223968e+00	   5.9132951e-01	
   7.7935000e+01	   1.9697712e+00	   6.0361002e-01	
   7.7990000e+01	   1.7865659e+00	   6.0314859e-01	
   7.8045000e+01	   1.1403931e+00	   3.5267728e-01	
   7.8100000e+01	   1.0156410e+00	   5.3995946e-01	
   7.8155000e+01	   1.1575246e+00	   4.0507922e-01	
   7.8210000e+01	   1.4968880e+00	   5.8821256e-01	
   7.8265000e+01	   1.9515935e+00	   8.5752353e-01	
   7.8320000e+01	   1.6202180e+00	   9.7741372e-01	
   7.8375000e+01	   1.9168591e+00	   8.9283924e-01	
   7.8430000e+01	   1.8750685e+00	   1.0615742e+00	
   7.8485000e+01	   2.1064618e+00	   8.5648677e-01	
   7.8540000e+01	   2.0248681e+00	   6.0365792e-01	
   7.8595000e+01	   1.9290223e+00	   7.2505245e-01	
   7.8650000e+01	   1.6181261e+00	   8.2065303e-01	
   7.8705000e+01	   1.5562820e+00	   5.5340656e-01	
   7.8760000e+01	   1.4636360e+00	   5.5722914e-01	
   7.8815000e+01	   1.4573577e+00	   5.6064486e-01	
   7.8870000e+01	   1.4099047e+00	   4.8403754e-01	
   7.8925000e+01	   1.3754530e+00	   8.0998456e-01	
   7.8980000e+01	   1.5352008e+00	   7.6853583e-01	
   7.9035000e+01	   2.1965736e+00	   9.9874458e-01	
   7.9090000e+01	   1.9554792e+00	   9.4618228e-01	
   7.9145000e+01	   1.9074648e+00	   1.0459349e+00	
   7.9200000e+01	   2.0672039e+00	   9.8423440e-01	
   7.9255000e+01	   1.5217016e+00	   8.0390144e-01	
   7.9310000e+01	   2.0203821e+00	   8.3562414e-01	
   7.9365000e+01	   1.8489248e+00	   8.7249120e-01	
   7.9420000e+01	   1.6698131e+00	   5.8237778e-01	
   7.9475000e+01	   1.2253110e+00	   4.8574952e-01	
   7.9530000e+01	   1.4487676e+00	   4.8177329e-01	
   7.9585000e+01	   1.4107160e+00	   5.0845568e-01	
   7.9640000e+01	   1.7015047e+00	   7.5330977e-01	
   7.9695000e+01	   1.6234849e+00	   7.1786262e-01	
   7.9750000e+01	   1.7961582e+00	   9.2796244e-01	
   7.9805000e+01	   1.9485988e+00	   6.9690598e-01	
   7.9860000e+01	   1.9939537e+00	   8.4019426e-01	
   7.9915000e+01	   1.8705831e+00	   6.7225143e-01	
   7.9970000e+01	   2.0581617e+00	   8.5993228e-01	
   8.0025000e+01	   1.8615011e+00	   6.4236396e-01	
   8.0080000e+01	   1.1437737e+00	   2.4766356e-01	
   8.0135000e+01	   1.1853446e+00	   3.1966433e-01	
   8.0190000e+01	   1.3359667e+00	   4.2639246e-01	
   8.0245000e+01	   1.9086323e+00	   3.9991755e-01	
   8.0300000e+01	   1.5929367e+00	   5.9811932e-01	
   8.0355000e+01	   1.7672214e+00	   6.0534720e-01	
   8.0410000e+01	   2.3881877e+00	   7.4653436e-01	
   8.0465000e+01	   1.6955440e+00	   7.3437067e-01	
   8.0520000e+01	   1.6269523e+00	   6.5639579e-01	
   8.0575000e+01	   1.5555800e+00	   6.4291879e-01	
   8.0630000e+01	   1.7101488e+00	   5.9078534e-01	
   8.0685000e+01	   1.3904143e+00	   4.0832175e-01	
   8.0740000e+01	   1.1518450e+00	   4.8722297e-01	
   8.0795000e+01	   1.4883014e+00	   1.0122526e-01	
   8.0850000e+01	   1.3438812e+00	   8.7834183e-02	
   8.0905000e+01	   1.7375841e+00	   5.2968932e-01	
   8.0960000e+01	   2.1620622e+00	   1.0119546e+00	
   8.1015000e+01	   1.5693318e+00	   9.2885750e-01	
   8.1070000e+01	   1.9803482e+00	   6.9865386e-01	
   8.1125000e+01	   2.2607823e+00	   1.0416224e+00	
   8.1180000e+01	   2.2599314e+00	   7.7609693e-01	
   8.1235000e+01	   1.5980727e+00	   6.1043772e-01	
   8.1290000e+01	   1.7816225e+00	   3.2910284e-01	
   8.1345000e+01	   2.2456046e+00	   7.0125420e-01	
   8.1400000e+01	   1.5779644e+00	   3.4340504e-01	
   8.1455000e+01	   1.4310520e+00	   1.2850121e-01	
   8.1510000e+01	   1.6810619e+00	   4.5168505e-01	
   8.1565000e+01	   1.6651026e+00	   8.1052233e-01	
   8.1620000e+01	   2.3408507e+00	   7.8812950e-01	
   8.1675000e+01	   1.8110281e+00	   8.6140603e-01	
   8.1730000e+01	   2.3404296e+00	   8.9721965e-01	
   8.1785000e+01	   2.3669487e+00	   1.0542576e+00	
   8.1840000e+01	   2.1940449e+00	   9.3455087e-01	
   8.1895000e+01	   2.2962381e+00	   8.2984162e-01	
   8.1950000e+01	   1.5235512e+00	   5.8897567e-01	
   8.2005000e+01	   1.4408815e+00	   5.3142181e-01	
   8.2060000e+01	   2.1669986e+00	   5.0613769e-01	
   8.2115000e+01	   2.0840017e+00	   5.7581889e-01	
   8.2170000e+01	   1.5846556e+00	   3.1571835e-01	
   8.2225000e+01	   1.6817238e+00	   5.5990652e-01	
   8.2280000e+01	   2.1717758e+00	   9.1307123e-01	
   8.2335000e+01	   2.5563284e+00	   9.1814258e-01	
   8.2390000e+01	   2.1851600e+00	   7.7361293e-01	
   8.2445000e+01	   2.1755389e+00	   7.8520254e-01	
   8.2500000e+01	   2.8036270e+00	   8.8276066e-01	
   8.2555000e+01	   2.4299336e+00	   9.2810526e-01	
   8.2610000e+01	   2.6510537e+00	   1.0467294e+00	
   8.2665000e+01	   1.9162198e+00	   5.2389015e-01	
   8.2720000e+01	   2.3664316e+00	   7.7255138e-01	
   8.2775000e+01	   2.2939064e+00	   5.7980195e-01	
   8.2830000e+01	   1.9762405e+00	   4.5995322e-01	
   8.2885000e+01	   2.0760766e+00	   3.4782841e-01	
   8.2940000e+01	   2.1711153e+00	   6.4035936e-01	
   8.2995000e+01	   2.3552766e+00	   1.0047915e+00	
   8.3050000e+01	   2.4664893e+00	   8.5933518e-01	
   8.3105000e+01	   2.1039018e+00	   6.8542130e-01	
   8.3160000e+01	   2.2882802e+00	   9.8103183e-01	
   8.3215000e+01	   2.6974313e+00	   6.1939953e-01	
   8.3270000e+01	   2.2405757e+00	   7.4623344e-01	
   8.3325000e+01	   2.2397270e+00	   6.4037039e-01	
   8.3380000e+01	   2.6738080e+00	   8.1662402e-01	
   8.3435000e+01	   2.0870817e+00	   7.2869733e-01	
   8.3490000e+01	   1.8453143e+00	   5.2623592e-01	
   8.3545000e+01	   1.4775513e+00	   3.5659800e-01	
   8.3600000e+01	   1.8975627e+00	   4.3871080e-01	
   8.3655000e+01	   2.4657410e+00	   7.3189332e-01	
   8.3710000e+01	   2.5365756e+00	   6.2422998e-01	
   8.3765000e+01	   2.5340390e+00	   8.8445325e-01	
   8.3820000e+01	   2.3182896e+00	   8.6965124e-01	
   8.3875000e+01	   2.7410631e+00	   7.9463615e-01	
   8.3930000e+01	   2.4806689e+00	   6.8109599e-01	
   8.3985000e+01	   2.0830719e+00	   4.3560314e-01	
   8.4040000e+01	   1.9858108e+00	   5.6634204e-01	
   8.4095000e+01	   1.8465029e+00	   3.8219978e-01	
   8.4150000e+01	   1.8353197e+00	   5.3009224e-01	
   8.4205000e+01	   1.5603971e+00	   3.1192536e-01	
   8.4260000e+01	   1.8278812e+00	   4.1661841e-01	
   8.4315000e+01	   2.2761816e+00	   8.0427691e-01	
   8.4370000e+01	   2.3760091e+00	   7.2598104e-01	
   8.4425000e+01	   2.2213472e+00	   6.1932550e-01	
   8.4480000e+01	   2.4076665e+00	   7.3360623e-01	
   8.4535000e+01	   2.4209912e+00	   7.0341384e-01	
   8.4590000e+01	   2.2468428e+00	   5.8386154e-01	
   8.4645000e+01	   1.9247728e+00	   4.2956971e-01	
   8.4700000e+01	   2.1391780e+00	   4.3135220e-01	
   8.4755000e+01	   2.3091357e+00	   4.4538947e-01	
   8.4810000e+01	   1.9519741e+00	   3.4179808e-01	
   8.4865000e+01	   1.6368280e+00	   1.6921181e-01	
   8.4920000e+01	   2.0964259e+00	   6.3278670e-01	
   8.4975000e+01	   2.5226401e+00	   7.7434141e-01	
   8.5030000e+01	   1.6587466e+00	   7.2075465e-01	
   8.5085000e+01	   2.2409317e+00	   8.8908918e-01	
   8.5140000e+01	   1.6004414e+00	   6.1499354e-01	
   8.5195000e+01	   2.6905791e+00	   8.4177092e-01	
   8.5250000e+01	   2.5457072e+00	   7.6161064e-01	
   8.5305000e+01	   1.7895782e+00	   4.1940982e-01	
   8.5360000e+01	   2.1687664e+00	   4.0595747e-01	
   8.5415000e+01	   2.1139166e+00	   3.1850159e-01	
   8.5470000e+01	   2.0327616e+00	   4.0538240e-01	
   8.5525000e+01	   1.7828702e+00	   1.4029277e-01	
   8.5580000e+01	   1.8150827e+00	   4.7094615e-01	
   8.5635000e+01	   2.5381667e+00	   8.6982507e-01	
   8.5690000e+01	   2.0329705e+00	   6.1006398e-01	
   8.5745000e+01	   2.5747703e+00	   9.0129736e-01	
   8.5800000e+01	   2.4337950e+00	   7.4814387e-01	
   8.5855000e+01	   2.3921507e+00	   7.7336501e-01	
   8.5910000e+01	   2.2899910e+00	   5.9642630e-01	
   8.5965000e+01	   2.4216401e+00	   5.0009278e-01	
   8.6020000e+01	   2.3329733e+00	   4.3712872e-01	
   8.6075000e+01	   1.7232469e+00	   4.8573667e-01	
   8.6130000e+01	   1.9891217e+00	   3.9190321e-01	
   8.6185000e+01	   1.5039183e+00	   1.4567044e-01	
   8.6240000e+01	   1.6083585e+00	   2.8752756e-01	
   8.6295000e+01	   2.5403547e+00	   7.9716181e-01	
   8.6350000e+01	   2.8824161e+00	   9.2452316e-01	
   8.6405000e+01	   2.6247950e+00	   8.0863999e-01	
   8.6460000e+01	   2.4335910e+00	   7.9096301e-01	
   8.6515000e+01	   2.4487069e+00	   5.5246433e-01	
   8.6570000e+01	   2.3657515e+00	   8.3429165e-01	
   8.6625000e+01	   2.1183857e+00	   5.5953766e-01	
   8.6680000e+01	   2.0665222e+00	   3.5008425e-01	
   8.6735000e+01	   2.4988485e+00	   4.2657261e-01	
   8.6790000e+01	   2.2494159e+00	   5.5850624e-01	
   8.6845000e+01	   1.7241805e+00	   3.0392315e-01	
   8.6900000e+01	   1.8029761e+00	   1.5851038e-01	
   8.6955000e+01	   2.3452310e+00	   5.0297604e-01	
   8.7010000e+01	   2.9715462e+00	   8.2843401e-01	
   8.7065000e+01	   2.3440699e+00	   8.1525860e-01	
   8.7120000e+01	   2.2144443e+00	   6.8385519e-01	
   8.7175000e+01	   1.9977087e+00	   6.2013951e-01	
   8.7230000e+01	   2.4110071e+00	   4.9438878e-01	
   8.7285000e+01	   2.2493138e+00	   7.5461839e-01	
   8.7340000e+01	   2.6336153e+00	   5.2416478e-01	
   8.7395000e+01	   1.8546716e+00	   2.8793381e-01	
   8.7450000e+01	   2.0932412e+00	   5.1565661e-01	
   8.7505000e+01	   2.2616591e+00	   3.7863843e-01	
   8.7560000e+01	   1.6887984e+00	   4.5823571e-01	
   8.7615000e+01	   1.7906727e+00	   4.4889184e-01	
   8.7670000e+01	   2.4845668e+00	   6.3233745e-01	
   8.7725000e+01	   1.8349572e+00	   6.8779337e-01	
   8.7780000e+01	   2.5264206e+00	   6.7936646e-01	
   8.7835000e+01	   2.5297170e+00	   6.0812010e-01	
   8.7890000e+01	   2.1522564e+00	   9.0837781e-01	
   8.7945000e+01	   2.5180413e+00	   7.4005812e-01	
   8.8000000e+01	   2.0847163e+00	   2.8166544e-01	
   8.8055000e+01	   1.7592294e+00	   3.9718175e-02	
   8.8110000e+01	   2.0145838e+00	   2.1578018e-01	
   8.8165000e+01	   1.9102402e+00	   8.6503183e-02	
   8.8220000e+01	   2.2590710e+00	   5.6660376e-01	
   8.8275000e+01	   2.2733935e+00	   5.3812388e-01	
   8.8330000e+01	   2.2123639e+00	   9.6017060e-01	
   8.8385000e+01	   2.8394899e+00	   9.1400269e-01	
   8.8440000e+01	   2.1908466e+00	   4.9605154e-01	
   8.8495000e+01	   2.1740038e+00	   6.7490632e-01	
   8.8550000e+01	   2.2338660e+00	   5.3282669e-01	
   8.8605000e+01	   1.9348292e+00	   4.3673679e-01	
   8.8660000e+01	   1.7719921e+00	   4.6845527e-01	
   8.8715000e+01	   2.0544105e+00	   1.8905273e-01	
   8.8770000e+01	   2.0457520e+00	   2.3173027e-01	
   8.8825000e+01	   2.2249661e+00	   2.3557373e-01	
   8.8880000e+01	   2.4351515e+00	   7.0651045e-01	
   8.8935000e+01	   2.0694630e+00	   6.4163679e-01	
   8.8990000e+01	   2.6529174e+00	   7.2527690e-01	
   8.9045000e+01	   2.4456162e+00	   7.8384361e-01	
   8.9100000e+01	   2.3904137e+00	   6.6845145e-01	
   8.9155000e+01	   2.4855947e+00	   5.6613791e-01	
   8.9210000e+01	   2.3110479e+00	   4.5584431e-01	
   8.9265000e+01	   2.3990943e+00	   5.3030410e-01	
   8.9320000e+01	   2.3695362e+00	   5.7969497e-01	
   8.9375000e+01	   1.9342701e+00	   3.4294347e-01	
   8.9430000e+01	   2.0676212e+00	   1.4064724e-01	
   8.9485000e+01	   1.8654132e+00	   2.0376205e-01	
   8.9540000e+01	   2.3435946e+00	   6.8063947e-01	
   8.9595000e+01	   2.5170726e+00	   7.7123126e-01	
   8.9650000e+01	   2.6405913e+00	   7.8366634e-01	
   8.9705000e+01	   2.9976121e+00	   9.5779796e-01	
   8.9760000e+01	   3.0268063e+00	   8.8189904e-01	
   8.9815000e+01	   3.0045317e+00	   9.1529886e-01	
   8.9870000e+01	   2.2220464e+00	   7.7076451e-01	
   8.9925000e+01	   2.6097623e+00	   5.1055541e-01	
   8.9980000e+01	   2.5877867e+00	   8.1597658e-01	
   9.0035000e+01	   2.5235743e+00	   4.8448440e-01	
   9.0090000e+01	   2.1472446e+00	   4.1299405e-01	
   9.0145000e+01	   2.1677701e+00	   3.1016155e-01	
   9.0200000e+01	   2.5019824e+00	   5.0864482e-01	
   9.0255000e+01	   2.8881276e+00	   7.5581903e-01	
   9.0310000e+01	   2.4211737e+00	   6.8841878e-01	
   9.0365000e+01	   3.3149680e+00	   9.0386503e-01	
   9.0420000e+01	   3.2899529e+00	   1.2018640e+00	
   9.0475000e+01	   2.5040806e+00	   1.0256129e+00	
   9.0530000e+01	   2.4518261e+00	   8.7373436e-01	
   9.0585000e+01	   3.4150104e+00	   6.7362806e-01	
   9.0640000e+01	   3.1667625e+00	   7.7793357e-01	
   9.0695000e+01	   2.9980884e+00	   5.6630202e-01	
   9.0750000e+01	   2.7003576e+00	   6.2194472e-01	
   9.0805000e+01	   2.4639229e+00	   3.9698409e-01	
   9.0860000e+01	   2.5097378e+00	   5.6753399e-01	
   9.0915000e+01	   2.7442076e+00	   9.1359545e-01	
   9.0970000e+01	   3.0790239e+00	   9.7595769e-01	
   9.1025000e+01	   3.4894110e+00	   9.7716536e-01	
   9.1080000e+01	   2.9872528e+00	   8.0663534e-01	
   9.1135000e+01	   2.9345737e+00	   9.0857353e-01	
   9.1190000e+01	   2.7724556e+00	   8.1679614e-01	
   9.1245000e+01	   3.0377291e+00	   7.9161335e-01	
   9.1300000e+01	   2.6851274e+00	   6.6439129e-01	
   9.1355000e+01	   3.3943322e+00	   6.1188553e-01	
   9.1410000e+01	   2.4509814e+00	   5.0042524e-01	
   9.1465000e+01	   1.9312469e+00	   2.5607348e-01	
   9.1520000e+01	   2.0967979e+00	   4.6304565e-01	
   9.1575000e+01	   2.7294431e+00	   7.3682792e-01	
   9.1630000e+01	   2.5829367e+00	   7.2367516e-01	
   9.1685000e+01	   3.0189458e+00	   6.1289910e-01	
   9.1740000e+01	   2.6621092e+00	   7.4479905e-01	
   9.1795000e+01	   2.8388755e+00	   8.6464588e-01	
   9.1850000e+01	   2.8083236e+00	   7.5557950e-01	
   9.1905000e+01	   2.9139665e+00	   6.0776376e-01	
   9.1960000e+01	   2.9510452e+00	   6.1241579e-01	
   9.2015000e+01	   2.8929075e+00	   5.7151204e-01	
   9.2070000e+01	   2.0900009e+00	   4.8487083e-01	
   9.2125000e+01	   2.1650921e+00	   2.2221919e-01	
   9.2180000e+01	   2.2670455e+00	   2.7828370e-01	
   9.2235000e+01	   2.8754796e+00	   5.1969206e-01	
   9.2290000e+01	   3.1082419e+00	   6.2684027e-01	
   9.2345000e+01	   2.7641604e+00	   5.8712000e-01	
   9.2400000e+01	   2.7909935e+00	   6.3790433e-01	
   9.2455000e+01	   2.8223368e+00	   6.5794389e-01	
   9.2510000e+01	   2.9644996e+00	   6.5452940e-01	
   9.2565000e+01	   2.7330283e+00	   5.6266506e-01	
   9.2620000e+01	   2.5349526e+00	   4.0293066e-01	
   9.2675000e+01	   2.6289753e+00	   2.7884824e-01	
   9.2730000e+01	   2.2471518e+00	   3.0431984e-01	
   9.2785000e+01	   1.9748931e+00	  -1.1826164e-02	
   9.2840000e+01	   2.0407792e+00	   3.0666342e-01	
   9.2895000e+01	   2.6033989e+00	   5.2159762e-01	
   9.2950000e+01	   2.8846233e+00	   6.4682709e-01	
   9.3005000e+01	   2.7971575e+00	   6.0512133e-01	
   9.3060000e+01	   3.1335226e+00	   7.5087706e-01	
   9.3115000e+01	   3.5331128e+00	   6.7792678e-01	
   9.3170000e+01	   2.3551978e+00	   6.7854036e-01	
   9.3225000e+01	   2.5052763e+00	   5.9564327e-01	
   9.3280000e+01	   2.1596357e+00	   1.9470693e-01	
   9.3335000e+01	   3.0909855e+00	   2.4209185e-01	
   9.3390000e+01	   2.6840000e+00	   2.9430911e-01	
   9.3445000e+01	   1.9444598e+00	   1.9437841e-01	
   9.3500000e+01	   2.6288817e+00	   7.4300714e-02	
   9.3555000e+01	   2.9464959e+00	   5.5620360e-01	
   9.3610000e+01	   3.5768841e+00	   6.4937495e-01	
   9.3665000e+01	   2.5715251e+00	   8.2229476e-01	
   9.3720000e+01	   3.0573329e+00	   4.7852623e-01	
   9.3775000e+01	   3.3777476e+00	   6.2059023e-01	
   9.3830000e+01	   2.9997039e+00	   7.1664716e-01	
   9.3885000e+01	   3.4281959e+00	   6.5269333e-01	
   9.3940000e+01	   2.5310877e+00	   4.5294259e-01	
   9.3995000e+01	   2.8972327e+00	   2.8586219e-01	
   9.4050000e+01	   2.6655447e+00	   4.4662819e-01	
   9.4105000e+01	   2.4341458e+00	   3.0723275e-01	
   9.4160000e+01	   2.6019160e+00	   1.2368189e-01	
   9.4215000e+01	   3.0152035e+00	   3.5802953e-01	
   9.4270000e+01	   3.4452855e+00	   8.1314108e-01	
   9.4325000e+01	   3.0540956e+00	   8.3425591e-01	
   9.4380000e+01	   3.1404914e+00	   6.4161686e-01	
   9.4435000e+01	   3.1279222e+00	   7.9352752e-01	
   9.4490000e+01	   3.2296503e+00	   7.1123228e-01	
   9.4545000e+01	   3.0075833e+00	   6.7316553e-01	
   9.4600000e+01	   3.1851525e+00	   3.3342979e-01	
   9.4655000e+01	   2.4369331e+00	   4.1323537e-01	
   9.4710000e+01	   3.1775770e+00	   5.0524049e-01	
   9.4765000e+01	   2.6950488e+00	   4.5523191e-01	
   9.4820000e+01	   2.3113435e+00	  -2.5666024e-02	
   9.4875000e+01	   2.3109114e+00	   1.9413876e-01	
   9.4930000e+01	   3.4697699e+00	   7.1228972e-01	
   9.4985000e+01	   3.1442516e+00	   8.5126146e-01	
   9.5040000e+01	   3.5710246e+00	   7.5631313e-01	
   9.5095000e+01	   3.7828032e+00	   6.8513219e-01	
   9.5150000e+01	   3.5129970e+00	   8.7107548e-01	
   9.5205000e+01	   3.7277061e+00	   8.6703472e-01	
   9.5260000e+01	   3.1898883e+00	   4.6915533e-01	
   9.5315000e+01	   2.8865582e+00	   3.9676366e-01	
   9.5370000e+01	   3.0761941e+00	   5.4847862e-01	
   9.5425000e+01	   2.4786881e+00	   2.0988964e-01	
   9.5480000e+01	   2.8434007e+00	   2.4464008e-02	
   9.5535000e+01	   2.6690177e+00	   8.6219584e-02	
   9.5590000e+01	   3.0966043e+00	   8.7861298e-01	
   9.5645000e+01	   3.1694276e+00	   7.7398547e-01	
   9.5700000e+01	   3.5916800e+00	   7.3022990e-01	
   9.5755000e+01	   3.2633869e+00	   5.5852487e-01	
   9.5810000e+01	   3.2368673e+00	   8.2843503e-01	
   9.5865000e+01	   3.3736929e+00	   9.1913478e-01	
   9.5920000e+01	   3.1738226e+00	   6.6491030e-01	
   9.5975000e+01	   2.7787221e+00	   2.7672969e-01	
   9.6030000e+01	   2.9259922e+00	   4.0240698e-01	
   9.6085000e+01	   2.3906736e+00	   5.6443804e-01	
   9.6140000e+01	   2.5955512e+00	   3.8532006e-01	
   9.6195000e+01	   2.2542628e+00	   2.2365469e-01	
   9.6250000e+01	   3.1549891e+00	   4.8390580e-01	
   9.6305000e+01	   3.0650317e+00	   6.9263056e-01	
   9.6360000e+01	   3.1510807e+00	   7.6876774e-01	
   9.6415000e+01	   3.0352989e+00	   6.4767723e-01	
   9.6470000e+01	   2.9257668e+00	   5.2847918e-01	
   9.6525000e+01	   2.9878680e+00	   6.6521687e-01	
   9.6580000e+01	   2.9658355e+00	   6.5250777e-01	
   9.6635000e+01	   2.7964674e+00	   5.9856310e-01	
   9.6690000e+01	   2.1184133e+00	   1.9503846e-01	
   9.6745000e+01	   2.3025404e+00	   3.3510114e-01	
   9.6800000e+01	   2.7787421e+00	   2.9667366e-01	
   9.6855000e+01	   2.9487235e+00	   2.8755687e-01	
   9.6910000e+01	   3.0373765e+00	   5.7747573e-01	
   9.6965000e+01	   3.0242972e+00	   6.8385519e-01	
   9.7020000e+01	   3.0459111e+00	   7.0062079e-01	
   9.7075000e+01	   2.7544623e+00	   5.0324957e-01	
   9.7130000e+01	   3.0200641e+00	   4.3195856e-01	
   9.7185000e+01	   3.1673345e+00	   5.6930995e-01	
   9.7240000e+01	   2.9431635e+00	   5.4319949e-01	
   9.7295000e+01	   3.0379646e+00	   3.6709246e-01	
   9.7350000e+01	   2.7086215e+00	   4.0491408e-01	
   9.7405000e+01	   2.3562938e+00	   4.2487531e-01	
   9.7460000e+01	   3.3551389e+00	   6.3066395e-01	
   9.7515000e+01	   2.9079883e+00	   3.9186898e-01	
   9.7570000e+01	   3.0558245e+00	   5.2086707e-01	
   9.7625000e+01	   3.6809668e+00	   7.1001439e-01	
   9.7680000e+01	   3.7234037e+00	   7.4971717e-01	
   9.7735000e+01	   3.0832582e+00	   6.8480203e-01	
   9.7790000e+01	   3.0535355e+00	   6.5376350e-01	
   9.7845000e+01	   3.0284850e+00	   5.8651696e-01	
   9.7900000e+01	   3.0321639e+00	   4.1605524e-01	
   9.7955000e+01	   2.9531424e+00	   4.7769974e-01	
   9.8010000e+01	   2.8963930e+00	   3.0051014e-01	
   9.8065000e+01	   2.3138301e+00	   3.6968784e-01	
   9.8120000e+01	   2.9735194e+00	   8.0537828e-01	
   9.8175000e+01	   3.4203656e+00	   8.5539497e-01	
   9.8230000e+01	   3.3899733e+00	   9.2860757e-01	
   9.8285000e+01	   2.7468132e+00	   8.5284623e-01	
   9.8340000e+01	   3.6460167e+00	   9.6272115e-01	
   9.8395000e+01	   3.4285896e+00	   8.6275531e-01	
   9.8450000e+01	   3.6800889e+00	   7.2610885e-01	
   9.8505000e+01	   2.9342487e+00	   6.8765866e-01	
   9.8560000e+01	   3.5248681e+00	   5.5182531e-01	
   9.8615000e+01	   3.0327312e+00	   8.4837174e-01	
   9.8670000e+01	   2.5304059e+00	   2.6389080e-01	
   9.8725000e+01	   2.4565806e+00	   5.8390465e-01	
   9.8780000e+01	   3.3333467e+00	   9.5916989e-01	
   9.8835000e+01	   4.0151553e+00	   9.5684965e-01	
   9.8890000e+01	   3.4176444e+00	   9.7537281e-01	
   9.8945000e+01	   3.3585173e+00	   9.0039604e-01	
   9.9000000e+01	   3.3718382e+00	   9.6946306e-01	
   9.9055000e+01	   3.5389831e+00	   8.1235839e-01	
   9.9110000e+01	   3.4513010e+00	   8.4607973e-01	
   9.9165000e+01	   3.1024219e+00	   4.9968440e-01	
   9.9220000e+01	   3.0396362e+00	   7.4828325e-01	
   9.9275000e+01	   2.6227563e+00	   6.2299107e-01	
   9.9330000e+01	   2.8725313e+00	   5.0125185e-01	
   9.9385000e+01	   2.7641808e+00	   5.4254133e-01	
   9.9440000e+01	   2.8318567e+00	   4.8511020e-01	
   9.9495000e+01	   3.2050891e+00	   1.0162686e+00	
   9.9550000e+01	   3.6223229e+00	   8.5554586e-01	
   9.9605000e+01	   3.1292516e+00	   9.6844622e-01	
   9.9660000e+01	   3.3396330e+00	   1.0404799e+00	
   9.9715000e+01	   3.5837064e+00	   8.5285365e-01	
   9.9770000e+01	   3.5953575e+00	   8.7278394e-01	
   9.9825000e+01	   3.4613271e+00	   9.5545049e-01	
   9.9880000e+01	   3.1155039e+00	   7.5208672e-01	
   9.9935000e+01	   2.9770175e+00	   8.3596954e-01	
   9.9990000e+01	   3.1100652e+00	   7.3610482e-01	
   1.0004500e+02	   2.3495150e+00	   5.4094781e-01	
   1.0010000e+02	   2.5499918e+00	   2.8248310e-01	
   1.0015500e+02	   3.1129013e+00	   7.4896610e-01	
   1.0021000e+02	   3.2993267e+00	   8.4410158e-01	
   1.0026500e+02	   2.4629283e+00	   7.5034812e-01	
   1.0032000e+02	   2.8156025e+00	   6.8595758e-01	
   1.0037500e+02	   3.1770955e+00	   9.5809871e-01	
   1.0043000e+02	   3.2433345e+00	   8.9814646e-01	
   1.0048500e+02	   2.9128347e+00	   7.5239844e-01	
   1.0054000e+02	   2.1275551e+00	   5.2757878e-01	
   1.0059500e+02	   3.0317723e+00	   7.0585228e-01	
   1.0065000e+02	   2.8623373e+00	   7.5869337e-01	
   1.0070500e+02	   2.6200862e+00	   1.8087234e-01	
   1.0076000e+02	   2.5655827e+00	   4.5080913e-01	
   1.0081500e+02	   3.1996815e+00	   1.0152565e+00	
   1.0087000e+02	   3.0480377e+00	   9.9517626e-01	
   1.0092500e+02	   2.4332835e+00	   6.6480233e-01	
   1.0098000e+02	   2.4740428e+00	   7.1384037e-01	
   1.0103500e+02	   2.5762648e+00	   8.7379588e-01	
   1.0109000e+02	   3.3168801e+00	   9.1664962e-01	
   1.0114500e+02	   2.1412647e+00	   5.8522028e-01	
   1.0120000e+02	   2.6028593e+00	   5.7387232e-01	
   1.0125500e+02	   1.9994074e+00	   6.0912272e-01	
   1.0131000e+02	   2.4044477e+00	   3.4476899e-01	
   1.0136500e+02	   2.1690125e+00	   3.9953248e-01	
   1.0142000e+02	   2.5346813e+00	   7.1600440e-01	
   1.0147500e+02	   2.5420893e+00	   9.5151705e-01	
   1.0153000e+02	   2.9544265e+00	   1.0138453e+00	
   1.0158500e+02	   2.4737080e+00	   8.9483168e-01	
   1.0164000e+02	   2.5902923e+00	   7.2599497e-01	
   1.0169500e+02	   2.7216852e+00	   6.3172204e-01	
   1.0175000e+02	   2.9047461e+00	   8.5842456e-01	
   1.0180500e+02	   2.1579863e+00	   6.6323355e-01	
   1.0186000e+02	   1.9297585e+00	   4.2693119e-01	
   1.0191500e+02	   2.1994419e+00	   6.3930830e-01	
   1.0197000e+02	   2.3340838e+00	   5.0538645e-01	
   1.0202500e+02	   2.6036823e+00	   4.4819542e-01	
   1.0208000e+02	   2.3021862e+00	   4.4184988e-01	
   1.0213500e+02	   2.6631110e+00	   6.2193498e-01	
   1.0219000e+02	   3.3013924e+00	   1.1265113e+00	
   1.0224500e+02	   3.1503304e+00	   1.0931677e+00	
   1.0230000e+02	   2.6207935e+00	   9.6302897e-01	
   1.0235500e+02	   2.6760312e+00	   9.0743367e-01	
   1.0241000e+02	   2.7454666e+00	   9.3894835e-01	
   1.0246500e+02	   2.9113025e+00	   8.5306327e-01	
   1.0252000e+02	   2.2503933e+00	   6.8681321e-01	
   1.0257500e+02	   1.9732046e+00	   4.0388194e-01	
   1.0263000e+02	   1.9528055e+00	   5.5703313e-01	
   1.0268500e+02	   1.9351911e+00	   6.3555855e-01	
   1.0274000e+02	   1.9647680e+00	   4.5706857e-01	
   1.0279500e+02	   2.2649380e+00	   7.2151342e-01	
   1.0285000e+02	   3.1962184e+00	   1.0802904e+00	
   1.0290500e+02	   2.3836313e+00	   1.2119707e+00	
   1.0296000e+02	   2.5969915e+00	   9.4337371e-01	
   1.0301500e+02	   2.7555277e+00	   1.0389373e+00	
   1.0307000e+02	   2.7673191e+00	   1.0072952e+00	
   1.0312500e+02	   2.5189071e+00	   1.0308265e+00	
   1.0318000e+02	   2.6250550e+00	   7.7152965e-01	
   1.0323500e+02	   2.2472705e+00	   3.6119662e-01	
   1.0329000e+02	   1.9104929e+00	   6.7362806e-01	
   1.0334500e+02	   2.0886871e+00	   5.1750128e-01	
   1.0340000e+02	   1.8225286e+00	   4.2547695e-01	
   1.0345500e+02	   2.2235426e+00	   8.0497978e-01	
   1.0351000e+02	   2.4404796e+00	   1.0041489e+00	
   1.0356500e+02	   2.7380255e+00	   9.9933476e-01	
   1.0362000e+02	   2.6280334e+00	   8.8438943e-01	
   1.0367500e+02	   2.4801083e+00	   1.0263884e+00	
   1.0373000e+02	   2.8690626e+00	   9.5604350e-01	
   1.0378500e+02	   1.9941548e+00	   8.2106013e-01	
   1.0384000e+02	   2.4849022e+00	   8.8014951e-01	
   1.0389500e+02	   1.5554509e+00	   5.7297133e-01	
   1.0395000e+02	   2.1263215e+00	   5.2675591e-01	
   1.0400500e+02	   2.1144543e+00	   5.5969119e-01	
   1.0406000e+02	   1.7593648e+00	   4.4162654e-01	
   1.0411500e+02	   2.0719472e+00	   6.8665504e-01	
   1.0417000e+02	   1.7033469e+00	   9.4605947e-01	
   1.0422500e+02	   2.1878306e+00	   1.0092278e+00	
   1.0428000e+02	   1.8163906e+00	   9.5699995e-01	
   1.0433500e+02	   2.3795184e+00	   8.2475622e-01	
   1.0439000e+02	   1.9876015e+00	   6.5106355e-01	
   1.0444500e+02	   2.2291053e+00	   7.7152965e-01	
   1.0450000e+02	   1.4401385e+00	   6.1736083e-01	
   1.0455500e+02	   1.3585837e+00	   3.8548127e-01	
   1.0461000e+02	   1.4328185e+00	   4.7083310e-01	
   1.0466500e+02	   1.7710967e+00	   5.4846386e-01	
   1.0472000e+02	   2.3654171e+00	   7.2965964e-01	
   1.0477500e+02	   2.0029282e+00	   8.6091123e-01	
   1.0483000e+02	   1.6495146e+00	   1.0028512e+00	
   1.0488500e+02	   2.1790957e+00	   8.1305777e-01	
   1.0494000e+02	   2.3476030e+00	   1.0414125e+00	
   1.0499500e+02	   2.3241952e+00	   7.7382580e-01	
   1.0505000e+02	   2.2830053e+00	   5.2224371e-01	
   1.0510500e+02	   1.7837703e+00	   6.7529172e-01	
   1.0516000e+02	   1.8697974e+00	   6.4013572e-01	
   1.0521500e+02	   1.5184822e+00	   3.9674939e-01	
   1.0527000e+02	   1.2745861e+00	   4.3863848e-01	
   1.0532500e+02	   1.7236300e+00	   3.7202406e-01	
   1.0538000e+02	   1.9667023e+00	   6.9949192e-01	
   1.0543500e+02	   2.2073960e+00	   1.0351322e+00	
   1.0549000e+02	   2.0651638e+00	   7.6438948e-01	
   1.0554500e+02	   2.2827305e+00	   9.1670225e-01	
   1.0560000e+02	   2.2609132e+00	   1.1614580e+00	
   1.0565500e+02	   1.7510783e+00	   7.6059791e-01	
   1.0571000e+02	   1.8128743e+00	   6.8952209e-01	
   1.0576500e+02	   2.1143039e+00	   5.8077113e-01	
   1.0582000e+02	   1.7381710e+00	   8.9892414e-01	
   1.0587500e+02	   1.1763848e+00	   5.2986853e-01	
   1.0593000e+02	   1.8361679e+00	   4.9204062e-01	
   1.0598500e+02	   1.7134206e+00	   6.8213529e-01	
   1.0604000e+02	   2.1482306e+00	   1.1153061e+00	
   1.0609500e+02	   2.6797300e+00	   1.1742725e+00	
   1.0615000e+02	   2.1595120e+00	   1.0919685e+00	
   1.0620500e+02	   2.3439970e+00	   1.2587885e+00	
   1.0626000e+02	   2.1908066e+00	   1.1623011e+00	
   1.0631500e+02	   2.2537540e+00	   1.0198475e+00	
   1.0637000e+02	   1.7434185e+00	   8.1013075e-01	
   1.0642500e+02	   2.0436022e+00	   8.2812782e-01	
   1.0648000e+02	   2.3564453e+00	   7.3325949e-01	
   1.0653500e+02	   1.4125089e+00	   5.7846488e-01	
   1.0659000e+02	   2.0075049e+00	   4.9354793e-01	
   1.0664500e+02	   2.2910660e+00	   1.0105539e+00	
   1.0670000e+02	   2.8438088e+00	   1.2819197e+00	
   1.0675500e+02	   2.3961795e+00	   1.1286915e+00	
   1.0681000e+02	   2.1918289e+00	   9.7331651e-01	
   1.0686500e+02	   2.7548147e+00	   1.1275493e+00	
   1.0692000e+02	   2.6375140e+00	   1.1672267e+00	
   1.0697500e+02	   2.4217949e+00	   1.0191953e+00	
   1.0703000e+02	   2.6189077e+00	   9.7905519e-01	
   1.0708500e+02	   2.5247706e+00	   8.8642140e-01	
   1.0714000e+02	   2.1768827e+00	   7.4029806e-01	
   1.0719500e+02	   2.5377350e+00	   7.8821304e-01	
   1.0725000e+02	   2.1472495e+00	   8.3488139e-01	
   1.0730500e+02	   2.6205359e+00	   8.6975377e-01	
   1.0736000e+02	   2.1015136e+00	   1.2208224e+00	
   1.0741500e+02	   2.9439781e+00	   1.4005970e+00	
   1.0747000e+02	   2.3264226e+00	   1.2738755e+00	
   1.0752500e+02	   2.4230198e+00	   1.0749310e+00	
   1.0758000e+02	   2.6421507e+00	   1.1987345e+00	
   1.0763500e+02	   2.4919804e+00	   1.2775118e+00	
   1.0769000e+02	   1.9727331e+00	   8.2847068e-01	
   1.0774500e+02	   1.6447950e+00	   6.7016512e-01	
   1.0780000e+02	   2.2480647e+00	   8.5320251e-01	
   1.0785500e+02	   2.5007199e+00	   8.1263412e-01	
   1.0791000e+02	   1.9246101e+00	   6.5381650e-01	
   1.0796500e+02	   2.0932140e+00	   9.4918986e-01	
   1.0802000e+02	   2.7470450e+00	   1.1175383e+00	
   1.0807500e+02	   2.8491253e+00	   1.0815211e+00	
   1.0813000e+02	   2.5687167e+00	   8.8755576e-01	
   1.0818500e+02	   2.6284097e+00	   9.2822361e-01	
   1.0824000e+02	   2.3984780e+00	   9.1582592e-01	
   1.0829500e+02	   2.1272513e+00	   7.1467097e-01	
   1.0835000e+02	   2.2385921e+00	   1.0314648e+00	
   1.0840500e+02	   2.2996852e+00	   9.6131466e-01	
   1.0846000e+02	   2.2333933e+00	   9.0612354e-01	
   1.0851500e+02	   2.2661884e+00	   4.2101456e-01	
   1.0857000e+02	   2.0352665e+00	   8.0226140e-01	
   1.0862500e+02	   2.8475822e+00	   9.0094495e-01	
   1.0868000e+02	   2.6213147e+00	   1.0343167e+00	
   1.0873500e+02	   2.3589986e+00	   1.0410244e+00	
   1.0879000e+02	   2.7257696e+00	   1.0219080e+00	
   1.0884500e+02	   2.3001596e+00	   9.5721219e-01	
   1.0890000e+02	   2.0167949e+00	   8.6605644e-01	
   1.0895500e+02	   2.3735055e+00	   8.2830637e-01	
   1.0901000e+02	   2.5385881e+00	   8.0847383e-01	
   1.0906500e+02	   2.4060926e+00	   7.2009724e-01	
   1.0912000e+02	   1.5009484e+00	   4.8131999e-01	
   1.0917500e+02	   2.4335218e+00	   7.0322389e-01	
   1.0923000e+02	   3.0768977e+00	   1.1493794e+00	
   1.0928500e+02	   2.8672291e+00	   9.8873066e-01	
   1.0934000e+02	   2.5431613e+00	   1.0337705e+00	
   1.0939500e+02	   2.4072332e+00	   1.0927042e+00	
   1.0945000e+02	   2.8182235e+00	   1.0883230e+00	
   1.0950500e+02	   2.7697175e+00	   1.1322235e+00	
   1.0956000e+02	   2.9000155e+00	   8.3702012e-01	
   1.0961500e+02	   2.7651726e+00	   8.1888604e-01	
   1.0967000e+02	   2.4606098e+00	   7.8463898e-01	
   1.0972500e+02	   2.4727893e+00	   6.2280640e-01	
   1.0978000e+02	   2.1254859e+00	   5.3722575e-01	
   1.0983500e+02	   2.9078294e+00	   7.6623486e-01	
   1.0989000e+02	   2.7988382e+00	   9.9592049e-01	
   1.0994500e+02	   2.5896891e+00	   9.0445320e-01	
   1.1000000e+02	   2.5297367e+00	   9.7131197e-01	
   1.1005500e+02	   3.0435895e+00	   1.0495175e+00	
   1.1011000e+02	   3.5530177e+00	   1.1379049e+00	
   1.1016500e+02	   3.2904558e+00	   1.0982520e+00	
   1.1022000e+02	   2.7197647e+00	   7.7898380e-01	
   1.1027500e+02	   2.8755804e+00	   7.1158310e-01	
   1.1033000e+02	   3.0236177e+00	   7.0849141e-01	
   1.1038500e+02	   2.7222442e+00	   7.2163274e-01	
   1.1044000e+02	   2.3148049e+00	   4.7840722e-01	
   1.1049500e+02	   3.1342111e+00	   7.5619616e-01	
   1.1055000e+02	   3.6046841e+00	   9.7925524e-01	
   1.1060500e+02	   3.0895080e+00	   1.1006385e+00	
   1.1066000e+02	   3.4031569e+00	   9.1273722e-01	
   1.1071500e+02	   3.1624403e+00	   6.6940605e-01	
   1.1077000e+02	   2.9133661e+00	   9.8558374e-01	
   1.1082500e+02	   3.3693860e+00	   8.8552613e-01	
   1.1088000e+02	   3.4819168e+00	   9.8850889e-01	
   1.1093500e+02	   3.0824208e+00	   6.3652834e-01	
   1.1099000e+02	   2.7331254e+00	   6.2987338e-01	
   1.1104500e+02	   2.8202080e+00	   8.6269759e-01	
   1.1110000e+02	   2.7463964e+00	   5.3290403e-01	
   1.1115500e+02	   2.4173984e+00	   2.2211448e-01	
   1.1121000e+02	   2.9362817e+00	   9.8926669e-01	
   1.1126500e+02	   3.3006598e+00	   9.6373817e-01	
   1.1132000e+02	   3.4918663e+00	   9.4033567e-01	
   1.1137500e+02	   3.2804274e+00	   7.6849196e-01	
   1.1143000e+02	   3.2155095e+00	   1.0230052e+00	
   1.1148500e+02	   3.3272414e+00	   8.9474028e-01	
   1.1154000e+02	   3.1418737e+00	   7.8638319e-01	
   1.1159500e+02	   3.1669782e+00	   5.7730120e-01	
   1.1165000e+02	   3.1779397e+00	   6.5773158e-01	
   1.1170500e+02	   2.9636953e+00	   6.1051018e-01	
   1.1176000e+02	   2.7059097e+00	   5.7203824e-01	
   1.1181500e+02	   2.8848005e+00	   6.3116016e-01	
   1.1187000e+02	   3.2872865e+00	   8.8770868e-01	
   1.1192500e+02	   3.0289688e+00	   8.2690983e-01	
   1.1198000e+02	   3.4885206e+00	   8.9805555e-01	
   1.1203500e+02	   3.9668697e+00	   8.1165316e-01	
   1.1209000e+02	   3.3724571e+00	   8.3237579e-01	
   1.1214500e+02	   2.6808453e+00	   6.8749312e-01	
   1.1220000e+02	   2.8850628e+00	   8.2419886e-01	
   1.1225500e+02	   3.3006906e+00	   4.5543811e-01	
   1.1231000e+02	   2.5621959e+00	   3.8487605e-01	
   1.1236500e+02	   2.9868439e+00	   2.9776789e-01	
   1.1242000e+02	   2.9164797e+00	   5.8301206e-01	
   1.1247500e+02	   3.1037082e+00	   6.9432785e-01	
   1.1253000e+02	   3.1031598e+00	   8.5461235e-01	
   1.1258500e+02	   3.3152289e+00	   7.6751504e-01	
   1.1264000e+02	   3.2974523e+00	   7.7266681e-01	
   1.1269500e+02	   3.1304780e+00	   6.0181430e-01	
   1.1275000e+02	   2.7778683e+00	   6.0080454e-01	
   1.1280500e+02	   3.4897215e+00	   5.7127660e-01	
   1.1286000e+02	   3.6594980e+00	   6.1781822e-01	
   1.1291500e+02	   2.9628151e+00	   6.8444855e-01	
   1.1297000e+02	   2.3575720e+00	   2.8909978e-01	
   1.1302500e+02	   2.8682580e+00	   3.2975565e-01	
   1.1308000e+02	   3.3575472e+00	   7.2752720e-01	
   1.1313500e+02	   3.7013729e+00	   8.4298831e-01	
   1.1319000e+02	   3.0686899e+00	   6.8458835e-01	
   1.1324500e+02	   3.4428794e+00	   7.9145004e-01	
   1.1330000e+02	   3.2691200e+00	   1.0493064e+00	
   1.1335500e+02	   3.4233952e+00	   8.5707811e-01	
   1.1341000e+02	   2.9157704e+00	   7.4872543e-01	
   1.1346500e+02	   3.5037935e+00	   6.1939953e-01	
   1.1352000e+02	   3.4010482e+00	   6.7405240e-01	
   1.1357500e+02	   3.1128228e+00	   6.5195326e-01	
   1.1363000e+02	   2.5257106e+00	   3.2550613e-01	
   1.1368500e+02	   3.3864483e+00	   6.0547360e-01	
   1.1374000e+02	   3.2656013e+00	   7.1924428e-01	
   1.1379500e+02	   3.7807834e+00	   1.1646850e+00	
   1.1385000e+02	   3.9871959e+00	   8.6315728e-01	
   1.1390500e+02	   3.3757529e+00	   9.5648034e-01	
   1.1396000e+02	   3.7234413e+00	   1.1203343e+00	
   1.1401500e+02	   3.4515666e+00	   9.9469541e-01	
   1.1407000e+02	   3.5934287e+00	   9.4180075e-01	
   1.1412500e+02	   3.3290312e+00	   8.3996952e-01	
   1.1418000e+02	   3.5024903e+00	   7.0581680e-01	
   1.1423500e+02	   3.2247738e+00	   7.9143307e-01	
   1.1429000e+02	   2.4005840e+00	   4.7794624e-01	
   1.1434500e+02	   3.4317409e+00	   6.1976628e-01	
   1.1440000e+02	   3.8909419e+00	   1.0627904e+00	
   1.1445500e+02	   3.6102416e+00	   1.4124590e+00	
   1.1451000e+02	   3.9665534e+00	   1.0184458e+00	
   1.1456500e+02	   3.9985190e+00	   9.3177745e-01	
   1.1462000e+02	   4.0199570e+00	   1.2613888e+00	
   1.1467500e+02	   4.4336875e+00	   1.2229031e+00	
   1.1473000e+02	   3.6625287e+00	   1.2314384e+00	
   1.1478500e+02	   3.7588130e+00	   9.1559471e-01	
   1.1484000e+02	   4.1091263e+00	   1.0769604e+00	
   1.1489500e+02	   3.9425951e+00	   1.1124714e+00	
   1.1495000e+02	   3.3861351e+00	   7.6297581e-01	
   1.1500500e+02	   2.9580842e+00	   6.1499354e-01	
   1.1506000e+02	   4.1189313e+00	   9.4466796e-01	
   1.1511500e+02	   3.9814762e+00	   1.3431109e+00	
   1.1517000e+02	   4.0922423e+00	   1.3270528e+00	
   1.1522500e+02	   3.9362254e+00	   1.3372943e+00	
   1.1528000e+02	   4.0960444e+00	   1.2451792e+00	
   1.1533500e+02	   4.3431289e+00	   1.4442577e+00	
   1.1539000e+02	   4.1079290e+00	   1.1427497e+00	
   1.1544500e+02	   4.2923464e+00	   1.0027374e+00	
   1.1550000e+02	   3.4429367e+00	   1.0055412e+00	
   1.1555500e+02	   4.1483867e+00	   1.0668123e+00	
   1.1561000e+02	   3.8450730e+00	   8.5331073e-01	
   1.1566500e+02	   3.8486925e+00	   8.4431857e-01	
   1.1572000e+02	   4.1061404e+00	   9.3469246e-01	
   1.1577500e+02	   4.1893683e+00	   1.2539120e+00	
   1.1583000e+02	   4.0011871e+00	   1.4714122e+00	
   1.1588500e+02	   4.0259418e+00	   1.3544206e+00	
   1.1594000e+02	   3.5871536e+00	   1.2717468e+00	
   1.1599500e+02	   4.8110935e+00	   1.3494463e+00	
   1.1605000e+02	   4.1390912e+00	   1.1707612e+00	
   1.1610500e+02	   3.7877606e+00	   1.1772885e+00	
   1.1616000e+02	   3.9507618e+00	   9.0504359e-01	
   1.1621500e+02	   3.6129115e+00	   1.0592353e+00	
   1.1627000e+02	   4.0247134e+00	   7.9510770e-01	
   1.1632500e+02	   3.9427509e+00	   1.1104768e+00	
   1.1638000e+02	   4.2159129e+00	   1.5076974e+00	
   1.1643500e+02	   4.7166989e+00	   1.4741171e+00	
   1.1649000e+02	   4.2212041e+00	   1.2945369e+00	
   1.1654500e+02	   4.2296700e+00	   1.1698154e+00	
   1.1660000e+02	   4.2052064e+00	   1.3344226e+00	
   1.1665500e+02	   4.1344750e+00	   1.2965540e+00	
   1.1671000e+02	   3.8257457e+00	   1.1048760e+00	
   1.1676500e+02	   3.5672740e+00	   9.1378871e-01	
   1.1682000e+02	   3.6577264e+00	   8.0014198e-01	
   1.1687500e+02	   3.3485292e+00	   8.7686408e-01	
   1.1693000e+02	   4.0652291e+00	   1.1876127e+00	
   1.1698500e+02	   4.0763687e+00	   1.1577991e+00	
   1.1704000e+02	   4.3304405e+00	   1.1854350e+00	
   1.1709500e+02	   4.1871794e+00	   1.1891157e+00	
   1.1715000e+02	   4.5789167e+00	   1.3813405e+00	
   1.1720500e+02	   4.6671253e+00	   1.1120870e+00	
   1.1726000e+02	   3.5099926e+00	   1.2607134e+00	
   1.1731500e+02	   3.7909902e+00	   9.7719754e-01	
   1.1737000e+02	   3.8402856e+00	   9.1529886e-01	
   1.1742500e+02	   3.4315161e+00	   1.0526118e+00	
   1.1748000e+02	   3.4588020e+00	   8.4980067e-01	
   1.1753500e+02	   3.9689516e+00	   8.6636852e-01	
   1.1759000e+02	   4.0156302e+00	   1.2228217e+00	
   1.1764500e+02	   3.9702008e+00	   1.2352850e+00	
   1.1770000e+02	   3.5330963e+00	   8.7585057e-01	
   1.1775500e+02	   3.9639912e+00	   1.0934888e+00	
   1.1781000e+02	   4.0918101e+00	   1.1981370e+00	
   1.1786500e+02	   4.0987945e+00	   1.1565232e+00	
   1.1792000e+02	   3.1984749e+00	   7.4594224e-01	
   1.1797500e+02	   2.7280081e+00	   7.2588048e-01	
   1.1803000e+02	   3.4288825e+00	   5.6203177e-01	
   1.1808500e+02	   3.3046502e+00	   5.5724716e-01	
   1.1814000e+02	   3.8159168e+00	   8.2464643e-01	
   1.1819500e+02	   3.6786697e+00	   1.0775620e+00	
   1.1825000e+02	   3.7899607e+00	   1.1505020e+00	
   1.1830500e+02	   3.7005946e+00	   1.0106034e+00	
   1.1836000e+02	   3.2241035e+00	   8.0026179e-01	
   1.1841500e+02	   3.3167631e+00	   9.9178443e-01	
   1.1847000e+02	   3.1350085e+00	   9.0982234e-01	
   1.1852500e+02	   3.8087439e+00	   9.2314706e-01	
   1.1858000e+02	   3.2724437e+00	   5.7852013e-01	
   1.1863500e+02	   2.8598417e+00	   4.6072922e-01	
   1.1869000e+02	   4.0656008e+00	   7.5356430e-01	
   1.1874500e+02	   4.3635666e+00	   1.0743797e+00	
   1.1880000e+02	   4.3874158e+00	   1.0750108e+00	
   1.1885500e+02	   3.8155227e+00	   1.0087271e+00	
   1.1891000e+02	   3.4798434e+00	   9.3633711e-01	
   1.1896500e+02	   4.0387292e+00	   1.1154470e+00	
   1.1902000e+02	   4.4315311e+00	   1.1946037e+00	
   1.1907500e+02	   3.5362984e+00	   1.0326268e+00	
   1.1913000e+02	   3.8505405e+00	   9.1380024e-01	
   1.1918500e+02	   3.5813714e+00	   1.0508162e+00	
   1.1924000e+02	   3.6757639e+00	   7.4318511e-01	
   1.1929500e+02	   3.6237877e+00	   1.1287864e+00	
   1.1935000e+02	   3.9221632e+00	   1.2614112e+00	
   1.1940500e+02	   4.4758140e+00	   1.2741712e+00	
   1.1946000e+02	   4.6723464e+00	   1.2649840e+00	
   1.1951500e+02	   4.0524496e+00	   1.1397444e+00	
   1.1957000e+02	   4.4393041e+00	   1.2077692e+00	
   1.1962500e+02	   4.3968539e+00	   1.1597301e+00	
   1.1968000e+02	   3.9560648e+00	   1.3255199e+00	
   1.1973500e+02	   3.8897503e+00	   1.2705120e+00	
   1.1979000e+02	   3.6657709e+00	   7.7144122e-01	
   1.1984500e+02	   4.1627043e+00	   9.8703697e-01	
   1.1990000e+02	   4.6353003e+00	   1.3173761e+00	
   1.1995500e+02	   4.5730768e+00	   1.3152645e+00	
   1.2001000e+02	   4.3123364e+00	   1.2625395e+00	
   1.2006500e+02	   4.5894631e+00	   1.5274850e+00	
   1.2012000e+02	   4.7999089e+00	   1.7042169e+00	
   1.2017500e+02	   4.5990454e+00	   1.1448234e+00	
   1.2023000e+02	   4.5328797e+00	   1.2429613e+00	
   1.2028500e+02	   4.4427228e+00	   1.3884421e+00	
   1.2034000e+02	   4.4771959e+00	   1.2857918e+00	
   1.2039500e+02	   4.1074521e+00	   1.0348114e+00	
   1.2045000e+02	   3.6302668e+00	   1.1160953e+00	
   1.2050500e+02	   4.6579563e+00	   1.5683684e+00	
   1.2056000e+02	   4.7691493e+00	   1.4862140e+00	
   1.2061500e+02	   5.0682592e+00	   1.6313009e+00	
   1.2067000e+02	   4.8826120e+00	   1.5645106e+00	
   1.2072500e+02	   5.0556632e+00	   1.6058556e+00	
   1.2078000e+02	   4.8138424e+00	   1.5675937e+00	
   1.2083500e+02	   4.5649759e+00	   1.6509841e+00	
   1.2089000e+02	   4.9741194e+00	   1.2605648e+00	
   1.2094500e+02	   4.5298260e+00	   1.4290635e+00	
   1.2100000e+02	   4.3909710e+00	   1.2289126e+00	
   1.2105500e+02	   4.5529277e+00	   1.4103306e+00	
   1.2111000e+02	   5.0639729e+00	   1.5746614e+00	
   1.2116500e+02	   5.1397764e+00	   1.5034601e+00	
   1.2122000e+02	   4.7577747e+00	   1.8178577e+00	
   1.2127500e+02	   5.4835321e+00	   1.6854908e+00	
   1.2133000e+02	   5.3198619e+00	   1.5343548e+00	
   1.2138500e+02	   4.2728616e+00	   1.3100814e+00	
   1.2144000e+02	   5.1261044e+00	   1.6004576e+00	
   1.2149500e+02	   4.8153592e+00	   1.4613365e+00	
   1.2155000e+02	   4.6940942e+00	   1.3631270e+00	
   1.2160500e+02	   4.1501795e+00	   1.3021332e+00	
   1.2166000e+02	   4.9374478e+00	   1.9105921e+00	
   1.2171500e+02	   5.8828237e+00	   1.9374633e+00	
   1.2177000e+02	   5.1215741e+00	   1.7542804e+00	
   1.2182500e+02	   4.9204086e+00	   1.7107626e+00	
   1.2188000e+02	   4.9451342e+00	   2.0974102e+00	
   1.2193500e+02	   4.9795798e+00	   1.9670648e+00	
   1.2199000e+02	   4.7554965e+00	   1.6769747e+00	
   1.2204500e+02	   5.0259429e+00	   1.6641736e+00	
   1.2210000e+02	   5.1040475e+00	   1.5648316e+00	
   1.2215500e+02	   4.5831342e+00	   1.6092678e+00	
   1.2221000e+02	   4.9409490e+00	   1.3983157e+00	
   1.2226500e+02	   4.5927275e+00	   1.7444561e+00	
   1.2232000e+02	   5.3633718e+00	   1.9035226e+00	
   1.2237500e+02	   5.2225434e+00	   1.8350284e+00	
   1.2243000e+02	   5.5000714e+00	   2.1358774e+00	
   1.2248500e+02	   5.0829722e+00	   1.7918036e+00	
   1.2254000e+02	   5.9929609e+00	   1.9220288e+00	
   1.2259500e+02	   5.4820931e+00	   1.9268265e+00	
   1.2265000e+02	   5.5696214e+00	   1.9212235e+00	
   1.2270500e+02	   4.4141302e+00	   1.6660099e+00	
   1.2276000e+02	   4.8532189e+00	   1.7106309e+00	
   1.2281500e+02	   4.7275685e+00	   1.8004098e+00	
   1.2287000e+02	   5.0297203e+00	   1.5784204e+00	
   1.2292500e+02	   4.9524596e+00	   1.5248413e+00	
   1.2298000e+02	   5.3519890e+00	   2.0008036e+00	
   1.2303500e+02	   5.4793425e+00	   2.1315809e+00	
   1.2309000e+02	   5.5654660e+00	   2.1279860e+00	
   1.2314500e+02	   5.7569305e+00	   2.1172576e+00	
   1.2320000e+02	   4.9385061e+00	   1.9009047e+00	
   1.2325500e+02	   5.3421962e+00	   2.1971202e+00	
   1.2331000e+02	   5.1804934e+00	   2.0118906e+00	
   1.2336500e+02	   4.8465617e+00	   1.8850432e+00	
   1.2342000e+02	   5.2524379e+00	   1.8997997e+00	
   1.2347500e+02	   5.4358311e+00	   1.7187966e+00	
   1.2353000e+02	   5.2713859e+00	   1.9528292e+00	
   1.2358500e+02	   4.9673432e+00	   1.5892841e+00	
   1.2364000e+02	   4.8816611e+00	   1.5890402e+00	
   1.2369500e+02	   5.8087052e+00	   2.0803887e+00	
   1.2375000e+02	   5.9612081e+00	   2.1571847e+00	
   1.2380500e+02	   5.3226282e+00	   2.0008498e+00	
   1.2386000e+02	   5.6069008e+00	   2.0776159e+00	
   1.2391500e+02	   5.3189885e+00	   2.2103712e+00	
   1.2397000e+02	   5.1608253e+00	   1.9984757e+00	
   1.2402500e+02	   4.9321902e+00	   2.0146837e+00	
   1.2408000e+02	   5.4215492e+00	   1.9628192e+00	
   1.2413500e+02	   5.2043480e+00	   1.7062498e+00	
   1.2419000e+02	   4.9440559e+00	   1.8050283e+00	
   1.2424500e+02	   4.5660067e+00	   1.5348843e+00	
   1.2430000e+02	   5.6514303e+00	   1.9108819e+00	
   1.2435500e+02	   5.5386289e+00	   2.1151131e+00	
   1.2441000e+02	   5.8323467e+00	   1.9999816e+00	
   1.2446500e+02	   5.7792061e+00	   2.1790374e+00	
   1.2452000e+02	   4.8598799e+00	   1.9189107e+00	
   1.2457500e+02	   5.2206605e+00	   1.9318956e+00	
   1.2463000e+02	   5.5134526e+00	   1.9748795e+00	
   1.2468500e+02	   5.4344955e+00	   2.0196308e+00	
   1.2474000e+02	   4.5247347e+00	   1.6148530e+00	
   1.2479500e+02	   4.8081188e+00	   1.5484917e+00	
   1.2485000e+02	   4.7349477e+00	   1.7164022e+00	
   1.2490500e+02	   5.1040154e+00	   1.7199040e+00	
   1.2496000e+02	   5.0179821e+00	   1.9345326e+00	
   1.2501500e+02	   5.0438372e+00	   1.9632801e+00	
   1.2507000e+02	   5.6628865e+00	   2.2968346e+00	
   1.2512500e+02	   4.9280871e+00	   1.9309050e+00	
   1.2518000e+02	   4.9118218e+00	   1.7430323e+00	
   1.2523500e+02	   4.6839521e+00	   1.6850884e+00	
   1.2529000e+02	   4.9609856e+00	   1.9136388e+00	
   1.2534500e+02	   5.0804029e+00	   1.7336370e+00	
   1.2540000e+02	   4.9746853e+00	   1.6639086e+00	
   1.2545500e+02	   4.9411292e+00	   1.4371340e+00	
   1.2551000e+02	   4.6258059e+00	   1.6515429e+00	
   1.2556500e+02	   5.0772156e+00	   1.9591044e+00	
   1.2562000e+02	   5.4802083e+00	   2.0166883e+00	
   1.2567500e+02	   5.1488852e+00	   2.0272871e+00	
   1.2573000e+02	   5.1227784e+00	   1.9720954e+00	
   1.2578500e+02	   5.3417659e+00	   2.2324097e+00	
   1.2584000e+02	   5.1723687e+00	   1.8287125e+00	
   1.2589500e+02	   4.8797541e+00	   1.8776224e+00	
   1.2595000e+02	   4.9922882e+00	   1.9355026e+00	
   1.2600500e+02	   4.4659597e+00	   1.8125134e+00	
   1.2606000e+02	   4.4278923e+00	   1.6657916e+00	
   1.2611500e+02	   4.7462927e+00	   1.5710893e+00	
   1.2617000e+02	   4.4299437e+00	   1.6124244e+00	
   1.2622500e+02	   4.8989520e+00	   1.6147376e+00	
   1.2628000e+02	   5.3001110e+00	   1.7522479e+00	
   1.2633500e+02	   5.1401408e+00	   1.9296320e+00	
   1.2639000e+02	   4.8778172e+00	   2.0520173e+00	
   1.2644500e+02	   5.1398518e+00	   2.1303576e+00	
   1.2650000e+02	   5.0960309e+00	   1.8810584e+00	
   1.2655500e+02	   5.0529514e+00	   1.8258262e+00	
   1.2661000e+02	   4.7764530e+00	   1.7237697e+00	
   1.2666500e+02	   4.8868992e+00	   1.5027733e+00	
   1.2672000e+02	   4.6896304e+00	   1.8043803e+00	
   1.2677500e+02	   4.7293270e+00	   1.4195403e+00	
   1.2683000e+02	   4.2967781e+00	   1.2957201e+00	
