 [File Information]      		 [Data Line]	36
Measured Date	2016/09/08 11:06:36
ID	03001	Version	5.01
Name	ChiK13	[HeaderType]	5.01/2.01
Comment	
[Measurement Info.]
Holder Location	      19
Block Design	Off     
Pre.Rest Time	      60
Task Time	     120
Pos.Rest Time	      30
Loop	       1
Averaging	       1
Total Points	   10913
[.INF File]
Filename	thuong0402.INF
[Condition-1]
HV Switching	OFF
 R1 ,R2 ,R3 ,R4 ,R5 ,R6 ,R7 ,R8 
   0.00,  0.00,  0.00,  0.00,536.00,458.00,653.00,  0.00
 Gain(X1,X4,X16,X64)
 R1 ,R2 ,R3 ,R4 ,R5 ,R6 ,R7 ,R8 
 1,1,1,1,1,1,1,1
[Analysis Condition]
Smoothed Type	None            
Smoothed Points	       0
Smoothed Loop	       0
Baseline Method	None            
Baseline location	
[Text Info.]
Output Mode	Continious      	Task No.		Data Type	Voltage 
Time Range	    0.00	  600.16	Averaing	1
(8,6)(3,6)(8,7)(5,6)(3,5)(5,7)(5,5)
         	     	     	     	    ch- 1	    ch- 1	    ch- 1	    ch- 2	    ch- 2	    ch- 2	    ch- 3	    ch- 3	    ch- 3	    ch- 4	    ch- 4	    ch- 4	    ch- 5	    ch- 5	    ch- 5	    ch- 6	    ch- 6	    ch- 6	    ch- 7	    ch- 7	    ch- 7
Time(sec)	Task	Mark	Count	Volt780nm	Volt805nm	Volt830nm	Volt780nm	Volt805nm	Volt830nm	Volt780nm	Volt805nm	Volt830nm	Volt780nm	Volt805nm	Volt830nm	Volt780nm	Volt805nm	Volt830nm	Volt780nm	Volt805nm	Volt830nm	Volt780nm	Volt805nm	Volt830nm
     0.000	0	0Z	    0	    0.718853	    0.658122	    0.670329	    1.768063	    1.267567	    1.725948	    1.728084	    1.234302	    1.369192	    0.261692	    0.192111	    0.187839	    1.438163	    1.150378	    1.219959	    1.588922	    1.037766	    0.963607	    1.667353	    1.176318	    1.136339
     0.055	0	0	    0	    0.720684	    0.658427	    0.671550	    1.770504	    1.271839	    1.724727	    1.722591	    1.233387	    1.367056	    0.261387	    0.193332	    0.187228	    1.438163	    1.154040	    1.221485	    1.585565	    1.038682	    0.963302	    1.668269	    1.179065	    1.135424
     0.110	0	0	    0	    0.718547	    0.658427	    0.674296	    1.769589	    1.273365	    1.727779	    1.733272	    1.237659	    1.376822	    0.260777	    0.193027	    0.188144	    1.442741	    1.155871	    1.224842	    1.603265	    1.034714	    0.977951	    1.663081	    1.176013	    1.131151
     0.165	0	0	    0	    0.720378	    0.663615	    0.673075	    1.775387	    1.278553	    1.730831	    1.726558	    1.232471	    1.375601	    0.261387	    0.192721	    0.190280	    1.446098	    1.158007	    1.227283	    1.601740	    1.041733	    0.978561	    1.675288	    1.180896	    1.143664
     0.220	0	0	    0	    0.724346	    0.663920	    0.677043	    1.770809	    1.282521	    1.741512	    1.739986	    1.235523	    1.383230	    0.262303	    0.194247	    0.189975	    1.443961	    1.165332	    1.239490	    1.605707	    1.051499	    0.988632	    1.677119	    1.186389	    1.148852
     0.275	0	0	    0	    0.725566	    0.666667	    0.681315	    1.776608	    1.281605	    1.742733	    1.757076	    1.247425	    1.396353	    0.264439	    0.193332	    0.189670	    1.443961	    1.165332	    1.237964	    1.612726	    1.046616	    0.983139	    1.687190	    1.190661	    1.147021
     0.330	0	0	    0	    0.726177	    0.668803	    0.684977	    1.788815	    1.287098	    1.750973	    1.749142	    1.238270	    1.397574	    0.265354	    0.194858	    0.189975	    1.457389	    1.165637	    1.243153	    1.615167	    1.062181	    0.988937	    1.689021	    1.191577	    1.147631
     0.385	0	0	    0	    0.719768	    0.655680	    0.671855	    1.783322	    1.281910	    1.738460	    1.729305	    1.225452	    1.371023	    0.261082	    0.192721	    0.187839	    1.451591	    1.158618	    1.227893	    1.584649	    1.030442	    0.967269	    1.659419	    1.173571	    1.137865
     0.440	0	0	    0	    0.716716	    0.654154	    0.668498	    1.768063	    1.267567	    1.723201	    1.718013	    1.219654	    1.353628	    0.260777	    0.190280	    0.186618	    1.428092	    1.145190	    1.214466	    1.564813	    1.038071	    0.958419	    1.649653	    1.162890	    1.122301
     0.495	0	0	    0	    0.714885	    0.653239	    0.664836	    1.765316	    1.269398	    1.722896	    1.709468	    1.218128	    1.354849	    0.259861	    0.189670	    0.186313	    1.425956	    1.144579	    1.212940	    1.580682	    1.023423	    0.958724	    1.653925	    1.160449	    1.120165
     0.550	0	0	    0	    0.716411	    0.658732	    0.668803	    1.768673	    1.267567	    1.720455	    1.717098	    1.231250	    1.358206	    0.261082	    0.191501	    0.185702	    1.427481	    1.143969	    1.214466	    1.577325	    1.031662	    0.961776	    1.651179	    1.159838	    1.119554
     0.605	0	0	    0	    0.717327	    0.657206	    0.673991	    1.759518	    1.271534	    1.721981	    1.717403	    1.208057	    1.373465	    0.259861	    0.191196	    0.186618	    1.425040	    1.146105	    1.215991	    1.573968	    1.037461	    0.968795	    1.652399	    1.168383	    1.125048
     0.660	0	0	    0	    0.717632	    0.655375	    0.671550	    1.757687	    1.268788	    1.726253	    1.718929	    1.223011	    1.364920	    0.259556	    0.190585	    0.186923	    1.425650	    1.148852	    1.219959	    1.577630	    1.024949	    0.974899	    1.650874	    1.168994	    1.121386
     0.715	0	0	    0	    0.720073	    0.657511	    0.671244	    1.765621	    1.271534	    1.727779	    1.728695	    1.221790	    1.374990	    0.258946	    0.191196	    0.188144	    1.436027	    1.149767	    1.221485	    1.586786	    1.032578	    0.978866	    1.659113	    1.164111	    1.129931
     0.770	0	0	    0	    0.721599	    0.662089	    0.678569	    1.766842	    1.271534	    1.732052	    1.735103	    1.230640	    1.369802	    0.261692	    0.192721	    0.187533	    1.435111	    1.152819	    1.223316	    1.594720	    1.031662	    0.971542	    1.671015	    1.177539	    1.137255
     0.825	0	0	    0	    0.722515	    0.663005	    0.676432	    1.775998	    1.279774	    1.736629	    1.730526	    1.241016	    1.371328	    0.261387	    0.192721	    0.188754	    1.448539	    1.165637	    1.228199	    1.607538	    1.043259	    0.973983	    1.681392	    1.183337	    1.146410
     0.880	0	0	    0	    0.724956	    0.664836	    0.678569	    1.779049	    1.282521	    1.746395	    1.736934	    1.239490	    1.377127	    0.262608	    0.193332	    0.189975	    1.444266	    1.160449	    1.231556	    1.611505	    1.051499	    0.984970	    1.681697	    1.190356	    1.148241
     0.935	0	0	    0	    0.730144	    0.665751	    0.681926	    1.780880	    1.285573	    1.744869	    1.756771	    1.238880	    1.389029	    0.262913	    0.195163	    0.190890	    1.453117	    1.168994	    1.237049	    1.614862	    1.059434	    0.988632	    1.686275	    1.199817	    1.158923
     0.990	0	0	    0	    0.720684	    0.659648	    0.673686	    1.786374	    1.285267	    1.735714	    1.744564	    1.221485	    1.376822	    0.262913	    0.192416	    0.188754	    1.450980	    1.162890	    1.229114	    1.600519	    1.040208	    0.973373	    1.678645	    1.176928	    1.136339
     1.045	0	0	    0	    0.713054	    0.653544	    0.666667	    1.767453	    1.272145	    1.722591	    1.712215	    1.210498	    1.358206	    0.258946	    0.191501	    0.186618	    1.425345	    1.147021	    1.211414	    1.570916	    1.022202	    0.949264	    1.652399	    1.168383	    1.126268
     1.100	0	0	    0	    0.713970	    0.650797	    0.666056	    1.759823	    1.269093	    1.717403	    1.706111	    1.205921	    1.344778	    0.257115	    0.189670	    0.185702	    1.421683	    1.144274	    1.208972	    1.556268	    1.020676	    0.953536	    1.644770	    1.160143	    1.124743
     1.155	0	0	    0	    0.712749	    0.650797	    0.664836	    1.756466	    1.261769	    1.713741	    1.719234	    1.205310	    1.347829	    0.258030	    0.189975	    0.185702	    1.422599	    1.133593	    1.206226	    1.565728	    1.008774	    0.958114	    1.640803	    1.159838	    1.119249
     1.210	0	0	    0	    0.713970	    0.653849	    0.665446	    1.756466	    1.261158	    1.708553	    1.702754	    1.213245	    1.341726	    0.259861	    0.190280	    0.185702	    1.428702	    1.134508	    1.201648	    1.573663	    1.011826	    0.958114	    1.649348	    1.157092	    1.116503
     1.265	0	0	    0	    0.711528	    0.651408	    0.665751	    1.762570	    1.269093	    1.714656	    1.715267	    1.209888	    1.355459	    0.258946	    0.189364	    0.186007	    1.425040	    1.143969	    1.209888	    1.569390	    1.020676	    0.951095	    1.646296	    1.158618	    1.124437
     1.320	0	0	    0	    0.715496	    0.652934	    0.667277	    1.758297	    1.269093	    1.716487	    1.714351	    1.212634	    1.348745	    0.259251	    0.191501	    0.187228	    1.426261	    1.146715	    1.210498	    1.573358	    1.023423	    0.959945	    1.654536	    1.164111	    1.129015
     1.375	0	0	    0	    0.718242	    0.652934	    0.671550	    1.757992	    1.265431	    1.718624	    1.725338	    1.211414	    1.352407	    0.259251	    0.192416	    0.186313	    1.428702	    1.148547	    1.223316	    1.585565	    1.029831	    0.963302	    1.664302	    1.172656	    1.133288
     1.430	0	0	    0	    0.718547	    0.657511	    0.669413	    1.763790	    1.273671	    1.728084	    1.719844	    1.219959	    1.360342	    0.261387	    0.192721	    0.188449	    1.433280	    1.154040	    1.219348	    1.603265	    1.039292	    0.970321	    1.668574	    1.179980	    1.136645
     1.485	0	0	    0	    0.723125	    0.661173	    0.677653	    1.774777	    1.278248	    1.729915	    1.720455	    1.219654	    1.373159	    0.260777	    0.193637	    0.188449	    1.444572	    1.155261	    1.224231	    1.590448	    1.044785	    0.970626	    1.673457	    1.183642	    1.140917
     1.540	0	0	    0	    0.723430	    0.661784	    0.680095	    1.768978	    1.277943	    1.736629	    1.730831	    1.236133	    1.383841	    0.262608	    0.193637	    0.188754	    1.448539	    1.161975	    1.229725	    1.593194	    1.049058	    0.980392	    1.676204	    1.189441	    1.152819
     1.595	0	0	    0	    0.725261	    0.662699	    0.677653	    1.771420	    1.283131	    1.743954	    1.738460	    1.220569	    1.381399	    0.261997	    0.192721	    0.188754	    1.444266	    1.161364	    1.236439	    1.618830	    1.047227	    0.979782	    1.690242	    1.191882	    1.149767
     1.650	0	0	    0	    0.716716	    0.654459	    0.670024	    1.768673	    1.274586	    1.725338	    1.714961	    1.207752	    1.343252	    0.260777	    0.191501	    0.186618	    1.439078	    1.153735	    1.215076	    1.597772	    1.015793	    0.966964	    1.656062	    1.168994	    1.129320
     1.705	0	0	    0	    0.713054	    0.652018	    0.665446	    1.761959	    1.262989	    1.714961	    1.711604	    1.198596	    1.336538	    0.259556	    0.190280	    0.186313	    1.425345	    1.137560	    1.205921	    1.578851	    1.013046	    0.957809	    1.656062	    1.162585	    1.123522
     1.760	0	0	    0	    0.710307	    0.648356	    0.666056	    1.748531	    1.264515	    1.706722	    1.704891	    1.204395	    1.323110	    0.257725	    0.189364	    0.185702	    1.421073	    1.139391	    1.198291	    1.570916	    1.020676	    0.959335	    1.646601	    1.159838	    1.121080
     1.815	0	0	    0	    0.713359	    0.650492	    0.662699	    1.749447	    1.262074	    1.708248	    1.700618	    1.206836	    1.341421	    0.257725	    0.189059	    0.184176	    1.423514	    1.140002	    1.200122	    1.562982	    1.016709	    0.958419	    1.646906	    1.159228	    1.118944
     1.870	0	0	    0	    0.711833	    0.653544	    0.666667	    1.756161	    1.260243	    1.711910	    1.706416	    1.203174	    1.338674	    0.258640	    0.189059	    0.185397	    1.427787	    1.142138	    1.212940	    1.575189	    1.021592	    0.961166	    1.649042	    1.162280	    1.125963
     1.925	0	0	    0	    0.713970	    0.651713	    0.664836	    1.756771	    1.260548	    1.706416	    1.710994	    1.204700	    1.340200	    0.258946	    0.191196	    0.185702	    1.436942	    1.140307	    1.203479	    1.591974	    1.027390	    0.956588	    1.652705	    1.168688	    1.123522
     1.980	0	0	    0	    0.713054	    0.655375	    0.670634	    1.753719	    1.263294	    1.715572	    1.709468	    1.188525	    1.358511	    0.258946	    0.190585	    0.186313	    1.429618	    1.144884	    1.216602	    1.589532	    1.019150	    0.972763	    1.661860	    1.173877	    1.127489
     2.035	0	0	    0	    0.719768	    0.657206	    0.675212	    1.762570	    1.271534	    1.727474	    1.716182	    1.208972	    1.354849	    0.259861	    0.191501	    0.186618	    1.438468	    1.147631	    1.225757	    1.594110	    1.017014	    0.971237	    1.660639	    1.174182	    1.137560
     2.090	0	0	    0	    0.720989	    0.662089	    0.675822	    1.763790	    1.276417	    1.725338	    1.721370	    1.230030	    1.352407	    0.261387	    0.191501	    0.188144	    1.443656	    1.160143	    1.223926	    1.601129	    1.042344	    0.982528	    1.675288	    1.175402	    1.136645
     2.145	0	0	    0	    0.723735	    0.661173	    0.676432	    1.775998	    1.276722	    1.736934	    1.730220	    1.221180	    1.374990	    0.262608	    0.194553	    0.188144	    1.454948	    1.163806	    1.233082	    1.614557	    1.046921	    0.981613	    1.691768	    1.191882	    1.149767
     2.200	0	0	    0	    0.721294	    0.662089	    0.679179	    1.767147	    1.284352	    1.735409	    1.732662	    1.223316	    1.378653	    0.264134	    0.194553	    0.189975	    1.451286	    1.168078	    1.239796	    1.623102	    1.056992	    0.995041	    1.696956	    1.196765	    1.158923
     2.255	0	0	    0	    0.727703	    0.666667	    0.679179	    1.780575	    1.287709	    1.749142	    1.752804	    1.232166	    1.377737	    0.263523	    0.194858	    0.189975	    1.467765	    1.176928	    1.248035	    1.630732	    1.057603	    0.991989	    1.698787	    1.198901	    1.162890
     2.310	0	0	    0	    0.717937	    0.659342	    0.668498	    1.770199	    1.277333	    1.733272	    1.726558	    1.213550	    1.355764	    0.263218	    0.192416	    0.189059	    1.452811	    1.164111	    1.234607	    1.608759	    1.043259	    0.976730	    1.685969	    1.183642	    1.143053
     2.365	0	0	    0	    0.712139	    0.655680	    0.668193	    1.757076	    1.266346	    1.717403	    1.717098	    1.201648	    1.339895	    0.261082	    0.191196	    0.186007	    1.439689	    1.151904	    1.220264	    1.592584	    1.028000	    0.966964	    1.677729	    1.178454	    1.133593
     2.420	0	0	    0	    0.711833	    0.653544	    0.665446	    1.756161	    1.267567	    1.714656	    1.715267	    1.206226	    1.327687	    0.260166	    0.190585	    0.186618	    1.444572	    1.146105	    1.211719	    1.585565	    1.024033	    0.966354	    1.671626	    1.172045	    1.134203
     2.475	0	0	    0	    0.717021	    0.651102	    0.666667	    1.750668	    1.267872	    1.718318	    1.703059	    1.195239	    1.331044	    0.260472	    0.190585	    0.186313	    1.432670	    1.147936	    1.216297	    1.595026	    1.022507	    0.962997	    1.669184	    1.172656	    1.137865
     2.530	0	0	    0	    0.717632	    0.654154	    0.666361	    1.752499	    1.263905	    1.714351	    1.710994	    1.195239	    1.341421	    0.261082	    0.190280	    0.187228	    1.433585	    1.144579	    1.213855	    1.607843	    1.023728	    0.969711	    1.674983	    1.178149	    1.135119
     2.585	0	0	    0	    0.715801	    0.656596	    0.668803	    1.754635	    1.266957	    1.718013	    1.727779	    1.209888	    1.353017	    0.261082	    0.192111	    0.185702	    1.439384	    1.153124	    1.214466	    1.601129	    1.043870	    0.974594	    1.675593	    1.181506	    1.137255
     2.640	0	0	    0	    0.715801	    0.655375	    0.670939	    1.759823	    1.264820	    1.718318	    1.706416	    1.208667	    1.347524	    0.262913	    0.192721	    0.186313	    1.441215	    1.149767	    1.221790	    1.602045	    1.038682	    0.973068	    1.683833	    1.188220	    1.140612
     2.695	0	0	    0	    0.720989	    0.657206	    0.670634	    1.763790	    1.273671	    1.727779	    1.718929	    1.214466	    1.347524	    0.261997	    0.192111	    0.188144	    1.447318	    1.156786	    1.228809	    1.609064	    1.043565	    0.979782	    1.695430	    1.189136	    1.153124
     2.750	0	0	    0	    0.720378	    0.659953	    0.672160	    1.767758	    1.273365	    1.735103	    1.732967	    1.227588	    1.343862	    0.261387	    0.193332	    0.188754	    1.457694	    1.158923	    1.235218	    1.616083	    1.049058	    0.985885	    1.699702	    1.194934	    1.150988
     2.805	0	0	    0	    0.720989	    0.664836	    0.679484	    1.774777	    1.277333	    1.736629	    1.732967	    1.223926	    1.369802	    0.263828	    0.193942	    0.189059	    1.459831	    1.164721	    1.236744	    1.635920	    1.057603	    0.989242	    1.713741	    1.202869	    1.160143
     2.860	0	0	    0	    0.725261	    0.662699	    0.679789	    1.774166	    1.285573	    1.741817	    1.730831	    1.238880	    1.378958	    0.264744	    0.194247	    0.190585	    1.462882	    1.168994	    1.239796	    1.643854	    1.066453	    0.996872	    1.713130	    1.206531	    1.167468
     2.915	0	0	    0	    0.716106	    0.652934	    0.670329	    1.767453	    1.277943	    1.735103	    1.712825	    1.205921	    1.359121	    0.262913	    0.193637	    0.188449	    1.448844	    1.161669	    1.231250	    1.616083	    1.047837	    0.981308	    1.697871	    1.191882	    1.150378
     2.970	0	0	    0	    0.716716	    0.651713	    0.665141	    1.758907	    1.267872	    1.723507	    1.732967	    1.212024	    1.328298	    0.261387	    0.191501	    0.186313	    1.436332	    1.150988	    1.214466	    1.588006	    1.045396	    0.971542	    1.689021	    1.179980	    1.139086
     3.025	0	0	    0	    0.715496	    0.653544	    0.668498	    1.759213	    1.260853	    1.718624	    1.703975	    1.211414	    1.336538	    0.260472	    0.191196	    0.185397	    1.433585	    1.137560	    1.211719	    1.591363	    1.028916	    0.964828	    1.683833	    1.183337	    1.140917
     3.080	0	0	    0	    0.716411	    0.653849	    0.669108	    1.757382	    1.266346	    1.717098	    1.710079	    1.201648	    1.348135	    0.260166	    0.191501	    0.185397	    1.436637	    1.145190	    1.209888	    1.602960	    1.036240	    0.962997	    1.683833	    1.180896	    1.137255
     3.135	0	0	    0	    0.717327	    0.655985	    0.667582	    1.760128	    1.270924	    1.721981	    1.700618	    1.213550	    1.347829	    0.260777	    0.190585	    0.186923	    1.434501	    1.149767	    1.211109	    1.600214	    1.042954	    0.977951	    1.689021	    1.183948	    1.145190
     3.190	0	0	    0	    0.719158	    0.657511	    0.668193	    1.761654	    1.267567	    1.722286	    1.722591	    1.209583	    1.341115	    0.261997	    0.191501	    0.186923	    1.441215	    1.145495	    1.209583	    1.595026	    1.033188	    0.968795	    1.691157	    1.191272	    1.147631
     3.245	0	0	    0	    0.722515	    0.659037	    0.671855	    1.759518	    1.269703	    1.728389	    1.721065	    1.221485	    1.351186	    0.263523	    0.191806	    0.187228	    1.436637	    1.154040	    1.223621	    1.612421	    1.039902	    0.974594	    1.697566	    1.195239	    1.151904
     3.300	0	0	    0	    0.721599	    0.661479	    0.675212	    1.771725	    1.277333	    1.725032	    1.725643	    1.223011	    1.359731	    0.262913	    0.193332	    0.188754	    1.452201	    1.158923	    1.223316	    1.615167	    1.043565	    0.987106	    1.704585	    1.197070	    1.161669
     3.355	0	0	    0	    0.724346	    0.659953	    0.678569	    1.774472	    1.284352	    1.739071	    1.742733	    1.220569	    1.373770	    0.263218	    0.193332	    0.188754	    1.449149	    1.167163	    1.230640	    1.615167	    1.055772	    0.985580	    1.705806	    1.208057	    1.164416
     3.410	0	0	    0	    0.727398	    0.667887	    0.679179	    1.772335	    1.277638	    1.744259	    1.749142	    1.234607	    1.375296	    0.264439	    0.194247	    0.188754	    1.455253	    1.165026	    1.233692	    1.646906	    1.057603	    1.000534	    1.718013	    1.217823	    1.168078
     3.465	0	0	    0	    0.728008	    0.664836	    0.679179	    1.783322	    1.286793	    1.751888	    1.750973	    1.233692	    1.376822	    0.265965	    0.195163	    0.189975	    1.459831	    1.167163	    1.237964	    1.645991	    1.080797	    0.999008	    1.725643	    1.213855	    1.170825
     3.520	0	0	    0	    0.719158	    0.657816	    0.670024	    1.779049	    1.281300	    1.738155	    1.715877	    1.212024	    1.346914	    0.265049	    0.192111	    0.188754	    1.453727	    1.158923	    1.224842	    1.621576	    1.035019	    0.977646	    1.703670	    1.197986	    1.155261
     3.575	0	0	    0	    0.717937	    0.656901	    0.665751	    1.767147	    1.268788	    1.723201	    1.708858	    1.208667	    1.349966	    0.260777	    0.190890	    0.187533	    1.436637	    1.142443	    1.212024	    1.601129	    1.037156	    0.971237	    1.686580	    1.192493	    1.154040
     3.630	0	0	    0	    0.717632	    0.654154	    0.666361	    1.757687	    1.270008	    1.721065	    1.724727	    1.209583	    1.333791	    0.261082	    0.192111	    0.187533	    1.425956	    1.141527	    1.211109	    1.613642	    1.031662	    0.979782	    1.694209	    1.189746	    1.156176
     3.685	0	0	    0	    0.717937	    0.653239	    0.672160	    1.755856	    1.270314	    1.726864	    1.729305	    1.205615	    1.338674	    0.261692	    0.190890	    0.186923	    1.431754	    1.146105	    1.212634	    1.611810	    1.038376	    0.973678	    1.700618	    1.194629	    1.152819
     3.740	0	0	    0	    0.720989	    0.658732	    0.672770	    1.765316	    1.272755	    1.727779	    1.730220	    1.213550	    1.353628	    0.262608	    0.191501	    0.187228	    1.442741	    1.148547	    1.214160	    1.606622	    1.047837	    0.976120	    1.702754	    1.200427	    1.160143
     3.795	0	0	    0	    0.719768	    0.658427	    0.675212	    1.765011	    1.274281	    1.730220	    1.722896	    1.213245	    1.357595	    0.262913	    0.192721	    0.187228	    1.438773	    1.145800	    1.214160	    1.609369	    1.044480	    0.973983	    1.706416	    1.201648	    1.158007
     3.850	0	0	    0	    0.723430	    0.661173	    0.673381	    1.763790	    1.276722	    1.735714	    1.717708	    1.214466	    1.360037	    0.262608	    0.192721	    0.188449	    1.438468	    1.157397	    1.225757	    1.624628	    1.054246	    0.981918	    1.712825	    1.205615	    1.168383
     3.905	0	0	    0	    0.725566	    0.663615	    0.676432	    1.773251	    1.280690	    1.743038	    1.736629	    1.229725	    1.353628	    0.265354	    0.194247	    0.187839	    1.448539	    1.160143	    1.228504	    1.623713	    1.059434	    0.983749	    1.725338	    1.214466	    1.172961
     3.960	0	0	    0	    0.727703	    0.666361	    0.679484	    1.782406	    1.284962	    1.744259	    1.746090	    1.223621	    1.380179	    0.266270	    0.194553	    0.189364	    1.461357	    1.161059	    1.231861	    1.635004	    1.067979	    1.000839	    1.727474	    1.226062	    1.181811
     4.015	0	0	    0	    0.727092	    0.667277	    0.684672	    1.784237	    1.294423	    1.750362	    1.748531	    1.229725	    1.392386	    0.264744	    0.196384	    0.190890	    1.456168	    1.171435	    1.237049	    1.645380	    1.076219	    1.012436	    1.738155	    1.230945	    1.191272
     4.070	0	0	    0	    0.731975	    0.671550	    0.684062	    1.784848	    1.293202	    1.753109	    1.749752	    1.248035	    1.374380	    0.265965	    0.195773	    0.190890	    1.459831	    1.172351	    1.242847	    1.664912	    1.071336	    1.007858	    1.746090	    1.233692	    1.189746
     4.125	0	0	    0	    0.721294	    0.663005	    0.672770	    1.779660	    1.288319	    1.749752	    1.732662	    1.224537	    1.357900	    0.265049	    0.194553	    0.189364	    1.456474	    1.164111	    1.228199	    1.627070	    1.056687	    0.985580	    1.731746	    1.213550	    1.172961
     4.180	0	0	    0	    0.720378	    0.659037	    0.674601	    1.767453	    1.273976	    1.730220	    1.730220	    1.212024	    1.357900	    0.263218	    0.192721	    0.188449	    1.443656	    1.145190	    1.213855	    1.620966	    1.049058	    0.981003	    1.717403	    1.209277	    1.169909
     4.235	0	0	    0	    0.720989	    0.652934	    0.670329	    1.765316	    1.277943	    1.735103	    1.718624	    1.215076	    1.344778	    0.261997	    0.193942	    0.188144	    1.435416	    1.147631	    1.217517	    1.610285	    1.048753	    0.977646	    1.717403	    1.208972	    1.167163
     4.290	0	0	    0	    0.721599	    0.658427	    0.670939	    1.766842	    1.276417	    1.733272	    1.723507	    1.214160	    1.358206	    0.262913	    0.190585	    0.187839	    1.438773	    1.150072	    1.218738	    1.621576	    1.047837	    0.975204	    1.718929	    1.208057	    1.173571
     4.345	0	0	    0	    0.718853	    0.659037	    0.673991	    1.763485	    1.279469	    1.735409	    1.730831	    1.222705	    1.362783	    0.264134	    0.193637	    0.189059	    1.441215	    1.152209	    1.220874	    1.612116	    1.053941	    0.989548	    1.724727	    1.214160	    1.174792
     4.400	0	0	    0	    0.719463	    0.660258	    0.675517	    1.769284	    1.273671	    1.734493	    1.732052	    1.224537	    1.373159	    0.264439	    0.193942	    0.189059	    1.442130	    1.152819	    1.218128	    1.635920	    1.050889	    0.990463	    1.727779	    1.215076	    1.178149
     4.455	0	0	    0	    0.724956	    0.660868	    0.680400	    1.776608	    1.281300	    1.741207	    1.731746	    1.217212	    1.370413	    0.263828	    0.194247	    0.188449	    1.448234	    1.156481	    1.225147	    1.634699	    1.071031	    0.993210	    1.729610	    1.227893	    1.181811
     4.510	0	0	    0	    0.726482	    0.666361	    0.681926	    1.777218	    1.288319	    1.748226	    1.758602	    1.234607	    1.374380	    0.264744	    0.193942	    0.190280	    1.450370	    1.161364	    1.230335	    1.637140	    1.074083	    0.991073	    1.733272	    1.232471	    1.186999
     4.565	0	0	    0	    0.728923	    0.668193	    0.682536	    1.776913	    1.287098	    1.754940	    1.755550	    1.245899	    1.371939	    0.266575	    0.196384	    0.192721	    1.452506	    1.163806	    1.241016	    1.652399	    1.073167	    1.015183	    1.754025	    1.236439	    1.195850
     4.620	0	0	    0	    0.729229	    0.672160	    0.688029	    1.790036	    1.288624	    1.763180	    1.747921	    1.234302	    1.398795	    0.267796	    0.196994	    0.192721	    1.458000	    1.170520	    1.244984	    1.663386	    1.081407	    1.007248	    1.765316	    1.246204	    1.208057
     4.675	0	0	    0	    0.731670	    0.667887	    0.683757	    1.797055	    1.300832	    1.763485	    1.753414	    1.222400	    1.383841	    0.266575	    0.196078	    0.192721	    1.465629	    1.174487	    1.247120	    1.670710	    1.079881	    1.010910	    1.758297	    1.246509	    1.203479
     4.730	0	0	    0	    0.723125	    0.659953	    0.675212	    1.784543	    1.292592	    1.745174	    1.742733	    1.218128	    1.356985	    0.264744	    0.195773	    0.190890	    1.453727	    1.160143	    1.221180	    1.624323	    1.067369	    1.000229	    1.730831	    1.229419	    1.186999
     4.785	0	0	    0	    0.720684	    0.659037	    0.672160	    1.768368	    1.282216	    1.739071	    1.733272	    1.212329	    1.351492	    0.264134	    0.192721	    0.189975	    1.432975	    1.151904	    1.222095	    1.624933	    1.043870	    0.987106	    1.735714	    1.223621	    1.189746
     4.840	0	0	    0	    0.722210	    0.662394	    0.676738	    1.768673	    1.281300	    1.739681	    1.720455	    1.222705	    1.355764	    0.264744	    0.193942	    0.188754	    1.431144	    1.152819	    1.220569	    1.634699	    1.055467	    0.990463	    1.735714	    1.226673	    1.179980
     4.895	0	0	    0	    0.722210	    0.661479	    0.678569	    1.779660	    1.280385	    1.742428	    1.721675	    1.224842	    1.367056	    0.264134	    0.194858	    0.189975	    1.443656	    1.150988	    1.223621	    1.627985	    1.055772	    0.998093	    1.740597	    1.228809	    1.195544
     4.950	0	0	    0	    0.724041	    0.660563	    0.676738	    1.774777	    1.285573	    1.743648	    1.729305	    1.223316	    1.353017	    0.265049	    0.195468	    0.189670	    1.441825	    1.161975	    1.225452	    1.636225	    1.066453	    0.999008	    1.739376	    1.234913	    1.191882
     5.005	0	0	    0	    0.726787	    0.663005	    0.676738	    1.768978	    1.285573	    1.744259	    1.732967	    1.222705	    1.381094	    0.265660	    0.193637	    0.189975	    1.441825	    1.159228	    1.229114	    1.637446	    1.062181	    1.005722	    1.743954	    1.236439	    1.191272
     5.060	0	0	    0	    0.724956	    0.666361	    0.683146	    1.780270	    1.289845	    1.749752	    1.736934	    1.228809	    1.377127	    0.266270	    0.195163	    0.190585	    1.449760	    1.159533	    1.231861	    1.647517	    1.061265	    0.998398	    1.755550	    1.236439	    1.195850
     5.115	0	0	    0	    0.729229	    0.670634	    0.684977	    1.786374	    1.286183	    1.750973	    1.743954	    1.238270	    1.403983	    0.266880	    0.196384	    0.191501	    1.455863	    1.165026	    1.231556	    1.648432	    1.090562	    1.021286	    1.755245	    1.242847	    1.200427
     5.170	0	0	    0	    0.727398	    0.669108	    0.689555	    1.788205	    1.297780	    1.755245	    1.747311	    1.237659	    1.396048	    0.268406	    0.197299	    0.192111	    1.455253	    1.168994	    1.235523	    1.670405	    1.093004	    1.020371	    1.760739	    1.250782	    1.214160
     5.225	0	0	    0	    0.734112	    0.673991	    0.687724	    1.786984	    1.300832	    1.772335	    1.773556	    1.244068	    1.395132	    0.269017	    0.198215	    0.193637	    1.458000	    1.174487	    1.251698	    1.670100	    1.092393	    1.032578	    1.778744	    1.256886	    1.216602
     5.280	0	0	    0	    0.728923	    0.665751	    0.678264	    1.791867	    1.295338	    1.758602	    1.733272	    1.234302	    1.371633	    0.267185	    0.196384	    0.192111	    1.456779	    1.171435	    1.237964	    1.654841	    1.075608	    1.011826	    1.761349	    1.242237	    1.197986
     5.335	0	0	    0	    0.720989	    0.661784	    0.673991	    1.774777	    1.284352	    1.744259	    1.727169	    1.219348	    1.377737	    0.264744	    0.194858	    0.190280	    1.438163	    1.154955	    1.223316	    1.628901	    1.058824	    1.003586	    1.742428	    1.233692	    1.190661
     5.390	0	0	    0	    0.717632	    0.661173	    0.675822	    1.774472	    1.282521	    1.741817	    1.714351	    1.219348	    1.365835	    0.264134	    0.194553	    0.189059	    1.437247	    1.155261	    1.218738	    1.627070	    1.069505	    1.006027	    1.739681	    1.230030	    1.189136
     5.445	0	0	    0	    0.717937	    0.661173	    0.674907	    1.768368	    1.280690	    1.737240	    1.732967	    1.216907	    1.362783	    0.264134	    0.193332	    0.189364	    1.431754	    1.152514	    1.226368	    1.624933	    1.073472	    1.001755	    1.736629	    1.225452	    1.191272
     5.500	0	0	    0	    0.721599	    0.661479	    0.677653	    1.770199	    1.280995	    1.743648	    1.720455	    1.226062	    1.361257	    0.264439	    0.193027	    0.190280	    1.440299	    1.155871	    1.223621	    1.644465	    1.065537	    1.001144	    1.747616	    1.230335	    1.190661
     5.555	0	0	    0	    0.722210	    0.661173	    0.676432	    1.772641	    1.284962	    1.742428	    1.732967	    1.219043	    1.372549	    0.265049	    0.195468	    0.189059	    1.435416	    1.156176	    1.226978	    1.634699	    1.057603	    0.995346	    1.752193	    1.237049	    1.197375
     5.610	0	0	    0	    0.727092	    0.663005	    0.681315	    1.776303	    1.288319	    1.744564	    1.739986	    1.233692	    1.381399	    0.264439	    0.195468	    0.189975	    1.442130	    1.160143	    1.230030	    1.637140	    1.071641	    1.010300	    1.753719	    1.237354	    1.194934
     5.665	0	0	    0	    0.730144	    0.668803	    0.682231	    1.777829	    1.289235	    1.746700	    1.738155	    1.226673	    1.389029	    0.265354	    0.194858	    0.191196	    1.446708	    1.167773	    1.225147	    1.631342	    1.088731	    1.020371	    1.756161	    1.243763	    1.209583
     5.720	0	0	    0	    0.731975	    0.671550	    0.685893	    1.783017	    1.290150	    1.754635	    1.749142	    1.235828	    1.375906	    0.266880	    0.195468	    0.192111	    1.452506	    1.165942	    1.234913	    1.650568	    1.080491	    1.011215	    1.764706	    1.249256	    1.210193
     5.775	0	0	    0	    0.731060	    0.671855	    0.687724	    1.783017	    1.291066	    1.762570	    1.748836	    1.240406	    1.385977	    0.267796	    0.197604	    0.193637	    1.452811	    1.165942	    1.244678	    1.662470	    1.097581	    1.029526	    1.771725	    1.256580	    1.218433
     5.830	0	0	    0	    0.732891	    0.672465	    0.689860	    1.798886	    1.303883	    1.768063	    1.757992	    1.245594	    1.393912	    0.267796	    0.198520	    0.193332	    1.460441	    1.177234	    1.244984	    1.673152	    1.088731	    1.023728	    1.773251	    1.256886	    1.220569
     5.885	0	0	    0	    0.723735	    0.660258	    0.677958	    1.780270	    1.292897	    1.755245	    1.734798	    1.220874	    1.371023	    0.265049	    0.195773	    0.191806	    1.446098	    1.166857	    1.234302	    1.622187	    1.064927	    1.008164	    1.740291	    1.239185	    1.198291
     5.940	0	0	    0	    0.720073	    0.659648	    0.674601	    1.760739	    1.277943	    1.739986	    1.729305	    1.207752	    1.350881	    0.262913	    0.193637	    0.190890	    1.429923	    1.152514	    1.223011	    1.614252	    1.058518	    0.987106	    1.734188	    1.221180	    1.183948
     5.995	0	0	    0	    0.720684	    0.658427	    0.673686	    1.763180	    1.277638	    1.728084	    1.730526	    1.210498	    1.354543	    0.261387	    0.192721	    0.188754	    1.427787	    1.144274	    1.215686	    1.601740	    1.060960	    0.983749	    1.724422	    1.219654	    1.177234
     6.050	0	0	    0	    0.717632	    0.658732	    0.674601	    1.768673	    1.272755	    1.725338	    1.713436	    1.210803	    1.353017	    0.263218	    0.193637	    0.189059	    1.431754	    1.142443	    1.211719	    1.607233	    1.050278	    0.988327	    1.728084	    1.217212	    1.176623
     6.105	0	0	    0	    0.720989	    0.659037	    0.673381	    1.765621	    1.278248	    1.736934	    1.709163	    1.210193	    1.349966	    0.263218	    0.193027	    0.189364	    1.431144	    1.151293	    1.219654	    1.622187	    1.044175	    0.983139	    1.721065	    1.223011	    1.180285
     6.160	0	0	    0	    0.720073	    0.660563	    0.674601	    1.765621	    1.273671	    1.734188	    1.710994	    1.214466	    1.349355	    0.261692	    0.193027	    0.189975	    1.429923	    1.146105	    1.215381	    1.616388	    1.065232	    0.991073	    1.728389	    1.222705	    1.184558
     6.215	0	0	    0	    0.723735	    0.660563	    0.680095	    1.771115	    1.279774	    1.728695	    1.733577	    1.228199	    1.356680	    0.263828	    0.192721	    0.189975	    1.426871	    1.149767	    1.219043	    1.626154	    1.058213	    1.002976	    1.740902	    1.222400	    1.183642
     6.270	0	0	    0	    0.722820	    0.665446	    0.682231	    1.771420	    1.284047	    1.734798	    1.737850	    1.239796	    1.367056	    0.264439	    0.194553	    0.191501	    1.436027	    1.155261	    1.223011	    1.629511	    1.069200	    0.999008	    1.737545	    1.230335	    1.194629
     6.325	0	0	    0	    0.727092	    0.665446	    0.681621	    1.772030	    1.288319	    1.745174	    1.747005	    1.230640	    1.362783	    0.264744	    0.195468	    0.192111	    1.439384	    1.166247	    1.228504	    1.643244	    1.067674	    1.024033	    1.747616	    1.233997	    1.201953
     6.380	0	0	    0	    0.731060	    0.670634	    0.686503	    1.779965	    1.291981	    1.754635	    1.765011	    1.243458	    1.375296	    0.264744	    0.196384	    0.192721	    1.447013	    1.163195	    1.239796	    1.655146	    1.074083	    1.014572	    1.746395	    1.237659	    1.199207
     6.435	0	0	    0	    0.731060	    0.669413	    0.684062	    1.785153	    1.289235	    1.754940	    1.755856	    1.219959	    1.373770	    0.266270	    0.196384	    0.191501	    1.452201	    1.168078	    1.240406	    1.644465	    1.087816	    1.012741	    1.753414	    1.240711	    1.202564
     6.490	0	0	    0	    0.719768	    0.657816	    0.675517	    1.774472	    1.280385	    1.741207	    1.718624	    1.203174	    1.361563	    0.262913	    0.193942	    0.189364	    1.439994	    1.153735	    1.219348	    1.613336	    1.062486	    0.995041	    1.724727	    1.218128	    1.179980
     6.545	0	0	    0	    0.716716	    0.656596	    0.671244	    1.765011	    1.274281	    1.731746	    1.708553	    1.208057	    1.350576	    0.261387	    0.192111	    0.188449	    1.426566	    1.142748	    1.217212	    1.605707	    1.058824	    0.997177	    1.720455	    1.213245	    1.174182
     6.600	0	0	    0	    0.714885	    0.655375	    0.671550	    1.759518	    1.273671	    1.724422	    1.699397	    1.203784	    1.339590	    0.259251	    0.190890	    0.189059	    1.422904	    1.145800	    1.210193	    1.600824	    1.056687	    0.977340	    1.710689	    1.205921	    1.165332
     6.655	0	0	    0	    0.717632	    0.659648	    0.672160	    1.757687	    1.267872	    1.721065	    1.717098	    1.213855	    1.344167	    0.260166	    0.191806	    0.187533	    1.414969	    1.138781	    1.200427	    1.614252	    1.045701	    0.986191	    1.710689	    1.209888	    1.167468
     6.710	0	0	    0	    0.716106	    0.657206	    0.672465	    1.761349	    1.272450	    1.723507	    1.711604	    1.205921	    1.356680	    0.261692	    0.191501	    0.187533	    1.419852	    1.138781	    1.211719	    1.611810	    1.059129	    0.977951	    1.713436	    1.201953	    1.168688
     6.765	0	0	    0	    0.719463	    0.656596	    0.673381	    1.760433	    1.272145	    1.728084	    1.714656	    1.206226	    1.339895	    0.260166	    0.192721	    0.187839	    1.426871	    1.148547	    1.214466	    1.613031	    1.046006	    0.991989	    1.714046	    1.211414	    1.165026
     6.820	0	0	    0	    0.722820	    0.658732	    0.676738	    1.761959	    1.277333	    1.729610	    1.716182	    1.221180	    1.353628	    0.261082	    0.193332	    0.188449	    1.422293	    1.149462	    1.215991	    1.610285	    1.059129	    0.992905	    1.705501	    1.213550	    1.168078
     6.875	0	0	    0	    0.723735	    0.663920	    0.676738	    1.765316	    1.276417	    1.736629	    1.724422	    1.223316	    1.353323	    0.262303	    0.193942	    0.188449	    1.432364	    1.151904	    1.226978	    1.635615	    1.060044	    0.997177	    1.716182	    1.220569	    1.179370
     6.930	0	0	    0	    0.725872	    0.668193	    0.681010	    1.770504	    1.279774	    1.742428	    1.729915	    1.237354	    1.359426	    0.263218	    0.193637	    0.189364	    1.440299	    1.155871	    1.228504	    1.639887	    1.070115	    1.006638	    1.727169	    1.219348	    1.183032
     6.985	0	0	    0	    0.725261	    0.669108	    0.684367	    1.772641	    1.288319	    1.745174	    1.744869	    1.243763	    1.373159	    0.264134	    0.195163	    0.190585	    1.439994	    1.157397	    1.234302	    1.647517	    1.077440	    1.024033	    1.731746	    1.229725	    1.193713
     7.040	0	0	    0	    0.730144	    0.668498	    0.685893	    1.778439	    1.289540	    1.755856	    1.763180	    1.229725	    1.382010	    0.265354	    0.196078	    0.192111	    1.439384	    1.168688	    1.237964	    1.641718	    1.075608	    1.014878	    1.747311	    1.233387	    1.195850
     7.095	0	0	    0	    0.722820	    0.660563	    0.674601	    1.773861	    1.281910	    1.743954	    1.735409	    1.211414	    1.349355	    0.263523	    0.195163	    0.189364	    1.433280	    1.158007	    1.227283	    1.622797	    1.064622	    0.999924	    1.727474	    1.215381	    1.177234
     7.150	0	0	    0	    0.714275	    0.655985	    0.673075	    1.764401	    1.272450	    1.721370	    1.711299	    1.196765	    1.347829	    0.260472	    0.190890	    0.187533	    1.420157	    1.140307	    1.207752	    1.602655	    1.046006	    0.986191	    1.705196	    1.203174	    1.154040
     7.205	0	0	    0	    0.716106	    0.650492	    0.671244	    1.755550	    1.266957	    1.716793	    1.708553	    1.200122	    1.344472	    0.258640	    0.192111	    0.187839	    1.418631	    1.135424	    1.201953	    1.589227	    1.041428	    0.982223	    1.696345	    1.201648	    1.157092
     7.260	0	0	    0	    0.714885	    0.652628	    0.669413	    1.753719	    1.264515	    1.716793	    1.718318	    1.199512	    1.345388	    0.258335	    0.190280	    0.186618	    1.415274	    1.133593	    1.200427	    1.591669	    1.040208	    0.981308	    1.690852	    1.201648	    1.158007
     7.315	0	0	    0	    0.718853	    0.655985	    0.671855	    1.758907	    1.268177	    1.722896	    1.713741	    1.198291	    1.341726	    0.260166	    0.191196	    0.186313	    1.421073	    1.140002	    1.207141	    1.593500	    1.048753	    0.983444	    1.699397	    1.193408	    1.157092
     7.370	0	0	    0	    0.715190	    0.657511	    0.673381	    1.759213	    1.264515	    1.717098	    1.707027	    1.213245	    1.342641	    0.259251	    0.191196	    0.187228	    1.418021	    1.140002	    1.203479	    1.602350	    1.041733	    0.999008	    1.702144	    1.198596	    1.160754
     7.425	0	0	    0	    0.720989	    0.659037	    0.673991	    1.757992	    1.272145	    1.718624	    1.712520	    1.210803	    1.350271	    0.261082	    0.194247	    0.188754	    1.420462	    1.142443	    1.208667	    1.603571	    1.050278	    0.982834	    1.707332	    1.206531	    1.170825
     7.480	0	0	    0	    0.721599	    0.659648	    0.674907	    1.757687	    1.270008	    1.729610	    1.725948	    1.217212	    1.344472	    0.261387	    0.193027	    0.186618	    1.424430	    1.146105	    1.218738	    1.608453	    1.058213	    0.993515	    1.710994	    1.210803	    1.170520
     7.535	0	0	    0	    0.723735	    0.664225	    0.678569	    1.768063	    1.273671	    1.736629	    1.723507	    1.218433	    1.352712	    0.261692	    0.192416	    0.187533	    1.437858	    1.147936	    1.215686	    1.616693	    1.054856	    0.993515	    1.714656	    1.211414	    1.175402
     7.590	0	0	    0	    0.726482	    0.664836	    0.684367	    1.775082	    1.275807	    1.737545	    1.746395	    1.223926	    1.365225	    0.264134	    0.193332	    0.189975	    1.439078	    1.151598	    1.227283	    1.628595	    1.085069	    0.999313	    1.727474	    1.223926	    1.184558
     7.645	0	0	    0	    0.726482	    0.669718	    0.685588	    1.778744	    1.280690	    1.738766	    1.738766	    1.218433	    1.370413	    0.264439	    0.196078	    0.192111	    1.448539	    1.154650	    1.224537	    1.651179	    1.081102	    1.016098	    1.735409	    1.232776	    1.194324
     7.700	0	0	    0	    0.728313	    0.668193	    0.684367	    1.782712	    1.288014	    1.754330	    1.740291	    1.238575	    1.373465	    0.263523	    0.195163	    0.192416	    1.446403	    1.168078	    1.234913	    1.632868	    1.084764	    1.022812	    1.742733	    1.231861	    1.201343
     7.755	0	0	    0	    0.722210	    0.662699	    0.674601	    1.775692	    1.285878	    1.739376	    1.731441	    1.220569	    1.364614	    0.264134	    0.193637	    0.190280	    1.444877	    1.158923	    1.226673	    1.621576	    1.074083	    1.003586	    1.728389	    1.220569	    1.179370
     7.810	0	0	    0	    0.717021	    0.658427	    0.671855	    1.764401	    1.271839	    1.723507	    1.707027	    1.212329	    1.345693	    0.259861	    0.192416	    0.187839	    1.430228	    1.141222	    1.210803	    1.604791	    1.041428	    0.989242	    1.711910	    1.205615	    1.163500
     7.865	0	0	    0	    0.718242	    0.655985	    0.671855	    1.760433	    1.267872	    1.721065	    1.700008	    1.197375	    1.332876	    0.260472	    0.192416	    0.186923	    1.429618	    1.137560	    1.208972	    1.610285	    1.055772	    0.982223	    1.699702	    1.202869	    1.157092
     7.920	0	0	    0	    0.715801	    0.652628	    0.671550	    1.756771	    1.266957	    1.716182	    1.710079	    1.192187	    1.343862	    0.258640	    0.192111	    0.187839	    1.424430	    1.138781	    1.205921	    1.577630	    1.047227	    0.983139	    1.695125	    1.196765	    1.157702
     7.975	0	0	    0	    0.717937	    0.655375	    0.673075	    1.748531	    1.267872	    1.726253	    1.706722	    1.195850	    1.345998	    0.260777	    0.191196	    0.187839	    1.415274	    1.135729	    1.204700	    1.606622	    1.049058	    0.989853	    1.699702	    1.208057	    1.163195
     8.030	0	0	    0	    0.714885	    0.658427	    0.672465	    1.753109	    1.268788	    1.718318	    1.697566	    1.196460	    1.334096	    0.260472	    0.192416	    0.188144	    1.421988	    1.142443	    1.208667	    1.597772	    1.053025	    0.983749	    1.707637	    1.204700	    1.163806
     8.085	0	0	    0	    0.716411	    0.658732	    0.673381	    1.761959	    1.269703	    1.719844	    1.714351	    1.220569	    1.345693	    0.260777	    0.190890	    0.187839	    1.429007	    1.141833	    1.208362	    1.612116	    1.061570	    0.996262	    1.708248	    1.206531	    1.171435
     8.140	0	0	    0	    0.721599	    0.660258	    0.677043	    1.764401	    1.273365	    1.723507	    1.717098	    1.210498	    1.346609	    0.262608	    0.193637	    0.188754	    1.430533	    1.148547	    1.214771	    1.612116	    1.070115	    0.995346	    1.715572	    1.214466	    1.176013
     8.195	0	0	    0	    0.725872	    0.663310	    0.678569	    1.763485	    1.275807	    1.729000	    1.726253	    1.219959	    1.358511	    0.262303	    0.193332	    0.189059	    1.436637	    1.151293	    1.216297	    1.628901	    1.064012	    1.003281	    1.719539	    1.215381	    1.177844
     8.250	0	0	    0	    0.721904	    0.666972	    0.681621	    1.765621	    1.274281	    1.735409	    1.742123	    1.233387	    1.375906	    0.262608	    0.194858	    0.189670	    1.435416	    1.155261	    1.226673	    1.626764	    1.070115	    1.008774	    1.727169	    1.221790	    1.179675
     8.305	0	0	    0	    0.727092	    0.670634	    0.686809	    1.776913	    1.284657	    1.740597	    1.741817	    1.240101	    1.381094	    0.263218	    0.194858	    0.190585	    1.444877	    1.157397	    1.230945	    1.638666	    1.069505	    1.014878	    1.735409	    1.230335	    1.187610
     8.360	0	0	    0	    0.728923	    0.668803	    0.684062	    1.778134	    1.290150	    1.749142	    1.751278	    1.226368	    1.374075	    0.264744	    0.195163	    0.190890	    1.444572	    1.163806	    1.233387	    1.639582	    1.078660	    1.016403	    1.735409	    1.231861	    1.190661
     8.415	0	0	    0	    0.719158	    0.659037	    0.671550	    1.766537	    1.282521	    1.737545	    1.711910	    1.212940	    1.345083	    0.262303	    0.193637	    0.189059	    1.434501	    1.156481	    1.224231	    1.618219	    1.057298	    1.008469	    1.718013	    1.214466	    1.164111
     8.470	0	0	    0	    0.716716	    0.657206	    0.670634	    1.759518	    1.273365	    1.722896	    1.715877	    1.214771	    1.351492	    0.259861	    0.191806	    0.186618	    1.424430	    1.139391	    1.208057	    1.591669	    1.052110	    0.989548	    1.700618	    1.199817	    1.161059
     8.525	0	0	    0	    0.716106	    0.657511	    0.671855	    1.759518	    1.268177	    1.718318	    1.710994	    1.212024	    1.349966	    0.260166	    0.192111	    0.186923	    1.429313	    1.138476	    1.204395	    1.608148	    1.057298	    0.996262	    1.703059	    1.204089	    1.164111
     8.580	0	0	    0	    0.717021	    0.655680	    0.675212	    1.755856	    1.270924	    1.714046	    1.715267	    1.207752	    1.358206	    0.259556	    0.192111	    0.186618	    1.423209	    1.137560	    1.201038	    1.598688	    1.052110	    0.993210	    1.699702	    1.203174	    1.160143
     8.635	0	0	    0	    0.717327	    0.658732	    0.671855	    1.760128	    1.271534	    1.725032	    1.704585	    1.212329	    1.348135	    0.259251	    0.191501	    0.188144	    1.427176	    1.143664	    1.213245	    1.599908	    1.056382	    0.991073	    1.703365	    1.202869	    1.165026
     8.690	0	0	    0	    0.718242	    0.658427	    0.673075	    1.759518	    1.266957	    1.722286	    1.714961	    1.216907	    1.353628	    0.260472	    0.191196	    0.188449	    1.424125	    1.141833	    1.211109	    1.600519	    1.046921	    0.993820	    1.702754	    1.202564	    1.168078
     8.745	0	0	    0	    0.717937	    0.660868	    0.677653	    1.760128	    1.270924	    1.727779	    1.741512	    1.226673	    1.350271	    0.260166	    0.192111	    0.188144	    1.431449	    1.147936	    1.214771	    1.618219	    1.064317	    0.990158	    1.710079	    1.213550	    1.170825
     8.800	0	0	    0	    0.719158	    0.663310	    0.674907	    1.772946	    1.277638	    1.730526	    1.720150	    1.219043	    1.368582	    0.261997	    0.193332	    0.188449	    1.438163	    1.148852	    1.219043	    1.634699	    1.070420	    1.011521	    1.724422	    1.224231	    1.175402
     8.855	0	0	    0	    0.720378	    0.664225	    0.678874	    1.773861	    1.282521	    1.737545	    1.726558	    1.218128	    1.369497	    0.262913	    0.194247	    0.189975	    1.439078	    1.154955	    1.223621	    1.630426	    1.072557	    1.010910	    1.732052	    1.225452	    1.186694
     8.910	0	0	    0	    0.726177	    0.667277	    0.683452	    1.777829	    1.280079	    1.741512	    1.752804	    1.228199	    1.378653	    0.265049	    0.196384	    0.191196	    1.444572	    1.154650	    1.222705	    1.647211	    1.080797	    1.021592	    1.742428	    1.230335	    1.193713
     8.965	0	0	    0	    0.727398	    0.666667	    0.684367	    1.776303	    1.284657	    1.745480	    1.750362	    1.241016	    1.373465	    0.264744	    0.196994	    0.191196	    1.446708	    1.157092	    1.234913	    1.659419	    1.095445	    1.020371	    1.751278	    1.238270	    1.200732
     9.020	0	0	    0	    0.720073	    0.661173	    0.677348	    1.779049	    1.287709	    1.740597	    1.729610	    1.218128	    1.374990	    0.263828	    0.195163	    0.190280	    1.447623	    1.159533	    1.226062	    1.630732	    1.073777	    1.008774	    1.728695	    1.223621	    1.179370
     9.075	0	0	    0	    0.716716	    0.656901	    0.672770	    1.762570	    1.275807	    1.726253	    1.726558	    1.201038	    1.345083	    0.259861	    0.192721	    0.188754	    1.430228	    1.143664	    1.211109	    1.618219	    1.052110	    1.003891	    1.707942	    1.207446	    1.173571
     9.130	0	0	    0	    0.717327	    0.658122	    0.670024	    1.760128	    1.267567	    1.728084	    1.716182	    1.210193	    1.343557	    0.259861	    0.192416	    0.187533	    1.425956	    1.137560	    1.208057	    1.595026	    1.051194	    0.997177	    1.707332	    1.207752	    1.167163
     9.185	0	0	    0	    0.716411	    0.659953	    0.672160	    1.762570	    1.263294	    1.725948	    1.717403	    1.212634	    1.364004	    0.259251	    0.191806	    0.188144	    1.428092	    1.134508	    1.210193	    1.617304	    1.056992	    0.987716	    1.710994	    1.204089	    1.163195
     9.240	0	0	    0	    0.714275	    0.655985	    0.675212	    1.765011	    1.274281	    1.728389	    1.715877	    1.212634	    1.348135	    0.261082	    0.191501	    0.188754	    1.433585	    1.143359	    1.210803	    1.613336	    1.057603	    1.006638	    1.707027	    1.204700	    1.164111
     9.295	0	0	    0	    0.718547	    0.658427	    0.675517	    1.762875	    1.274891	    1.720760	    1.722591	    1.219348	    1.357595	    0.260472	    0.193027	    0.189059	    1.431144	    1.142748	    1.206226	    1.610590	    1.056687	    0.997177	    1.708858	    1.208972	    1.164721
     9.350	0	0	    0	    0.719463	    0.664225	    0.674296	    1.764401	    1.270924	    1.732967	    1.729610	    1.210498	    1.351797	    0.261387	    0.192111	    0.189670	    1.429007	    1.146105	    1.214466	    1.619745	    1.065537	    1.002976	    1.705196	    1.196460	    1.164416
     9.405	0	0	    0	    0.722515	    0.662394	    0.678264	    1.772335	    1.277638	    1.734188	    1.736629	    1.232776	    1.374685	    0.262608	    0.192721	    0.188754	    1.436942	    1.148547	    1.219654	    1.627375	    1.077134	    0.999924	    1.710384	    1.203784	    1.166247
     9.460	0	0	    0	    0.723125	    0.665446	    0.682231	    1.772946	    1.284047	    1.735714	    1.746395	    1.220874	    1.364614	    0.263523	    0.194553	    0.189975	    1.438468	    1.156481	    1.225452	    1.622797	    1.067979	    1.017014	    1.710689	    1.212940	    1.176928
     9.515	0	0	    0	    0.726787	    0.666972	    0.683757	    1.779660	    1.287709	    1.748836	    1.754940	    1.240101	    1.383841	    0.262303	    0.194553	    0.190280	    1.448234	    1.160143	    1.230030	    1.633783	    1.067979	    1.024338	    1.717708	    1.218738	    1.177234
     9.570	0	0	    0	    0.729229	    0.666667	    0.681926	    1.779660	    1.287709	    1.752804	    1.747616	    1.238880	    1.382010	    0.264134	    0.195163	    0.190585	    1.449454	    1.161669	    1.234302	    1.640192	    1.095140	    1.018235	    1.729610	    1.220569	    1.183337
     9.625	0	0	    0	    0.720684	    0.663920	    0.674907	    1.783017	    1.288014	    1.748226	    1.736629	    1.217517	    1.361257	    0.265354	    0.193942	    0.189670	    1.453117	    1.158618	    1.233082	    1.637751	    1.083848	    0.998703	    1.704280	    1.209888	    1.166857
     9.680	0	0	    0	    0.714580	    0.657511	    0.671855	    1.773251	    1.275807	    1.721370	    1.707942	    1.216297	    1.351492	    0.259556	    0.191806	    0.188144	    1.436942	    1.144884	    1.207446	    1.603876	    1.055161	    0.983444	    1.692378	    1.195544	    1.148547
     9.735	0	0	    0	    0.713970	    0.653849	    0.671855	    1.756161	    1.272145	    1.721981	    1.719844	    1.208667	    1.341421	    0.259251	    0.192111	    0.187533	    1.422904	    1.137865	    1.208057	    1.590448	    1.050584	    0.992294	    1.687800	    1.191882	    1.152514
     9.790	0	0	    0	    0.717632	    0.654154	    0.672160	    1.759823	    1.269093	    1.720455	    1.722286	    1.221485	    1.340505	    0.258946	    0.191501	    0.186618	    1.430533	    1.140917	    1.202258	    1.599908	    1.046616	    0.985580	    1.682918	    1.192493	    1.151598
     9.845	0	0	    0	    0.718853	    0.657206	    0.672465	    1.758907	    1.267872	    1.723507	    1.727169	    1.214466	    1.361868	    0.260166	    0.191806	    0.188144	    1.427176	    1.140002	    1.207446	    1.594720	    1.045090	    0.990158	    1.696345	    1.199207	    1.157092
     9.900	0	0	    0	    0.717937	    0.657206	    0.674601	    1.765316	    1.273060	    1.726253	    1.722286	    1.214466	    1.359731	    0.260777	    0.192721	    0.187228	    1.427481	    1.135729	    1.209888	    1.593805	    1.053941	    1.002060	    1.697261	    1.195544	    1.151904
     9.955	0	0	    0	    0.720378	    0.659648	    0.674601	    1.766537	    1.271534	    1.727779	    1.723507	    1.207141	    1.351492	    0.260472	    0.192416	    0.187533	    1.432975	    1.143053	    1.206226	    1.602350	    1.056077	    0.999313	    1.695430	    1.198291	    1.153735
    10.010	0	0	    0	    0.720073	    0.659342	    0.679484	    1.768673	    1.278859	    1.729610	    1.724727	    1.220569	    1.365835	    0.261997	    0.193027	    0.188449	    1.434806	    1.148547	    1.212940	    1.621576	    1.065232	    1.012436	    1.702449	    1.202564	    1.164721
    10.065	0	0	    0	    0.723125	    0.664836	    0.681010	    1.767758	    1.274281	    1.736934	    1.752804	    1.219959	    1.360647	    0.262913	    0.192111	    0.189059	    1.437552	    1.144579	    1.217517	    1.624323	    1.068284	    1.009995	    1.713741	    1.205005	    1.171740
    10.120	0	0	    0	    0.724041	    0.667887	    0.683757	    1.782406	    1.284047	    1.745174	    1.737240	    1.231556	    1.376822	    0.263828	    0.193942	    0.189975	    1.447623	    1.154955	    1.223011	    1.639277	    1.071946	    1.010910	    1.724117	    1.218433	    1.176013
    10.175	0	0	    0	    0.729229	    0.667887	    0.685283	    1.786679	    1.291676	    1.741817	    1.751888	    1.239796	    1.392691	    0.264134	    0.195773	    0.190890	    1.446098	    1.159838	    1.226673	    1.657282	    1.079881	    1.027390	    1.730831	    1.222705	    1.186999
    10.230	0	0	    0	    0.730755	    0.671244	    0.687419	    1.787594	    1.291066	    1.757687	    1.758602	    1.247120	    1.387198	    0.265049	    0.196078	    0.192111	    1.452506	    1.164416	    1.237049	    1.661555	    1.093004	    1.034714	    1.736019	    1.233082	    1.192798
    10.285	0	0	    0	    0.722820	    0.663920	    0.676738	    1.776303	    1.288930	    1.746395	    1.741817	    1.214160	    1.364004	    0.263218	    0.194553	    0.190280	    1.437552	    1.155261	    1.224537	    1.634089	    1.073167	    1.005417	    1.728389	    1.208667	    1.172656
    10.340	0	0	    0	    0.719463	    0.658427	    0.673075	    1.770809	    1.274586	    1.722286	    1.724422	    1.206531	    1.353323	    0.260777	    0.191501	    0.187839	    1.431449	    1.136339	    1.201648	    1.602960	    1.052110	    0.991989	    1.708858	    1.201038	    1.157092
    10.395	0	0	    0	    0.714275	    0.656291	    0.672770	    1.765927	    1.269398	    1.724727	    1.715267	    1.204700	    1.355459	    0.260472	    0.191196	    0.187533	    1.430533	    1.138781	    1.196765	    1.602960	    1.057908	    0.983444	    1.700008	    1.203784	    1.158007
    10.450	0	0	    0	    0.716411	    0.656596	    0.672770	    1.753719	    1.266041	    1.723812	    1.715877	    1.203174	    1.346304	    0.258946	    0.192721	    0.187228	    1.417105	    1.137255	    1.199512	    1.595331	    1.041123	    0.991379	    1.697871	    1.197375	    1.157092
    10.505	0	0	    0	    0.715801	    0.659342	    0.670634	    1.754330	    1.269093	    1.724117	    1.711299	    1.218738	    1.341421	    0.260472	    0.192111	    0.187533	    1.420768	    1.137255	    1.204700	    1.604181	    1.057603	    0.993210	    1.701228	    1.200427	    1.161059
    10.560	0	0	    0	    0.716106	    0.656901	    0.674601	    1.762570	    1.270619	    1.716793	    1.710689	    1.218128	    1.360647	    0.261387	    0.191196	    0.186313	    1.420157	    1.133593	    1.194934	    1.601434	    1.057298	    0.989548	    1.700313	    1.199512	    1.154650
    10.615	0	0	    0	    0.718242	    0.660563	    0.675517	    1.765316	    1.272145	    1.724422	    1.725338	    1.221180	    1.364920	    0.259556	    0.193637	    0.188754	    1.425956	    1.138781	    1.205921	    1.600519	    1.069200	    0.990463	    1.705196	    1.207752	    1.161669
    10.670	0	0	    0	    0.723125	    0.660868	    0.676432	    1.766232	    1.274891	    1.732357	    1.734493	    1.224537	    1.354849	    0.261692	    0.193332	    0.188144	    1.428397	    1.141527	    1.207752	    1.623407	    1.069505	    1.004196	    1.712215	    1.205005	    1.173571
    10.725	0	0	    0	    0.722515	    0.666361	    0.679789	    1.774166	    1.278553	    1.739376	    1.736019	    1.224842	    1.352102	    0.261387	    0.193637	    0.189975	    1.432975	    1.148852	    1.218128	    1.616693	    1.074388	    1.004196	    1.721370	    1.216297	    1.179675
    10.780	0	0	    0	    0.724651	    0.669108	    0.682536	    1.775692	    1.280079	    1.738766	    1.727474	    1.233082	    1.368276	    0.263523	    0.194858	    0.189364	    1.436637	    1.150988	    1.215076	    1.641108	    1.079881	    1.018845	    1.732662	    1.221790	    1.182727
    10.835	0	0	    0	    0.727703	    0.668803	    0.688640	    1.779355	    1.285878	    1.746700	    1.744259	    1.244984	    1.388113	    0.264439	    0.195468	    0.190890	    1.443351	    1.152514	    1.225147	    1.632563	    1.089342	    1.017319	    1.742428	    1.230030	    1.191272
    10.890	0	0	    0	    0.732280	    0.673075	    0.689555	    1.785153	    1.294118	    1.750973	    1.762570	    1.248341	    1.403983	    0.264439	    0.196994	    0.192416	    1.447623	    1.164416	    1.233997	    1.647211	    1.095140	    1.025254	    1.752804	    1.233387	    1.192493
    10.945	0	0	    0	    0.724346	    0.662089	    0.677958	    1.782406	    1.288930	    1.750362	    1.743343	    1.215076	    1.364614	    0.263523	    0.194553	    0.190890	    1.449760	    1.154345	    1.222400	    1.640192	    1.070420	    1.013657	    1.717098	    1.219654	    1.175402
    11.000	0	0	    0	    0.719463	    0.660258	    0.676127	    1.769589	    1.265431	    1.724117	    1.739376	    1.214771	    1.353933	    0.259861	    0.192721	    0.186007	    1.428702	    1.130541	    1.203174	    1.615473	    1.052415	    0.994736	    1.710994	    1.203479	    1.161059
    11.055	0	0	    0	    0.713970	    0.658122	    0.671550	    1.766842	    1.271534	    1.725338	    1.713741	    1.205310	    1.343862	    0.259556	    0.191806	    0.186313	    1.425040	    1.135729	    1.199512	    1.608453	    1.045701	    0.989548	    1.706416	    1.204395	    1.163195
    11.110	0	0	    0	    0.715190	    0.659342	    0.671550	    1.758907	    1.269398	    1.719234	    1.717403	    1.210498	    1.351797	    0.258640	    0.190890	    0.186923	    1.415885	    1.138781	    1.193408	    1.605402	    1.051804	    0.981918	    1.701839	    1.196155	    1.158312
    11.165	0	0	    0	    0.717021	    0.660258	    0.672770	    1.760433	    1.270619	    1.722896	    1.718318	    1.214771	    1.365225	    0.259251	    0.191501	    0.187839	    1.418631	    1.132677	    1.197070	    1.614557	    1.057908	    0.990463	    1.700618	    1.201648	    1.160143
    11.220	0	0	    0	    0.720073	    0.661784	    0.675822	    1.758602	    1.270314	    1.724117	    1.717098	    1.224231	    1.358206	    0.259251	    0.192111	    0.187228	    1.420157	    1.134813	    1.203479	    1.605097	    1.057908	    0.991684	    1.709773	    1.202258	    1.161975
    11.275	0	0	    0	    0.717327	    0.663615	    0.679179	    1.765011	    1.274281	    1.724727	    1.716487	    1.214160	    1.350881	    0.259556	    0.192721	    0.187533	    1.425040	    1.138476	    1.197986	    1.609979	    1.066148	    0.986496	    1.710079	    1.207446	    1.165942
    11.330	0	0	    0	    0.722210	    0.661479	    0.679789	    1.767758	    1.276722	    1.731746	    1.739376	    1.221790	    1.370108	    0.260777	    0.193332	    0.189364	    1.435416	    1.141833	    1.214771	    1.607843	    1.056382	    1.011521	    1.713741	    1.212940	    1.173877
    11.385	0	0	    0	    0.727703	    0.667582	    0.684062	    1.769284	    1.276722	    1.740597	    1.751583	    1.226978	    1.382925	    0.263218	    0.193332	    0.189364	    1.429923	    1.143664	    1.218433	    1.626764	    1.063706	    1.007553	    1.731441	    1.221790	    1.178149
    11.440	0	0	    0	    0.728008	    0.668803	    0.685588	    1.775998	    1.279164	    1.744869	    1.755245	    1.234302	    1.386587	    0.263523	    0.193942	    0.191196	    1.440909	    1.150378	    1.219654	    1.649042	    1.073777	    1.004501	    1.741817	    1.226978	    1.186999
    11.495	0	0	    0	    0.731670	    0.671550	    0.690166	    1.784543	    1.284352	    1.745480	    1.743038	    1.246204	    1.388113	    0.264134	    0.196078	    0.191196	    1.446403	    1.153735	    1.222400	    1.657893	    1.073167	    1.021592	    1.750973	    1.232166	    1.191577
    11.550	0	0	    0	    0.730144	    0.673686	    0.691691	    1.789731	    1.295644	    1.753414	    1.770199	    1.252308	    1.394522	    0.265049	    0.197604	    0.192721	    1.454948	    1.162585	    1.226673	    1.655756	    1.098192	    1.029221	    1.754940	    1.240101	    1.201648
    11.605	0	0	    0	    0.736248	    0.672465	    0.690471	    1.791562	    1.297169	    1.764706	    1.764096	    1.246204	    1.393912	    0.266575	    0.195468	    0.193332	    1.450675	    1.165942	    1.237049	    1.674067	    1.092088	    1.035019	    1.763180	    1.244068	    1.208057
    11.660	0	0	    0	    0.725872	    0.666056	    0.681926	    1.787289	    1.292592	    1.756161	    1.751278	    1.238575	    1.366445	    0.265049	    0.196078	    0.190280	    1.448844	    1.159228	    1.228809	    1.654536	    1.073472	    1.008469	    1.741817	    1.223621	    1.181811
    11.715	0	0	    0	    0.718853	    0.660868	    0.676432	    1.772641	    1.280079	    1.727779	    1.736629	    1.231861	    1.374990	    0.262608	    0.193942	    0.188449	    1.428702	    1.143359	    1.206531	    1.602655	    1.071946	    0.998398	    1.716182	    1.218128	    1.176013
    11.770	0	0	    0	    0.721294	    0.658122	    0.672770	    1.764096	    1.277028	    1.730831	    1.739376	    1.214160	    1.355154	    0.260166	    0.192721	    0.188754	    1.423209	    1.137560	    1.199512	    1.616083	    1.064622	    0.993820	    1.715267	    1.212024	    1.166552
    11.825	0	0	    0	    0.718853	    0.662089	    0.676738	    1.768368	    1.273671	    1.732662	    1.727169	    1.217823	    1.360037	    0.261082	    0.192111	    0.189670	    1.424125	    1.135729	    1.203479	    1.613642	    1.056077	    0.994430	    1.717403	    1.212329	    1.173571
    11.880	0	0	    0	    0.723125	    0.662089	    0.678874	    1.768063	    1.273976	    1.735409	    1.734798	    1.233387	    1.363394	    0.262608	    0.192721	    0.188754	    1.435111	    1.134813	    1.203479	    1.627680	    1.053330	    0.991073	    1.729915	    1.209888	    1.172961
    11.935	0	0	    0	    0.720378	    0.663310	    0.679789	    1.763180	    1.276112	    1.731746	    1.723201	    1.216907	    1.367666	    0.261387	    0.192111	    0.189670	    1.424735	    1.139391	    1.205921	    1.640497	    1.066453	    0.998093	    1.728084	    1.211719	    1.178454
    11.990	0	0	    0	    0.721599	    0.663310	    0.678569	    1.772030	    1.282521	    1.729000	    1.724422	    1.205310	    1.364614	    0.262608	    0.193942	    0.188754	    1.432364	    1.147021	    1.206531	    1.633478	    1.066148	    1.009384	    1.731746	    1.218433	    1.182727
    12.045	0	0	    0	    0.728313	    0.666972	    0.683146	    1.768368	    1.285267	    1.740291	    1.732662	    1.227893	    1.384146	    0.262303	    0.193942	    0.190280	    1.433890	    1.153124	    1.216297	    1.638361	    1.075914	    1.012436	    1.739681	    1.228809	    1.180591
    12.100	0	0	    0	    0.728313	    0.670024	    0.686198	    1.779965	    1.286793	    1.747921	    1.751583	    1.245594	    1.388724	    0.264744	    0.195468	    0.190280	    1.445182	    1.152514	    1.225452	    1.667353	    1.093614	    1.015793	    1.743038	    1.230335	    1.193103
    12.155	0	0	    0	    0.728618	    0.672465	    0.687419	    1.779660	    1.288319	    1.749752	    1.747921	    1.244984	    1.390555	    0.264439	    0.196078	    0.191806	    1.445792	    1.155871	    1.225452	    1.646601	    1.091478	    1.021286	    1.754940	    1.239490	    1.201648
    12.210	0	0	    0	    0.728618	    0.675517	    0.693828	    1.790036	    1.291371	    1.753414	    1.749752	    1.247730	    1.403677	    0.266575	    0.196994	    0.192721	    1.455253	    1.158312	    1.227588	    1.678340	    1.093614	    1.039902	    1.764706	    1.248035	    1.205921
    12.265	0	0	    0	    0.735943	    0.677958	    0.696269	    1.796750	    1.301137	    1.766537	    1.768978	    1.251392	    1.413443	    0.268101	    0.197604	    0.193332	    1.460441	    1.165637	    1.230030	    1.673457	    1.102159	    1.035935	    1.778744	    1.255360	    1.214466
    12.320	0	0	    0	    0.731670	    0.671244	    0.684672	    1.789425	    1.296254	    1.760739	    1.759213	    1.242847	    1.383230	    0.267185	    0.197604	    0.193637	    1.454337	    1.160754	    1.229725	    1.664607	    1.093614	    1.018845	    1.764401	    1.236744	    1.199512
    12.375	0	0	    0	    0.724346	    0.666972	    0.681315	    1.782406	    1.283436	    1.741817	    1.746395	    1.229419	    1.369192	    0.264134	    0.194858	    0.189975	    1.438773	    1.149462	    1.207752	    1.638361	    1.067979	    1.005417	    1.745174	    1.226978	    1.190051
    12.430	0	0	    0	    0.720989	    0.662394	    0.681010	    1.769589	    1.283742	    1.736934	    1.742123	    1.227283	    1.377737	    0.263218	    0.194553	    0.189670	    1.430533	    1.145495	    1.209583	    1.622187	    1.061265	    1.000534	    1.743038	    1.226062	    1.185168
    12.485	0	0	    0	    0.722820	    0.662699	    0.680400	    1.772335	    1.277943	    1.736934	    1.739681	    1.219348	    1.369497	    0.262608	    0.193942	    0.189059	    1.432364	    1.145800	    1.210193	    1.624628	    1.067369	    1.004196	    1.741512	    1.223926	    1.187915
    12.540	0	0	    0	    0.726177	    0.666972	    0.681315	    1.772335	    1.280079	    1.740902	    1.750668	    1.223011	    1.374075	    0.263523	    0.193942	    0.190890	    1.432670	    1.150072	    1.214466	    1.637446	    1.074998	    1.015488	    1.740291	    1.230945	    1.187915
    12.595	0	0	    0	    0.724956	    0.666056	    0.682841	    1.779355	    1.279469	    1.738460	    1.723812	    1.232471	    1.380179	    0.264134	    0.194247	    0.190280	    1.438468	    1.145190	    1.215381	    1.630732	    1.075303	    1.008469	    1.749752	    1.230335	    1.186694
    12.650	0	0	    0	    0.724346	    0.667582	    0.685283	    1.777829	    1.279469	    1.739071	    1.724422	    1.239796	    1.386587	    0.264744	    0.195163	    0.191196	    1.443046	    1.145800	    1.215686	    1.640803	    1.072862	    1.013657	    1.750057	    1.233082	    1.189746
    12.705	0	0	    0	    0.730449	    0.669718	    0.687419	    1.779660	    1.286488	    1.747311	    1.743954	    1.225757	    1.387198	    0.265354	    0.195468	    0.191806	    1.439384	    1.156481	    1.218738	    1.641718	    1.082628	    1.024643	    1.757382	    1.238575	    1.202564
    12.760	0	0	    0	    0.735027	    0.672465	    0.689555	    1.781796	    1.289845	    1.757687	    1.763180	    1.242237	    1.398795	    0.267185	    0.195773	    0.192111	    1.446403	    1.159838	    1.227893	    1.662165	    1.090867	    1.019150	    1.764401	    1.245899	    1.201038
    12.815	0	0	    0	    0.732891	    0.678264	    0.693217	    1.786679	    1.294728	    1.759823	    1.762570	    1.251087	    1.406729	    0.266880	    0.197299	    0.193332	    1.452506	    1.158618	    1.234607	    1.682002	    1.103990	    1.028916	    1.780575	    1.253223	    1.214466
    12.870	0	0	    0	    0.735027	    0.677958	    0.697185	    1.792477	    1.296559	    1.766842	    1.774777	    1.260548	    1.417716	    0.269322	    0.199130	    0.193027	    1.454032	    1.168383	    1.239490	    1.686275	    1.103990	    1.041733	    1.785153	    1.264820	    1.219043
    12.925	0	0	    0	    0.732280	    0.672160	    0.686503	    1.797055	    1.297780	    1.764096	    1.747005	    1.252918	    1.382315	    0.267491	    0.197299	    0.192721	    1.456779	    1.165026	    1.240711	    1.675593	    1.096056	    1.025559	    1.768368	    1.252613	    1.206836
    12.980	0	0	    0	    0.723735	    0.667277	    0.683146	    1.782101	    1.286488	    1.751278	    1.733272	    1.235828	    1.376822	    0.264439	    0.194247	    0.190280	    1.444572	    1.148852	    1.220569	    1.649958	    1.069200	    1.011826	    1.750668	    1.237049	    1.195239
    13.035	0	0	    0	    0.725261	    0.668803	    0.682841	    1.774472	    1.279469	    1.740902	    1.732357	    1.226978	    1.377737	    0.263523	    0.194553	    0.190280	    1.436637	    1.141833	    1.216297	    1.651789	    1.068589	    1.007553	    1.750057	    1.235523	    1.188830
    13.090	0	0	    0	    0.723430	    0.667277	    0.682536	    1.772030	    1.282521	    1.736324	    1.731136	    1.225452	    1.392996	    0.264744	    0.193637	    0.191501	    1.430228	    1.143359	    1.207446	    1.649653	    1.075303	    1.012741	    1.746090	    1.226673	    1.195239
    13.145	0	0	    0	    0.724346	    0.668803	    0.684062	    1.779049	    1.284352	    1.741817	    1.743343	    1.245899	    1.384756	    0.263828	    0.193942	    0.190280	    1.442435	    1.150683	    1.215686	    1.645686	    1.081712	    1.014572	    1.750973	    1.230945	    1.192493
    13.200	0	0	    0	    0.727398	    0.668193	    0.682536	    1.774472	    1.286488	    1.743038	    1.754330	    1.230945	    1.375601	    0.264439	    0.193942	    0.190890	    1.435416	    1.150072	    1.222705	    1.635615	    1.088731	    1.003281	    1.750057	    1.227588	    1.188220
    13.255	0	0	    0	    0.729839	    0.670939	    0.686503	    1.771725	    1.277638	    1.743954	    1.751278	    1.237354	    1.392081	    0.265660	    0.195468	    0.191196	    1.432975	    1.142748	    1.218738	    1.649653	    1.082628	    1.023728	    1.752193	    1.240711	    1.195850
    13.310	0	0	    0	    0.729534	    0.672770	    0.687114	    1.783932	    1.286488	    1.746395	    1.759823	    1.240406	    1.403067	    0.266880	    0.196078	    0.191196	    1.446403	    1.154955	    1.222400	    1.665217	    1.088731	    1.020371	    1.762875	    1.240406	    1.201953
    13.365	0	0	    0	    0.730449	    0.673381	    0.690166	    1.788510	    1.295644	    1.750973	    1.760433	    1.250477	    1.387503	    0.266270	    0.197299	    0.193332	    1.448234	    1.161975	    1.227283	    1.664912	    1.089036	    1.036545	    1.766537	    1.246204	    1.202869
    13.420	0	0	    0	    0.732280	    0.678264	    0.694743	    1.789731	    1.294423	    1.764401	    1.766842	    1.263294	    1.408255	    0.266270	    0.196689	    0.193332	    1.454032	    1.169299	    1.235828	    1.682307	    1.091173	    1.033188	    1.774777	    1.248035	    1.212940
    13.475	0	0	    0	    0.737774	    0.678569	    0.697185	    1.790341	    1.299916	    1.764401	    1.779355	    1.258412	    1.418326	    0.269322	    0.197604	    0.194553	    1.453422	    1.168078	    1.244678	    1.688411	    1.107042	    1.039902	    1.787289	    1.255360	    1.216907
    13.530	0	0	    0	    0.731365	    0.671244	    0.689860	    1.800412	    1.299916	    1.768673	    1.752193	    1.243763	    1.397574	    0.268406	    0.197604	    0.192416	    1.458610	    1.166247	    1.234302	    1.678340	    1.093004	    1.027695	    1.770504	    1.247425	    1.201038
    13.585	0	0	    0	    0.722210	    0.664225	    0.684367	    1.783017	    1.288319	    1.743954	    1.745174	    1.235218	    1.382315	    0.263523	    0.195163	    0.191806	    1.445487	    1.148547	    1.214466	    1.639277	    1.078965	    1.011215	    1.743954	    1.230335	    1.190967
    13.640	0	0	    0	    0.722820	    0.663310	    0.679789	    1.768673	    1.275502	    1.739376	    1.742123	    1.225147	    1.375601	    0.263218	    0.192721	    0.189975	    1.429007	    1.140612	    1.211109	    1.635615	    1.064622	    1.007858	    1.736629	    1.218128	    1.179370
    13.695	0	0	    0	    0.723125	    0.662394	    0.678569	    1.764096	    1.277028	    1.732662	    1.735103	    1.216602	    1.363394	    0.263523	    0.193942	    0.189364	    1.426261	    1.143969	    1.207752	    1.637140	    1.063096	    1.006027	    1.734798	    1.216602	    1.181201
    13.750	0	0	    0	    0.723430	    0.666056	    0.681010	    1.772335	    1.279774	    1.734188	    1.725032	    1.232471	    1.380484	    0.262303	    0.193637	    0.189670	    1.429313	    1.144274	    1.210803	    1.634394	    1.060044	    1.000534	    1.740291	    1.226062	    1.176623
    13.805	0	0	    0	    0.720684	    0.665446	    0.681315	    1.774166	    1.281605	    1.733883	    1.734188	    1.227588	    1.394827	    0.263523	    0.194858	    0.189670	    1.438163	    1.148547	    1.207141	    1.645380	    1.066453	    1.007553	    1.736324	    1.219654	    1.184253
    13.860	0	0	    0	    0.724956	    0.665751	    0.678264	    1.772641	    1.281605	    1.740291	    1.743343	    1.232471	    1.378347	    0.263218	    0.194858	    0.190585	    1.436942	    1.149157	    1.215686	    1.632868	    1.064317	    1.006943	    1.732052	    1.223621	    1.181506
    13.915	0	0	    0	    0.727398	    0.666972	    0.682841	    1.775387	    1.282826	    1.742123	    1.746090	    1.236133	    1.378958	    0.263828	    0.194247	    0.191501	    1.433585	    1.150988	    1.214771	    1.654536	    1.078965	    1.009079	    1.743343	    1.226978	    1.183032
    13.970	0	0	    0	    0.729839	    0.671244	    0.686503	    1.779965	    1.284657	    1.743954	    1.755245	    1.244373	    1.389334	    0.263828	    0.195163	    0.191806	    1.442130	    1.153429	    1.227588	    1.652094	    1.078660	    1.009995	    1.744869	    1.232166	    1.187304
    14.025	0	0	    0	    0.729534	    0.672465	    0.688945	    1.786069	    1.285878	    1.752499	    1.752193	    1.245289	    1.386282	    0.265965	    0.196078	    0.191501	    1.450675	    1.154650	    1.227283	    1.644465	    1.076829	    1.020371	    1.752499	    1.234607	    1.197070
    14.080	0	0	    0	    0.731975	    0.674296	    0.689555	    1.788510	    1.294423	    1.760128	    1.754025	    1.249561	    1.406424	    0.267491	    0.197299	    0.193027	    1.449454	    1.161669	    1.228809	    1.653620	    1.095140	    1.035019	    1.757992	    1.245594	    1.202564
    14.135	0	0	    0	    0.734417	    0.676127	    0.689555	    1.789425	    1.298085	    1.766537	    1.773861	    1.246204	    1.389334	    0.268101	    0.196994	    0.193332	    1.457389	    1.164416	    1.236133	    1.676509	    1.104601	    1.030442	    1.763485	    1.243153	    1.204395
    14.190	0	0	    0	    0.722210	    0.666056	    0.678264	    1.783932	    1.285878	    1.743038	    1.732052	    1.216907	    1.361257	    0.266270	    0.195468	    0.190280	    1.447623	    1.154345	    1.220264	    1.645991	    1.075914	    1.002365	    1.742123	    1.221485	    1.179065
    14.245	0	0	    0	    0.720989	    0.661784	    0.677348	    1.765927	    1.279469	    1.721981	    1.717403	    1.215381	    1.364309	    0.262913	    0.193942	    0.189364	    1.425956	    1.141833	    1.201343	    1.614557	    1.071641	    0.994736	    1.728389	    1.214771	    1.168383
    14.300	0	0	    0	    0.717327	    0.656291	    0.673686	    1.760128	    1.273060	    1.725643	    1.723201	    1.209583	    1.358511	    0.262303	    0.192721	    0.188449	    1.420768	    1.138781	    1.201953	    1.613031	    1.058824	    0.991684	    1.721675	    1.212329	    1.169909
    14.355	0	0	    0	    0.717632	    0.658122	    0.675822	    1.759518	    1.267567	    1.725948	    1.736019	    1.212024	    1.351492	    0.260166	    0.192721	    0.187839	    1.420768	    1.129625	    1.194324	    1.622492	    1.050889	    0.991989	    1.725338	    1.210193	    1.170520
    14.410	0	0	    0	    0.719463	    0.660563	    0.676127	    1.754940	    1.266651	    1.726253	    1.721981	    1.216907	    1.364614	    0.261997	    0.193027	    0.186923	    1.423514	    1.132372	    1.200122	    1.634699	    1.053941	    0.989548	    1.726558	    1.210498	    1.169299
    14.465	0	0	    0	    0.716411	    0.658732	    0.674296	    1.766232	    1.267567	    1.721065	    1.729915	    1.212329	    1.368887	    0.261997	    0.194247	    0.188449	    1.429923	    1.135424	    1.200122	    1.623102	    1.057603	    0.996567	    1.723812	    1.212329	    1.169909
    14.520	0	0	    0	    0.722515	    0.659953	    0.675212	    1.762570	    1.273060	    1.731136	    1.736019	    1.226673	    1.366140	    0.261387	    0.193027	    0.188754	    1.429923	    1.137865	    1.207446	    1.624018	    1.062791	    0.995346	    1.725643	    1.214466	    1.173571
    14.575	0	0	    0	    0.725261	    0.664836	    0.680095	    1.765316	    1.273060	    1.733272	    1.736324	    1.223926	    1.370718	    0.262608	    0.192721	    0.188754	    1.433585	    1.140917	    1.205921	    1.627985	    1.061875	    1.001144	    1.733272	    1.218128	    1.179980
    14.630	0	0	    0	    0.724956	    0.666361	    0.684672	    1.765011	    1.275807	    1.730831	    1.741817	    1.246204	    1.377737	    0.264439	    0.193942	    0.189670	    1.434501	    1.142443	    1.208057	    1.642939	    1.071641	    0.996262	    1.743648	    1.217212	    1.188220
    14.685	0	0	    0	    0.727092	    0.666972	    0.685283	    1.769894	    1.283436	    1.736629	    1.739376	    1.239796	    1.396353	    0.264439	    0.196078	    0.189670	    1.441215	    1.150072	    1.219654	    1.639887	    1.079271	    1.009079	    1.750057	    1.234913	    1.184863
    14.740	0	0	    0	    0.729534	    0.670024	    0.687114	    1.778134	    1.285878	    1.745785	    1.754025	    1.240406	    1.399710	    0.264439	    0.195468	    0.191501	    1.447013	    1.152209	    1.222400	    1.639582	    1.089342	    1.029526	    1.746395	    1.235218	    1.196155
    14.795	0	0	    0	    0.735027	    0.672770	    0.683452	    1.778439	    1.291371	    1.754940	    1.765316	    1.262989	    1.391775	    0.265049	    0.196384	    0.191806	    1.450065	    1.158312	    1.224537	    1.661860	    1.091173	    1.023117	    1.755856	    1.236744	    1.193103
    14.850	0	0	    0	    0.720073	    0.663920	    0.676432	    1.779660	    1.280690	    1.741817	    1.734493	    1.228504	    1.357900	    0.263523	    0.193332	    0.189975	    1.442741	    1.150072	    1.219654	    1.638972	    1.068894	    0.996262	    1.735714	    1.215381	    1.174182
    14.905	0	0	    0	    0.718242	    0.656901	    0.671550	    1.765316	    1.271229	    1.721065	    1.725643	    1.207141	    1.367971	    0.261997	    0.192111	    0.186313	    1.431449	    1.138476	    1.201038	    1.629816	    1.053941	    0.982834	    1.718318	    1.197681	    1.158923
    14.960	0	0	    0	    0.718242	    0.657206	    0.670634	    1.756466	    1.267567	    1.712825	    1.715572	    1.211719	    1.347524	    0.258946	    0.190280	    0.186923	    1.424125	    1.132067	    1.193103	    1.612116	    1.038987	    0.981308	    1.703670	    1.197986	    1.155871
    15.015	0	0	    0	    0.716106	    0.655070	    0.669718	    1.746395	    1.261463	    1.719844	    1.710689	    1.215076	    1.347524	    0.260166	    0.190585	    0.186313	    1.416190	    1.126574	    1.193713	    1.614862	    1.041428	    0.986801	    1.703059	    1.191577	    1.154650
    15.070	0	0	    0	    0.717021	    0.655375	    0.668193	    1.749752	    1.264515	    1.717098	    1.714961	    1.216907	    1.350576	    0.259861	    0.191806	    0.186007	    1.422293	    1.128099	    1.195239	    1.614252	    1.050889	    0.969100	    1.710689	    1.190661	    1.150072
    15.125	0	0	    0	    0.716106	    0.658732	    0.673991	    1.755856	    1.266346	    1.715572	    1.725338	    1.212940	    1.364004	    0.259861	    0.190890	    0.186007	    1.429313	    1.132372	    1.195850	    1.608453	    1.051194	    0.981918	    1.700313	    1.194629	    1.151293
    15.180	0	0	    0	    0.720684	    0.657511	    0.672465	    1.759213	    1.268788	    1.716182	    1.732357	    1.212024	    1.361257	    0.259556	    0.191501	    0.186923	    1.432059	    1.137560	    1.201343	    1.604791	    1.056687	    0.988632	    1.703365	    1.197986	    1.149462
    15.235	0	0	    0	    0.720073	    0.659648	    0.676127	    1.762264	    1.267567	    1.724422	    1.745785	    1.208362	    1.358206	    0.261387	    0.191501	    0.188754	    1.429007	    1.139086	    1.203174	    1.626764	    1.053025	    0.981613	    1.705196	    1.194629	    1.153429
    15.290	0	0	    0	    0.722820	    0.663920	    0.676432	    1.766537	    1.271839	    1.729915	    1.743954	    1.236439	    1.366140	    0.262303	    0.193332	    0.187839	    1.436637	    1.146715	    1.211719	    1.626459	    1.054246	    0.998398	    1.709773	    1.191272	    1.153124
    15.345	0	0	    0	    0.723430	    0.664836	    0.679484	    1.769284	    1.279164	    1.732052	    1.745480	    1.234913	    1.381094	    0.263218	    0.192721	    0.188754	    1.443656	    1.146410	    1.215381	    1.652705	    1.067979	    1.003281	    1.704891	    1.194324	    1.150378
    15.400	0	0	    0	    0.726482	    0.662699	    0.681621	    1.775692	    1.284047	    1.738460	    1.752499	    1.235218	    1.380789	    0.263523	    0.193332	    0.188754	    1.451896	    1.152514	    1.216907	    1.649042	    1.067674	    1.005722	    1.705501	    1.193408	    1.144579
    15.455	0	0	    0	    0.728313	    0.668803	    0.682841	    1.774472	    1.284352	    1.742428	    1.743038	    1.249561	    1.394522	    0.263523	    0.193942	    0.189059	    1.447623	    1.154650	    1.222400	    1.648737	    1.074083	    0.995041	    1.698482	    1.197070	    1.148547
    15.510	0	0	    0	    0.730144	    0.669108	    0.681010	    1.780880	    1.287098	    1.741207	    1.760433	    1.248951	    1.379263	    0.264439	    0.194247	    0.189364	    1.455253	    1.160754	    1.221180	    1.647822	    1.076829	    1.008774	    1.702449	    1.193103	    1.147936
    15.565	0	0	    0	    0.718242	    0.657816	    0.672770	    1.773556	    1.280995	    1.734188	    1.730831	    1.219348	    1.367666	    0.262913	    0.191196	    0.187839	    1.447013	    1.151598	    1.211109	    1.632258	    1.051804	    0.978866	    1.680781	    1.179980	    1.126268
    15.620	0	0	    0	    0.713359	    0.655070	    0.669413	    1.760433	    1.266957	    1.718013	    1.721981	    1.210498	    1.365225	    0.261082	    0.190280	    0.185702	    1.435416	    1.133288	    1.192493	    1.602655	    1.036545	    0.962692	    1.659113	    1.160143	    1.115282
    15.675	0	0	    0	    0.715496	    0.653544	    0.668498	    1.755856	    1.267872	    1.714351	    1.727169	    1.216602	    1.360952	    0.258335	    0.189364	    0.185092	    1.431754	    1.130846	    1.197070	    1.596551	    1.027390	    0.972763	    1.653620	    1.154040	    1.117723
    15.730	0	0	    0	    0.716716	    0.654154	    0.669413	    1.752193	    1.259937	    1.713130	    1.711910	    1.219348	    1.341421	    0.259556	    0.188449	    0.183871	    1.425956	    1.132982	    1.193103	    1.608759	    1.030137	    0.961776	    1.653315	    1.150072	    1.107652
    15.785	0	0	    0	    0.716411	    0.654154	    0.670939	    1.758297	    1.262379	    1.709468	    1.711604	    1.214160	    1.354849	    0.259556	    0.189364	    0.184176	    1.429923	    1.132677	    1.196155	    1.606317	    1.037156	    0.971237	    1.653315	    1.155871	    1.109483
    15.840	0	0	    0	    0.717327	    0.656901	    0.671855	    1.757076	    1.266651	    1.710079	    1.713741	    1.218128	    1.362783	    0.258946	    0.189059	    0.183871	    1.427787	    1.137255	    1.193408	    1.609064	    1.037156	    0.966964	    1.648127	    1.152209	    1.109483
    15.895	0	0	    0	    0.717632	    0.657511	    0.670634	    1.757687	    1.267872	    1.713436	    1.726864	    1.206226	    1.362478	    0.260166	    0.190280	    0.185397	    1.440604	    1.137865	    1.198596	    1.598383	    1.048753	    0.967880	    1.647211	    1.154040	    1.112535
    15.950	0	0	    0	    0.722515	    0.660258	    0.673686	    1.762875	    1.269093	    1.727169	    1.736019	    1.230945	    1.350576	    0.259556	    0.190280	    0.186007	    1.439689	    1.143053	    1.210193	    1.616693	    1.046006	    0.972152	    1.656977	    1.158312	    1.113146
    16.005	0	0	    0	    0.723735	    0.664530	    0.676738	    1.769894	    1.269703	    1.729915	    1.737850	    1.238270	    1.362783	    0.261082	    0.191806	    0.186923	    1.450980	    1.144884	    1.211109	    1.622492	    1.058213	    0.975509	    1.669795	    1.156786	    1.116197
    16.060	0	0	    0	    0.723735	    0.666972	    0.680095	    1.777523	    1.276112	    1.731746	    1.750362	    1.238880	    1.385367	    0.262303	    0.191501	    0.186618	    1.458915	    1.155871	    1.220264	    1.633783	    1.048447	    0.987411	    1.661250	    1.165026	    1.122911
    16.115	0	0	    0	    0.729839	    0.667277	    0.681010	    1.773861	    1.276722	    1.734493	    1.749142	    1.232776	    1.396963	    0.263523	    0.192111	    0.187533	    1.452201	    1.150683	    1.216602	    1.631647	    1.055467	    0.996262	    1.676204	    1.168078	    1.134508
    16.170	0	0	    0	    0.730755	    0.670024	    0.684367	    1.777523	    1.285878	    1.749752	    1.754940	    1.244678	    1.398489	    0.263828	    0.191501	    0.189059	    1.457389	    1.154650	    1.227283	    1.647822	    1.063096	    0.995346	    1.687800	    1.178149	    1.137560
    16.225	0	0	    0	    0.733196	    0.668803	    0.684062	    1.791257	    1.286488	    1.747311	    1.762875	    1.243153	    1.392691	    0.264744	    0.192721	    0.188754	    1.469902	    1.161975	    1.224842	    1.653925	    1.070726	    0.999008	    1.689937	    1.177234	    1.131762
    16.280	0	0	    0	    0.721904	    0.661173	    0.674296	    1.772335	    1.277943	    1.736934	    1.728389	    1.242237	    1.367971	    0.262608	    0.191501	    0.186313	    1.453422	    1.147021	    1.213245	    1.628595	    1.050278	    0.969711	    1.661250	    1.153735	    1.105211
    16.335	0	0	    0	    0.720378	    0.656596	    0.669413	    1.764096	    1.266651	    1.722591	    1.730831	    1.223621	    1.367056	    0.259251	    0.190280	    0.185397	    1.439689	    1.140917	    1.199207	    1.598993	    1.045090	    0.975204	    1.642939	    1.146105	    1.103990
    16.390	0	0	    0	    0.716716	    0.654459	    0.669413	    1.760128	    1.267872	    1.723507	    1.731136	    1.222400	    1.365835	    0.259251	    0.188449	    0.185397	    1.439078	    1.133898	    1.201648	    1.612421	    1.027695	    0.961776	    1.635920	    1.140307	    1.103685
    16.445	0	0	    0	    0.718547	    0.658122	    0.670634	    1.761959	    1.266346	    1.717403	    1.722896	    1.217823	    1.359426	    0.260472	    0.189670	    0.185397	    1.433280	    1.140002	    1.201953	    1.602045	    1.031662	    0.966659	    1.645686	    1.136645	    1.097887
    16.500	0	0	    0	    0.717632	    0.658122	    0.673381	    1.759823	    1.270314	    1.721981	    1.722896	    1.220264	    1.360952	    0.259861	    0.189670	    0.184482	    1.441215	    1.141833	    1.197681	    1.611200	    1.039292	    0.971542	    1.644770	    1.148852	    1.106126
    16.555	0	0	    0	    0.720684	    0.658732	    0.673381	    1.765316	    1.272755	    1.720150	    1.736934	    1.226978	    1.380789	    0.259861	    0.190280	    0.185397	    1.445487	    1.143359	    1.204395	    1.607233	    1.046616	    0.977646	    1.648737	    1.146105	    1.111620
    16.610	0	0	    0	    0.724041	    0.661479	    0.675822	    1.763790	    1.273060	    1.726253	    1.750668	    1.225757	    1.372854	    0.261387	    0.189364	    0.186313	    1.447013	    1.144884	    1.210803	    1.622187	    1.056992	    0.977646	    1.655451	    1.155871	    1.114672
    16.665	0	0	    0	    0.724346	    0.664836	    0.678264	    1.772030	    1.274891	    1.732052	    1.740597	    1.231556	    1.393301	    0.260777	    0.191501	    0.186007	    1.451286	    1.149157	    1.213550	    1.630732	    1.055161	    0.977646	    1.659419	    1.161669	    1.113146
    16.720	0	0	    0	    0.726482	    0.666972	    0.681926	    1.776608	    1.276417	    1.729000	    1.749752	    1.238575	    1.393301	    0.261692	    0.192721	    0.187839	    1.455863	    1.152209	    1.213855	    1.617914	    1.062791	    0.988937	    1.661555	    1.162585	    1.119860
    16.775	0	0	    0	    0.728923	    0.666361	    0.681315	    1.781491	    1.282826	    1.741817	    1.762570	    1.245594	    1.382620	    0.264134	    0.192416	    0.187228	    1.456474	    1.156481	    1.222095	    1.643244	    1.066453	    0.989853	    1.664912	    1.169909	    1.122301
    16.830	0	0	    0	    0.730144	    0.670634	    0.685588	    1.777829	    1.287709	    1.744564	    1.757382	    1.256886	    1.400626	    0.264439	    0.194247	    0.189059	    1.460746	    1.163195	    1.224231	    1.639582	    1.076524	    1.001755	    1.674372	    1.169909	    1.127489
    16.885	0	0	    0	    0.734417	    0.673991	    0.685588	    1.786984	    1.288624	    1.750362	    1.768368	    1.249256	    1.407340	    0.265049	    0.194247	    0.189364	    1.470817	    1.167468	    1.226368	    1.654841	    1.082628	    1.002060	    1.682918	    1.186694	    1.140002
    16.940	0	0	    0	    0.729229	    0.666972	    0.684672	    1.785763	    1.293812	    1.754635	    1.754330	    1.250172	    1.391775	    0.264744	    0.193942	    0.189059	    1.466850	    1.166552	    1.233387	    1.668879	    1.060044	    1.002060	    1.680476	    1.168688	    1.127794
    16.995	0	0	    0	    0.721904	    0.660258	    0.677653	    1.777829	    1.280385	    1.732662	    1.742428	    1.229419	    1.383841	    0.261387	    0.191806	    0.186007	    1.451896	    1.147021	    1.213550	    1.616999	    1.049973	    0.974289	    1.657282	    1.158312	    1.108873
    17.050	0	0	    0	    0.721599	    0.660563	    0.670024	    1.763485	    1.270619	    1.730220	    1.751278	    1.228199	    1.370718	    0.258640	    0.190890	    0.185397	    1.443656	    1.137560	    1.202869	    1.615778	    1.053025	    0.981308	    1.648127	    1.152819	    1.105516
    17.105	0	0	    0	    0.722515	    0.663310	    0.675822	    1.765316	    1.269703	    1.729305	    1.738766	    1.223621	    1.381704	    0.261082	    0.190280	    0.185702	    1.441520	    1.140612	    1.210193	    1.614252	    1.045396	    0.980392	    1.639887	    1.149767	    1.104906
    17.160	0	0	    0	    0.721599	    0.662699	    0.675517	    1.769284	    1.273365	    1.727169	    1.722896	    1.239185	    1.374380	    0.261997	    0.189670	    0.186313	    1.443961	    1.139086	    1.205005	    1.616083	    1.037461	    0.983749	    1.647822	    1.153124	    1.108873
    17.215	0	0	    0	    0.721599	    0.662699	    0.675822	    1.772030	    1.276417	    1.723507	    1.738460	    1.226978	    1.370108	    0.261387	    0.191806	    0.185702	    1.450370	    1.150683	    1.206226	    1.616388	    1.049363	    0.974899	    1.655146	    1.157092	    1.110094
    17.270	0	0	    0	    0.725261	    0.664225	    0.680400	    1.763485	    1.277943	    1.730220	    1.749142	    1.230335	    1.382315	    0.261082	    0.190890	    0.187839	    1.443351	    1.150378	    1.215991	    1.607233	    1.047837	    0.978561	    1.654841	    1.156786	    1.116197
    17.325	0	0	    0	    0.727092	    0.663005	    0.681621	    1.771115	    1.278248	    1.740597	    1.762264	    1.241932	    1.387503	    0.262608	    0.192111	    0.187533	    1.452811	    1.152209	    1.216297	    1.631037	    1.044785	    0.992294	    1.660029	    1.159838	    1.114366
    17.380	0	0	    0	    0.730755	    0.666972	    0.681926	    1.777523	    1.281605	    1.739681	    1.767453	    1.252613	    1.382925	    0.263523	    0.192416	    0.188449	    1.459831	    1.154650	    1.226368	    1.632868	    1.063401	    0.997787	    1.671321	    1.170214	    1.128405
    17.435	0	0	    0	    0.730449	    0.666972	    0.684977	    1.783322	    1.282826	    1.745785	    1.765011	    1.254749	    1.402457	    0.263828	    0.193332	    0.188144	    1.468070	    1.155566	    1.221790	    1.640497	    1.073777	    1.009384	    1.679255	    1.175097	    1.130846
    17.490	0	0	    0	    0.731975	    0.674296	    0.687114	    1.780270	    1.291371	    1.752804	    1.768978	    1.256275	    1.404898	    0.264744	    0.194858	    0.191501	    1.463798	    1.168078	    1.229114	    1.647822	    1.069200	    1.009384	    1.689631	    1.186999	    1.143053
    17.545	0	0	    0	    0.737469	    0.673686	    0.690166	    1.791562	    1.292897	    1.756466	    1.779965	    1.241016	    1.407340	    0.265660	    0.193942	    0.191196	    1.466850	    1.167163	    1.240406	    1.658198	    1.080491	    1.017319	    1.690547	    1.187304	    1.152819
    17.600	0	0	    0	    0.735637	    0.675517	    0.690776	    1.801022	    1.295338	    1.761349	    1.772946	    1.257191	    1.416190	    0.267185	    0.193942	    0.190890	    1.478141	    1.168994	    1.236133	    1.661860	    1.082322	    1.018540	    1.702144	    1.189136	    1.146105
    17.655	0	0	    0	    0.727398	    0.668498	    0.681621	    1.794003	    1.291981	    1.745174	    1.753109	    1.244373	    1.396353	    0.265354	    0.195163	    0.189670	    1.467460	    1.160754	    1.224537	    1.637751	    1.070420	    0.999924	    1.677119	    1.175402	    1.128710
    17.710	0	0	    0	    0.721599	    0.661479	    0.676127	    1.770809	    1.279164	    1.735409	    1.729000	    1.231250	    1.372549	    0.262303	    0.191501	    0.186618	    1.443046	    1.149767	    1.211719	    1.633173	    1.049058	    0.981003	    1.665827	    1.161669	    1.118944
    17.765	0	0	    0	    0.722515	    0.660868	    0.673991	    1.767758	    1.277333	    1.734493	    1.744869	    1.226978	    1.370413	    0.261692	    0.191501	    0.186313	    1.441215	    1.145800	    1.209277	    1.614862	    1.052110	    0.983749	    1.662776	    1.161059	    1.119249
    17.820	0	0	    0	    0.722820	    0.662699	    0.677958	    1.766842	    1.271839	    1.729610	    1.732967	    1.229725	    1.375296	    0.261387	    0.191501	    0.187533	    1.444572	    1.139086	    1.209277	    1.618524	    1.043565	    0.984970	    1.665522	    1.156481	    1.115587
    17.875	0	0	    0	    0.721904	    0.663005	    0.678569	    1.773861	    1.274281	    1.727474	    1.729305	    1.230335	    1.385061	    0.261997	    0.191501	    0.186923	    1.441215	    1.144884	    1.202258	    1.618219	    1.052110	    0.991684	    1.660334	    1.161059	    1.120470
    17.930	0	0	    0	    0.723735	    0.662699	    0.677043	    1.767147	    1.277638	    1.733577	    1.728695	    1.230030	    1.383536	    0.262913	    0.193027	    0.188754	    1.445487	    1.148547	    1.210498	    1.620356	    1.043259	    0.971237	    1.657588	    1.160754	    1.118944
    17.985	0	0	    0	    0.726482	    0.663920	    0.677043	    1.772030	    1.280385	    1.729305	    1.748836	    1.232776	    1.378653	    0.263523	    0.191806	    0.187533	    1.447929	    1.153124	    1.215686	    1.624018	    1.055772	    0.988632	    1.667659	    1.166552	    1.122911
    18.040	0	0	    0	    0.731060	    0.666056	    0.682231	    1.768673	    1.275807	    1.741207	    1.761654	    1.251087	    1.389944	    0.264744	    0.192111	    0.188754	    1.453117	    1.150378	    1.216907	    1.642634	    1.066453	    0.984360	    1.679866	    1.167773	    1.124743
    18.095	0	0	    0	    0.728008	    0.670634	    0.684672	    1.779049	    1.283131	    1.743954	    1.752804	    1.249561	    1.404593	    0.265354	    0.194247	    0.189364	    1.456779	    1.159838	    1.226368	    1.647211	    1.073472	    1.001450	    1.685054	    1.177844	    1.133288
    18.150	0	0	    0	    0.733196	    0.669413	    0.689860	    1.780575	    1.286183	    1.748531	    1.760128	    1.249256	    1.411612	    0.264134	    0.193942	    0.189364	    1.454337	    1.161975	    1.226978	    1.636835	    1.070115	    1.009384	    1.682918	    1.181811	    1.140307
    18.205	0	0	    0	    0.734722	    0.673991	    0.690776	    1.782101	    1.285878	    1.753414	    1.778744	    1.265736	    1.415579	    0.266575	    0.196078	    0.190890	    1.460136	    1.162280	    1.230335	    1.645991	    1.079881	    1.012131	    1.693599	    1.185168	    1.146715
    18.260	0	0	    0	    0.733501	    0.677043	    0.695048	    1.793393	    1.296864	    1.763180	    1.784848	    1.275196	    1.414359	    0.266880	    0.196078	    0.191501	    1.467460	    1.169909	    1.238880	    1.665827	    1.088731	    1.018845	    1.705806	    1.191272	    1.155261
    18.315	0	0	    0	    0.735332	    0.680095	    0.695354	    1.799191	    1.300221	    1.769589	    1.772030	    1.275196	    1.413138	    0.268711	    0.197299	    0.192111	    1.476310	    1.175402	    1.244678	    1.664912	    1.092699	    1.035630	    1.711604	    1.203174	    1.158312
    18.370	0	0	    0	    0.731060	    0.672160	    0.686809	    1.797055	    1.295033	    1.757992	    1.758907	    1.255055	    1.401541	    0.266575	    0.196078	    0.190280	    1.472648	    1.166857	    1.233082	    1.645991	    1.079881	    1.007858	    1.687800	    1.178759	    1.145495
    18.425	0	0	    0	    0.726177	    0.663005	    0.678264	    1.776913	    1.284657	    1.739071	    1.754635	    1.229419	    1.384756	    0.263523	    0.192721	    0.187839	    1.448844	    1.152209	    1.212634	    1.629511	    1.058824	    0.996567	    1.674067	    1.168078	    1.128405
    18.480	0	0	    0	    0.723735	    0.665141	    0.679179	    1.765011	    1.274891	    1.733577	    1.733272	    1.226368	    1.384756	    0.263523	    0.191806	    0.188754	    1.437858	    1.143664	    1.209583	    1.633783	    1.042344	    0.975814	    1.669184	    1.162585	    1.117113
    18.535	0	0	    0	    0.721294	    0.661784	    0.676432	    1.764706	    1.272450	    1.728389	    1.732967	    1.232776	    1.385977	    0.261387	    0.191806	    0.187533	    1.437858	    1.142138	    1.207141	    1.602045	    1.044175	    0.980697	    1.656977	    1.158007	    1.112535
    18.590	0	0	    0	    0.724346	    0.663310	    0.678874	    1.765621	    1.274281	    1.729915	    1.738155	    1.233692	    1.374990	    0.261997	    0.191806	    0.187839	    1.438163	    1.147326	    1.208362	    1.595941	    1.043565	    0.984970	    1.653925	    1.164111	    1.117723
    18.645	0	0	    0	    0.723430	    0.662394	    0.677043	    1.767147	    1.275807	    1.735409	    1.752499	    1.232166	    1.383536	    0.261997	    0.192416	    0.186923	    1.442130	    1.146410	    1.213550	    1.622492	    1.044785	    0.990768	    1.658808	    1.157397	    1.112840
    18.700	0	0	    0	    0.727398	    0.666361	    0.680705	    1.771725	    1.276722	    1.735103	    1.742428	    1.237354	    1.379263	    0.264134	    0.191806	    0.187839	    1.445792	    1.149767	    1.220264	    1.621271	    1.041123	    0.988937	    1.666438	    1.155566	    1.115282
    18.755	0	0	    0	    0.726787	    0.668498	    0.681010	    1.777523	    1.280995	    1.732662	    1.751888	    1.255055	    1.395743	    0.264134	    0.194553	    0.189670	    1.452201	    1.157397	    1.217212	    1.617914	    1.062791	    0.984054	    1.667659	    1.168688	    1.119860
    18.810	0	0	    0	    0.728618	    0.668193	    0.686809	    1.783932	    1.288624	    1.743648	    1.758907	    1.246204	    1.413443	    0.263523	    0.193942	    0.189364	    1.466545	    1.157397	    1.226062	    1.631647	    1.070420	    1.003586	    1.667964	    1.168994	    1.126574
    18.865	0	0	    0	    0.731975	    0.673991	    0.690166	    1.779660	    1.289845	    1.744869	    1.762875	    1.252003	    1.407340	    0.264744	    0.194247	    0.190585	    1.460441	    1.167163	    1.232166	    1.643854	    1.074388	    1.002976	    1.678645	    1.169909	    1.129625
    18.920	0	0	    0	    0.738079	    0.676432	    0.691691	    1.787900	    1.290761	    1.757076	    1.782406	    1.269703	    1.412528	    0.266270	    0.194247	    0.190890	    1.464103	    1.172351	    1.241321	    1.652705	    1.073472	    1.004807	    1.684749	    1.180896	    1.134813
    18.975	0	0	    0	    0.735943	    0.678264	    0.691386	    1.794919	    1.292287	    1.759213	    1.787289	    1.266651	    1.421378	    0.267491	    0.195163	    0.191501	    1.476310	    1.170520	    1.238575	    1.649042	    1.083238	    1.020676	    1.684443	    1.184863	    1.141833
    19.030	0	0	    0	    0.736248	    0.678569	    0.698711	    1.795224	    1.300221	    1.766842	    1.778439	    1.279164	    1.443656	    0.266880	    0.197299	    0.192721	    1.468986	    1.173571	    1.244068	    1.663691	    1.094224	    1.028305	    1.693904	    1.189441	    1.146715
    19.085	0	0	    0	    0.735027	    0.677043	    0.689860	    1.801328	    1.299001	    1.772030	    1.773861	    1.266346	    1.402762	    0.265660	    0.196078	    0.191501	    1.473259	    1.178759	    1.245899	    1.643244	    1.073472	    1.012131	    1.667353	    1.178454	    1.130236
    19.140	0	0	    0	    0.730449	    0.667277	    0.681010	    1.777829	    1.287404	    1.749752	    1.752193	    1.238880	    1.383230	    0.263523	    0.193332	    0.188449	    1.451591	    1.160449	    1.224842	    1.620356	    1.048753	    0.982223	    1.655756	    1.148852	    1.117113
    19.195	0	0	    0	    0.725566	    0.663920	    0.680705	    1.775998	    1.279164	    1.731441	    1.739071	    1.244068	    1.391165	    0.263523	    0.193027	    0.188144	    1.448234	    1.149767	    1.211109	    1.608759	    1.051804	    0.990158	    1.653620	    1.159533	    1.110094
    19.250	0	0	    0	    0.724956	    0.664836	    0.679179	    1.771725	    1.279469	    1.730831	    1.732662	    1.242542	    1.384756	    0.262303	    0.191196	    0.187228	    1.439078	    1.149462	    1.210498	    1.606928	    1.046006	    0.979477	    1.646906	    1.152514	    1.108263
    19.305	0	0	    0	    0.726482	    0.665446	    0.679179	    1.770809	    1.281605	    1.736629	    1.752804	    1.233997	    1.385061	    0.261387	    0.193332	    0.187533	    1.444877	    1.146410	    1.215076	    1.602350	    1.046006	    0.973068	    1.645380	    1.156481	    1.106126
    19.360	0	0	    0	    0.727398	    0.667582	    0.678569	    1.765927	    1.279469	    1.741817	    1.745174	    1.240711	    1.380179	    0.261082	    0.191806	    0.187228	    1.445182	    1.156481	    1.219043	    1.615473	    1.038987	    0.990768	    1.645380	    1.156481	    1.113756
    19.415	0	0	    0	    0.723430	    0.667277	    0.684062	    1.776913	    1.279164	    1.741207	    1.739376	    1.244984	    1.386587	    0.262608	    0.193027	    0.188449	    1.450065	    1.153735	    1.218738	    1.600519	    1.046921	    0.983749	    1.650874	    1.159228	    1.111009
    19.470	0	0	    0	    0.728313	    0.670329	    0.685588	    1.778439	    1.281605	    1.741512	    1.755245	    1.244984	    1.396963	    0.263218	    0.192111	    0.188754	    1.451896	    1.158312	    1.222400	    1.611810	    1.058518	    0.999619	    1.646601	    1.154040	    1.118029
    19.525	0	0	    0	    0.733196	    0.672465	    0.686503	    1.776608	    1.291371	    1.746090	    1.763485	    1.244068	    1.403983	    0.263523	    0.193942	    0.189059	    1.454948	    1.168688	    1.225147	    1.612726	    1.046921	    1.000229	    1.656672	    1.164721	    1.126574
    19.580	0	0	    0	    0.735027	    0.673075	    0.687724	    1.784543	    1.290150	    1.758297	    1.771115	    1.255055	    1.424430	    0.265354	    0.194858	    0.190280	    1.462882	    1.174487	    1.236133	    1.640803	    1.059434	    1.010300	    1.672236	    1.167163	    1.129015
    19.635	0	0	    0	    0.736858	    0.675517	    0.693828	    1.794308	    1.297475	    1.760739	    1.783322	    1.261769	    1.414664	    0.266270	    0.195773	    0.189975	    1.468681	    1.173571	    1.242847	    1.644160	    1.076219	    1.007553	    1.677729	    1.177844	    1.134203
    19.690	0	0	    0	    0.738994	    0.679789	    0.696269	    1.801328	    1.298695	    1.768673	    1.780270	    1.275502	    1.418936	    0.265660	    0.196689	    0.192111	    1.474479	    1.171435	    1.250477	    1.646906	    1.073472	    1.018540	    1.687495	    1.187304	    1.148241
    19.745	0	0	    0	    0.742351	    0.679484	    0.696880	    1.804074	    1.303883	    1.775387	    1.799802	    1.282826	    1.442130	    0.267796	    0.197299	    0.193332	    1.479362	    1.183032	    1.256580	    1.669184	    1.086595	    1.031662	    1.701839	    1.195544	    1.154345
    19.800	0	0	    0	    0.735943	    0.677958	    0.688334	    1.804685	    1.305715	    1.777218	    1.767453	    1.257191	    1.403372	    0.268406	    0.197604	    0.191806	    1.478752	    1.180591	    1.252613	    1.644160	    1.078965	    1.009384	    1.685359	    1.178149	    1.137255
    19.855	0	0	    0	    0.728923	    0.670024	    0.683757	    1.789425	    1.290150	    1.752193	    1.748531	    1.261158	    1.399100	    0.264744	    0.194553	    0.189975	    1.459220	    1.164721	    1.229114	    1.623407	    1.046616	    0.989853	    1.663996	    1.164721	    1.125353
    19.910	0	0	    0	    0.726177	    0.669413	    0.684672	    1.777829	    1.286488	    1.747005	    1.747616	    1.257191	    1.395743	    0.264439	    0.194553	    0.189975	    1.452811	    1.155261	    1.221790	    1.606622	    1.053330	    0.985885	    1.658808	    1.158923	    1.118029
    19.965	0	0	    0	    0.729839	    0.665751	    0.682841	    1.779355	    1.285878	    1.743038	    1.750668	    1.239185	    1.401846	    0.263828	    0.193332	    0.188754	    1.452811	    1.158923	    1.219043	    1.603876	    1.048447	    0.991684	    1.659113	    1.163806	    1.121691
    20.020	0	0	    0	    0.729229	    0.668498	    0.685283	    1.778134	    1.285573	    1.736324	    1.754330	    1.238880	    1.387198	    0.263218	    0.193027	    0.189364	    1.452811	    1.159228	    1.221790	    1.621576	    1.058518	    0.995041	    1.658808	    1.159838	    1.117723
    20.075	0	0	    0	    0.728618	    0.667582	    0.684672	    1.782101	    1.286183	    1.748226	    1.755856	    1.255360	    1.407645	    0.264134	    0.194553	    0.189364	    1.454032	    1.157092	    1.230945	    1.616388	    1.057603	    0.983749	    1.665827	    1.159533	    1.118944
    20.130	0	0	    0	    0.728923	    0.668498	    0.685893	    1.783322	    1.280385	    1.747311	    1.751583	    1.259022	    1.410391	    0.264744	    0.194247	    0.189364	    1.457084	    1.160754	    1.227588	    1.623102	    1.067674	    0.999619	    1.664302	    1.165026	    1.123522
    20.185	0	0	    0	    0.729229	    0.670634	    0.690166	    1.787289	    1.291676	    1.751278	    1.750362	    1.254139	    1.405509	    0.265660	    0.194553	    0.189364	    1.463493	    1.167468	    1.234607	    1.626154	    1.055161	    0.998703	    1.662165	    1.171130	    1.126574
    20.240	0	0	    0	    0.731365	    0.673991	    0.691997	    1.790646	    1.294728	    1.760433	    1.766842	    1.256580	    1.420157	    0.265660	    0.194858	    0.191501	    1.466545	    1.176623	    1.242847	    1.633173	    1.071336	    1.007553	    1.675593	    1.178149	    1.133288
    20.295	0	0	    0	    0.737469	    0.675517	    0.693523	    1.789120	    1.296254	    1.758907	    1.779049	    1.274891	    1.419547	    0.266880	    0.197299	    0.191196	    1.466239	    1.175402	    1.249256	    1.640803	    1.076524	    1.017014	    1.689021	    1.181506	    1.138476
    20.350	0	0	    0	    0.739605	    0.680095	    0.697490	    1.794614	    1.300832	    1.768673	    1.786069	    1.280995	    1.432975	    0.268406	    0.196078	    0.193332	    1.473259	    1.181811	    1.254749	    1.653620	    1.091173	    1.020066	    1.689937	    1.191272	    1.146410
    20.405	0	0	    0	    0.740826	    0.677958	    0.698405	    1.807736	    1.308156	    1.774472	    1.783322	    1.284047	    1.424125	    0.268101	    0.198825	    0.192721	    1.483940	    1.189746	    1.260243	    1.661555	    1.092393	    1.031357	    1.700618	    1.194629	    1.152819
    20.460	0	0	    0	    0.735637	    0.673381	    0.688945	    1.798886	    1.302663	    1.770199	    1.780270	    1.254749	    1.418631	    0.265965	    0.196689	    0.191806	    1.477226	    1.179675	    1.248035	    1.640803	    1.074388	    1.000839	    1.676509	    1.179980	    1.130541
    20.515	0	0	    0	    0.729839	    0.670024	    0.684672	    1.785458	    1.289845	    1.754940	    1.751278	    1.253529	    1.394522	    0.264439	    0.193332	    0.190280	    1.457389	    1.165332	    1.233387	    1.605402	    1.062486	    0.977951	    1.667659	    1.165637	    1.127794
    20.570	0	0	    0	    0.728618	    0.668803	    0.679484	    1.784848	    1.284962	    1.739986	    1.755856	    1.260853	    1.399405	    0.264439	    0.195163	    0.189670	    1.456779	    1.163195	    1.227283	    1.619440	    1.056077	    0.988937	    1.657588	    1.163500	    1.120470
    20.625	0	0	    0	    0.729229	    0.668498	    0.686503	    1.782712	    1.286793	    1.743648	    1.755550	    1.253529	    1.408865	    0.264134	    0.193027	    0.190280	    1.453727	    1.162280	    1.228504	    1.601434	    1.056077	    0.992294	    1.666133	    1.162280	    1.121080
    20.680	0	0	    0	    0.729229	    0.669413	    0.683757	    1.775082	    1.289540	    1.750362	    1.761349	    1.244984	    1.401236	    0.263523	    0.193332	    0.190280	    1.450065	    1.166857	    1.235523	    1.619440	    1.063401	    1.002670	    1.662776	    1.162890	    1.124437
    20.735	0	0	    0	    0.730755	    0.670024	    0.683452	    1.773251	    1.283131	    1.752499	    1.755856	    1.251698	    1.400626	    0.265354	    0.194553	    0.189975	    1.456474	    1.167468	    1.236744	    1.623407	    1.058518	    0.988937	    1.663386	    1.163500	    1.121691
    20.790	0	0	    0	    0.731670	    0.669108	    0.686809	    1.777829	    1.284047	    1.752499	    1.754025	    1.267567	    1.416495	    0.265354	    0.195163	    0.190280	    1.458610	    1.169604	    1.238270	    1.624933	    1.075608	    0.997787	    1.668269	    1.168688	    1.126574
    20.845	0	0	    0	    0.732891	    0.674601	    0.690776	    1.791867	    1.289235	    1.755856	    1.768978	    1.270619	    1.417716	    0.265965	    0.195773	    0.191501	    1.466239	    1.169909	    1.240101	    1.642329	    1.081407	    0.998093	    1.676204	    1.179980	    1.131456
    20.900	0	0	    0	    0.735943	    0.676127	    0.692302	    1.793698	    1.296559	    1.761654	    1.790951	    1.259022	    1.426261	    0.265965	    0.196689	    0.193637	    1.476005	    1.182422	    1.252003	    1.638056	    1.071641	    1.023423	    1.689021	    1.185473	    1.137865
    20.955	0	0	    0	    0.738994	    0.677653	    0.691081	    1.790036	    1.294728	    1.766232	    1.781796	    1.276722	    1.435111	    0.267491	    0.196994	    0.192416	    1.472953	    1.182116	    1.251087	    1.637446	    1.088121	    1.019455	    1.687190	    1.184558	    1.146410
    21.010	0	0	    0	    0.740215	    0.682841	    0.695048	    1.801328	    1.302052	    1.769284	    1.782712	    1.281910	    1.441520	    0.268101	    0.198825	    0.193332	    1.479362	    1.186694	    1.255970	    1.663081	    1.088121	    1.028305	    1.701839	    1.197681	    1.154040
    21.065	0	0	    0	    0.732891	    0.674907	    0.689250	    1.804379	    1.305104	    1.771115	    1.768063	    1.266346	    1.420768	    0.268406	    0.197299	    0.193942	    1.482719	    1.185168	    1.254139	    1.645380	    1.084764	    1.021897	    1.690242	    1.184863	    1.143664
    21.120	0	0	    0	    0.728923	    0.668193	    0.681010	    1.785458	    1.290150	    1.754635	    1.759823	    1.245899	    1.400015	    0.264744	    0.195163	    0.190280	    1.457389	    1.169604	    1.234913	    1.619135	    1.062791	    0.998398	    1.661860	    1.171740	    1.124132
    21.175	0	0	    0	    0.728313	    0.666361	    0.680095	    1.776913	    1.279774	    1.737545	    1.744869	    1.235523	    1.392386	    0.263523	    0.193942	    0.189364	    1.451286	    1.154650	    1.223926	    1.612421	    1.045090	    0.981003	    1.650568	    1.156786	    1.112840
    21.230	0	0	    0	    0.725261	    0.668803	    0.682231	    1.776303	    1.276722	    1.741207	    1.749142	    1.241321	    1.395132	    0.263523	    0.193637	    0.188144	    1.449149	    1.156481	    1.227588	    1.596857	    1.041123	    0.986801	    1.645380	    1.151293	    1.108568
    21.285	0	0	    0	    0.725261	    0.667277	    0.681010	    1.776303	    1.276722	    1.739071	    1.747616	    1.245289	    1.397574	    0.262303	    0.193027	    0.188449	    1.453422	    1.156786	    1.227283	    1.611505	    1.052110	    0.985580	    1.649348	    1.155566	    1.107042
    21.340	0	0	    0	    0.727398	    0.666972	    0.681010	    1.776913	    1.283742	    1.741817	    1.758602	    1.242847	    1.401541	    0.263523	    0.192721	    0.188449	    1.454948	    1.160449	    1.232776	    1.589837	    1.056992	    0.988632	    1.648432	    1.154955	    1.119249
    21.395	0	0	    0	    0.729839	    0.669718	    0.684367	    1.778439	    1.283436	    1.739071	    1.747616	    1.239796	    1.394827	    0.264134	    0.193637	    0.189975	    1.458915	    1.165942	    1.230945	    1.609979	    1.051804	    0.997787	    1.651179	    1.158923	    1.120775
    21.450	0	0	    0	    0.728313	    0.668803	    0.686198	    1.774166	    1.282216	    1.739071	    1.750057	    1.259937	    1.402457	    0.265354	    0.194858	    0.190585	    1.458000	    1.170214	    1.232471	    1.627070	    1.056992	    0.989853	    1.659419	    1.170520	    1.123217
    21.505	0	0	    0	    0.731670	    0.672465	    0.689860	    1.788510	    1.288624	    1.746700	    1.753414	    1.268788	    1.408560	    0.266270	    0.195163	    0.189975	    1.468070	    1.175708	    1.241321	    1.627985	    1.072251	    1.003586	    1.664607	    1.172351	    1.125963
    21.560	0	0	    0	    0.734417	    0.675517	    0.690776	    1.790951	    1.291066	    1.757992	    1.765621	    1.250477	    1.409171	    0.266880	    0.197299	    0.193027	    1.465019	    1.179370	    1.248646	    1.627985	    1.072251	    1.011215	    1.671321	    1.179675	    1.139086
    21.615	0	0	    0	    0.736248	    0.673381	    0.693217	    1.790951	    1.290761	    1.760739	    1.779355	    1.260853	    1.421378	    0.268101	    0.196994	    0.192721	    1.475395	    1.181201	    1.254749	    1.645075	    1.070420	    1.011826	    1.671931	    1.172656	    1.132677
    21.670	0	0	    0	    0.735943	    0.677653	    0.696269	    1.795529	    1.298695	    1.768368	    1.772335	    1.269703	    1.435111	    0.268101	    0.197604	    0.191806	    1.482414	    1.186389	    1.258106	    1.648737	    1.082322	    1.020676	    1.674372	    1.183032	    1.137255
    21.725	0	0	    0	    0.732891	    0.673075	    0.685588	    1.797360	    1.297169	    1.762570	    1.764401	    1.255970	    1.394217	    0.266880	    0.196994	    0.191501	    1.479362	    1.183948	    1.253223	    1.621881	    1.060655	    1.001144	    1.667353	    1.167163	    1.123827
    21.780	0	0	    0	    0.726177	    0.664530	    0.680400	    1.777829	    1.282216	    1.731441	    1.732662	    1.238575	    1.387503	    0.263523	    0.193637	    0.189364	    1.455863	    1.165026	    1.225757	    1.607233	    1.037156	    0.989853	    1.642939	    1.147631	    1.107958
    21.835	0	0	    0	    0.722515	    0.660563	    0.675517	    1.763485	    1.280385	    1.734188	    1.742733	    1.234913	    1.386893	    0.261997	    0.192721	    0.187533	    1.447929	    1.161975	    1.231556	    1.580072	    1.041733	    0.974594	    1.635004	    1.144579	    1.102770
    21.890	0	0	    0	    0.721904	    0.660563	    0.674296	    1.760433	    1.270314	    1.723812	    1.726864	    1.230640	    1.375906	    0.262608	    0.191501	    0.186923	    1.435721	    1.158923	    1.219959	    1.584955	    1.037461	    0.970932	    1.636835	    1.142138	    1.099107
    21.945	0	0	    0	    0.723125	    0.663005	    0.676432	    1.768368	    1.270314	    1.720150	    1.743343	    1.217517	    1.382620	    0.261692	    0.192721	    0.186923	    1.445182	    1.155261	    1.219959	    1.581598	    1.046921	    0.971847	    1.628595	    1.139391	    1.093919
    22.000	0	0	    0	    0.726482	    0.662089	    0.674907	    1.771115	    1.272755	    1.728695	    1.740291	    1.233387	    1.383536	    0.261692	    0.193637	    0.187839	    1.451286	    1.156481	    1.223316	    1.588922	    1.044175	    0.987106	    1.631037	    1.142138	    1.099413
    22.055	0	0	    0	    0.726787	    0.662394	    0.678264	    1.768063	    1.271839	    1.729915	    1.736324	    1.241016	    1.386587	    0.263218	    0.192416	    0.188754	    1.456779	    1.160143	    1.230030	    1.593805	    1.050584	    0.979782	    1.631342	    1.147631	    1.106737
    22.110	0	0	    0	    0.728923	    0.667887	    0.677653	    1.768063	    1.271839	    1.733577	    1.755245	    1.242237	    1.390860	    0.263523	    0.194247	    0.190280	    1.460136	    1.162585	    1.240711	    1.616999	    1.049058	    0.985885	    1.639887	    1.150378	    1.111620
