
0   5   7	
   0.0000000e+00	  -3.2183084e-01	   5.1653915e-02	
   5.5000000e-02	  -3.4491580e-01	   4.4209162e-02	
   1.1000000e-01	  -3.6684340e-01	   3.8247542e-02	
   1.6500000e-01	  -3.8727852e-01	   3.3806215e-02	
   2.2000000e-01	  -4.0591205e-01	   3.0903936e-02	
   2.7500000e-01	  -4.2247117e-01	   2.9541456e-02	
   3.3000000e-01	  -4.3673270e-01	   2.9698866e-02	
   3.8500000e-01	  -4.4853675e-01	   3.1331523e-02	
   4.4000000e-01	  -4.5779660e-01	   3.4366493e-02	
   4.9500000e-01	  -4.6450138e-01	   3.8700966e-02	
   5.5000000e-01	  -4.6871109e-01	   4.4203656e-02	
   6.0500000e-01	  -4.7054558e-01	   5.0719856e-02	
   6.6000000e-01	  -4.7016976e-01	   5.8079964e-02	
   7.1500000e-01	  -4.6777710e-01	   6.6109801e-02	
   7.7000000e-01	  -4.6357440e-01	   7.4640364e-02	
   8.2500000e-01	  -4.5776957e-01	   8.3515431e-02	
   8.8000000e-01	  -4.5056385e-01	   9.2596505e-02	
   9.3500000e-01	  -4.4214858e-01	   1.0176480e-01	
   9.9000000e-01	  -4.3270609e-01	   1.1092021e-01	
   1.0450000e+00	  -4.2241263e-01	   1.1997820e-01	
   1.1000000e+00	  -4.1144140e-01	   1.2886621e-01	
   1.1550000e+00	  -3.9996404e-01	   1.3752042e-01	
   1.2100000e+00	  -3.8814979e-01	   1.4588358e-01	
   1.2650000e+00	  -3.7616113e-01	   1.5390476e-01	
   1.3200000e+00	  -3.6414576e-01	   1.6154175e-01	
   1.3750000e+00	  -3.5222654e-01	   1.6876520e-01	
   1.4300000e+00	  -3.4049318e-01	   1.7556278e-01	
   1.4850000e+00	  -3.2899829e-01	   1.8194197e-01	
   1.5400000e+00	  -3.1775861e-01	   1.8793110e-01	
   1.5950000e+00	  -3.0676158e-01	   1.9357776e-01	
   1.6500000e+00	  -2.9597673e-01	   1.9894407e-01	
   1.7050000e+00	  -2.8536979e-01	   2.0409960e-01	
   1.7600000e+00	  -2.7491626e-01	   2.0911309e-01	
   1.8150000e+00	  -2.6461230e-01	   2.1404422e-01	
   1.8700000e+00	  -2.5448129e-01	   2.1893621e-01	
   1.9250000e+00	  -2.4457447e-01	   2.2381111e-01	
   1.9800000e+00	  -2.3496457e-01	   2.2867001e-01	
   2.0350000e+00	  -2.2573329e-01	   2.3349890e-01	
   2.0900000e+00	  -2.1695553e-01	   2.3827840e-01	
   2.1450000e+00	  -2.0868346e-01	   2.4299444e-01	
   2.2000000e+00	  -2.0093412e-01	   2.4764664e-01	
   2.2550000e+00	  -1.9368342e-01	   2.5225231e-01	
   2.3100000e+00	  -1.8686749e-01	   2.5684554e-01	
   2.3650000e+00	  -1.8038995e-01	   2.6147231e-01	
   2.4200000e+00	  -1.7413365e-01	   2.6618305e-01	
   2.4750000e+00	  -1.6797581e-01	   2.7102331e-01	
   2.5300000e+00	  -1.6180472e-01	   2.7602389e-01	
   2.5850000e+00	  -1.5553501e-01	   2.8119196e-01	
   2.6400000e+00	  -1.4911882e-01	   2.8650447e-01	
   2.6950000e+00	  -1.4255084e-01	   2.9190519e-01	
   2.7500000e+00	  -1.3586616e-01	   2.9730697e-01	
   2.8050000e+00	  -1.2913014e-01	   3.0260040e-01	
   2.8600000e+00	  -1.2242213e-01	   3.0766763e-01	
   2.9150000e+00	  -1.1581791e-01	   3.1239783e-01	
   2.9700000e+00	  -1.0937588e-01	   3.1670017e-01	
   3.0250000e+00	  -1.0312932e-01	   3.2051245e-01	
   3.0800000e+00	  -9.7084250e-02	   3.2380462e-01	
   3.1350000e+00	  -9.1221835e-02	   3.2657733e-01	
   3.1900000e+00	  -8.5504770e-02	   3.2885601e-01	
   3.2450000e+00	  -7.9886812e-02	   3.3068176e-01	
   3.3000000e+00	  -7.4324266e-02	   3.3210085e-01	
   3.3550000e+00	  -6.8788141e-02	   3.3315378e-01	
   3.4100000e+00	  -6.3275076e-02	   3.3386512e-01	
   3.4650000e+00	  -5.7814020e-02	   3.3423610e-01	
   3.5200000e+00	  -5.2466199e-02	   3.3424194e-01	
   3.5750000e+00	  -4.7318151e-02	   3.3383478e-01	
   3.6300000e+00	  -4.2469608e-02	   3.3295181e-01	
   3.6850000e+00	  -3.8018830e-02	   3.3152668e-01	
   3.7400000e+00	  -3.4048101e-02	   3.2950153e-01	
   3.7950000e+00	  -3.0611571e-02	   3.2683669e-01	
   3.8500000e+00	  -2.7726647e-02	   3.2351709e-01	
   3.9050000e+00	  -2.5369834e-02	   3.1955509e-01	
   3.9600000e+00	  -2.3478203e-02	   3.1498982e-01	
   4.0150000e+00	  -2.1957246e-02	   3.0988319e-01	
   4.0700000e+00	  -2.0693743e-02	   3.0431376e-01	
   4.1250000e+00	  -1.9570078e-02	   2.9837000e-01	
   4.1800000e+00	  -1.8476353e-02	   2.9214409e-01	
   4.2350000e+00	  -1.7318320e-02	   2.8572685e-01	
   4.2900000e+00	  -1.6020469e-02	   2.7920515e-01	
   4.3450000e+00	  -1.4524347e-02	   2.7266253e-01	
   4.4000000e+00	  -1.2783323e-02	   2.6618209e-01	
   4.4550000e+00	  -1.0756374e-02	   2.5984905e-01	
   4.5100000e+00	  -8.4033713e-03	   2.5375112e-01	
   4.5650000e+00	  -5.6829789e-03	   2.4797660e-01	
   4.6200000e+00	  -2.5530477e-03	   2.4261087e-01	
   4.6750000e+00	   1.0265110e-03	   2.3773114e-01	
   4.7300000e+00	   5.0879363e-03	   2.3339961e-01	
   4.7850000e+00	   9.6473419e-03	   2.2965539e-01	
   4.8400000e+00	   1.4696018e-02	   2.2650657e-01	
   4.8950000e+00	   2.0193639e-02	   2.2392403e-01	
   4.9500000e+00	   2.6065062e-02	   2.2183911e-01	
   5.0050000e+00	   3.2202501e-02	   2.2014713e-01	
   5.0600000e+00	   3.8474547e-02	   2.1871667e-01	
   5.1150000e+00	   4.4741203e-02	   2.1740307e-01	
   5.1700000e+00	   5.0871611e-02	   2.1606333e-01	
   5.2250000e+00	   5.6760528e-02	   2.1456994e-01	
   5.2800000e+00	   6.2340284e-02	   2.1282169e-01	
   5.3350000e+00	   6.7586100e-02	   2.1074993e-01	
   5.3900000e+00	   7.2514762e-02	   2.0832016e-01	
   5.4450000e+00	   7.7178679e-02	   2.0553025e-01	
   5.5000000e+00	   8.1657388e-02	   2.0240609e-01	
   5.5550000e+00	   8.6047305e-02	   1.9899444e-01	
   5.6100000e+00	   9.0450034e-02	   1.9535313e-01	
   5.6650000e+00	   9.4960321e-02	   1.9154036e-01	
   5.7200000e+00	   9.9655145e-02	   1.8760462e-01	
   5.7750000e+00	   1.0458543e-01	   1.8357697e-01	
   5.8300000e+00	   1.0977207e-01	   1.7946735e-01	
   5.8850000e+00	   1.1520776e-01	   1.7526624e-01	
   5.9400000e+00	   1.2086450e-01	   1.7095159e-01	
   5.9950000e+00	   1.2670471e-01	   1.6649854e-01	
   6.0500000e+00	   1.3269268e-01	   1.6188912e-01	
   6.1050000e+00	   1.3880336e-01	   1.5712000e-01	
   6.1600000e+00	   1.4502671e-01	   1.5220715e-01	
   6.2150000e+00	   1.5136636e-01	   1.4718661e-01	
   6.2700000e+00	   1.5783282e-01	   1.4211121e-01	
   6.3250000e+00	   1.6443282e-01	   1.3704389e-01	
   6.3800000e+00	   1.7115703e-01	   1.3204879e-01	
   6.4350000e+00	   1.7796796e-01	   1.2718113e-01	
   6.4900000e+00	   1.8478970e-01	   1.2247786e-01	
   6.5450000e+00	   1.9150120e-01	   1.1795041e-01	
   6.6000000e+00	   1.9793423e-01	   1.1358009e-01	
   6.6550000e+00	   2.0387633e-01	   1.0931616e-01	
   6.7100000e+00	   2.0908001e-01	   1.0507786e-01	
   6.7650000e+00	   2.1327867e-01	   1.0076200e-01	
   6.8200000e+00	   2.1620770e-01	   9.6255228e-02	
   6.8750000e+00	   2.1762586e-01	   9.1448392e-02	
   6.9300000e+00	   2.1733325e-01	   8.6249768e-02	
   6.9850000e+00	   2.1518431e-01	   8.0595469e-02	
   7.0400000e+00	   2.1109672e-01	   7.4456062e-02	
   7.0950000e+00	   2.0505581e-01	   6.7838725e-02	
   7.1500000e+00	   1.9711413e-01	   6.0785009e-02	
   7.2050000e+00	   1.8738610e-01	   5.3365167e-02	
   7.2600000e+00	   1.7603877e-01	   4.5670291e-02	
   7.3150000e+00	   1.6328013e-01	   3.7803011e-02	
   7.3700000e+00	   1.4934602e-01	   2.9867437e-02	
   7.4250000e+00	   1.3448707e-01	   2.1959786e-02	
   7.4800000e+00	   1.1895754e-01	   1.4161759e-02	
   7.5350000e+00	   1.0300756e-01	   6.5385086e-03	
   7.5900000e+00	   8.6879397e-02	  -8.5798131e-04	
   7.6450000e+00	   7.0807641e-02	  -7.9812520e-03	
   7.7000000e+00	   5.5021850e-02	  -1.4781456e-02	
   7.7550000e+00	   3.9749368e-02	  -2.1198149e-02	
   7.8100000e+00	   2.5216377e-02	  -2.7156279e-02	
   7.8650000e+00	   1.1645741e-02	  -3.2565653e-02	
   7.9200000e+00	  -7.4912030e-04	  -3.7323791e-02	
   7.9750000e+00	  -1.1773620e-02	  -4.1321643e-02	
   8.0300000e+00	  -2.1262638e-02	  -4.4451092e-02	
   8.0850000e+00	  -2.9090135e-02	  -4.6612835e-02	
   8.1400000e+00	  -3.5176453e-02	  -4.7723549e-02	
   8.1950000e+00	  -3.9492442e-02	  -4.7721356e-02	
   8.2500000e+00	  -4.2058805e-02	  -4.6568027e-02	
   8.3050000e+00	  -4.2939027e-02	  -4.4246655e-02	
   8.3600000e+00	  -4.2226739e-02	  -4.0755795e-02	
   8.4150000e+00	  -4.0031357e-02	  -3.6103248e-02	
   8.4700000e+00	  -3.6466333e-02	  -3.0302236e-02	
   8.5250000e+00	  -3.1642202e-02	  -2.3370714e-02	
   8.5800000e+00	  -2.5664178e-02	  -1.5333213e-02	
   8.6350000e+00	  -1.8633255e-02	  -6.2245770e-03	
   8.6900000e+00	  -1.0649748e-02	   3.9052925e-03	
   8.7450000e+00	  -1.8177273e-03	   1.4987061e-02	
   8.8000000e+00	   7.7518653e-03	   2.6929209e-02	
   8.8550000e+00	   1.7941361e-02	   3.9617630e-02	
   8.9100000e+00	   2.8630446e-02	   5.2918090e-02	
   8.9650000e+00	   3.9703554e-02	   6.6682060e-02	
   9.0200000e+00	   5.1059084e-02	   8.0755504e-02	
   9.0750000e+00	   6.2618301e-02	   9.4988924e-02	
   9.1300000e+00	   7.4331984e-02	   1.0924659e-01	
   9.1850000e+00	   8.6183511e-02	   1.2341355e-01	
   9.2400000e+00	   9.8187425e-02	   1.3739933e-01	
   9.2950000e+00	   1.1038275e-01	   1.5113796e-01	
   9.3500000e+00	   1.2282150e-01	   1.6458456e-01	
   9.4050000e+00	   1.3555422e-01	   1.7770987e-01	
   9.4600000e+00	   1.4861531e-01	   1.9049343e-01	
   9.5150000e+00	   1.6201039e-01	   2.0291575e-01	
   9.5700000e+00	   1.7570755e-01	   2.1495061e-01	
   9.6250000e+00	   1.8963445e-01	   2.2655986e-01	
   9.6800000e+00	   2.0368337e-01	   2.3769295e-01	
   9.7350000e+00	   2.1772410e-01	   2.4829168e-01	
   9.7900000e+00	   2.3162203e-01	   2.5829931e-01	
   9.8450000e+00	   2.4525712e-01	   2.6767164e-01	
   9.9000000e+00	   2.5853900e-01	   2.7638721e-01	
   9.9550000e+00	   2.7141469e-01	   2.8445393e-01	
   1.0010000e+01	   2.8386809e-01	   2.9191047e-01	
   1.0065000e+01	   2.9591321e-01	   2.9882253e-01	
   1.0120000e+01	   3.0758327e-01	   3.0527486e-01	
   1.0175000e+01	   3.1891839e-01	   3.1136014e-01	
   1.0230000e+01	   3.2995353e-01	   3.1716668e-01	
   1.0285000e+01	   3.4070837e-01	   3.2276712e-01	
   1.0340000e+01	   3.5118086e-01	   3.2821008e-01	
   1.0395000e+01	   3.6134586e-01	   3.3351519e-01	
   1.0450000e+01	   3.7115889e-01	   3.3867183e-01	
   1.0505000e+01	   3.8056480e-01	   3.4364203e-01	
   1.0560000e+01	   3.8951023e-01	   3.4836789e-01	
   1.0615000e+01	   3.9795722e-01	   3.5278248e-01	
   1.0670000e+01	   4.0589441e-01	   3.5682210e-01	
   1.0725000e+01	   4.1334279e-01	   3.6043717e-01	
   1.0780000e+01	   4.2035478e-01	   3.6359969e-01	
   1.0835000e+01	   4.2700695e-01	   3.6630622e-01	
   1.0890000e+01	   4.3338784e-01	   3.6857606e-01	
   1.0945000e+01	   4.3958349e-01	   3.7044564e-01	
   1.1000000e+01	   4.4566347e-01	   3.7196093e-01	
   1.1055000e+01	   4.5166898e-01	   3.7316866e-01	
   1.1110000e+01	   4.5760328e-01	   3.7410709e-01	
   1.1165000e+01	   4.6342508e-01	   3.7479742e-01	
   1.1220000e+01	   4.6904612e-01	   3.7523707e-01	
   1.1275000e+01	   4.7433466e-01	   3.7539625e-01	
   1.1330000e+01	   4.7912553e-01	   3.7521873e-01	
   1.1385000e+01	   4.8323652e-01	   3.7462763e-01	
   1.1440000e+01	   4.8648919e-01	   3.7353536e-01	
   1.1495000e+01	   4.8873000e-01	   3.7185481e-01	
   1.1550000e+01	   4.8984742e-01	   3.6950922e-01	
   1.1605000e+01	   4.8978259e-01	   3.6643979e-01	
   1.1660000e+01	   4.8853348e-01	   3.6261100e-01	
   1.1715000e+01	   4.8615315e-01	   3.5801299e-01	
   1.1770000e+01	   4.8274225e-01	   3.5266026e-01	
   1.1825000e+01	   4.7843705e-01	   3.4658754e-01	
   1.1880000e+01	   4.7339512e-01	   3.3984436e-01	
   1.1935000e+01	   4.6778012e-01	   3.3248859e-01	
   1.1990000e+01	   4.6174681e-01	   3.2457957e-01	
   1.2045000e+01	   4.5542844e-01	   3.1617189e-01	
   1.2100000e+01	   4.4892933e-01	   3.0731156e-01	
   1.2155000e+01	   4.4232430e-01	   2.9803561e-01	
   1.2210000e+01	   4.3566446e-01	   2.8837488e-01	
   1.2265000e+01	   4.2898702e-01	   2.7835955e-01	
   1.2320000e+01	   4.2232645e-01	   2.6802608e-01	
   1.2375000e+01	   4.1572387e-01	   2.5742358e-01	
   1.2430000e+01	   4.0923322e-01	   2.4661775e-01	
   1.2485000e+01	   4.0292430e-01	   2.3569177e-01	
   1.2540000e+01	   3.9688320e-01	   2.2474410e-01	
   1.2595000e+01	   3.9121001e-01	   2.1388333e-01	
   1.2650000e+01	   3.8601302e-01	   2.0322110e-01	
   1.2705000e+01	   3.8140018e-01	   1.9286471e-01	
   1.2760000e+01	   3.7746884e-01	   1.8291065e-01	
   1.2815000e+01	   3.7429462e-01	   1.7343925e-01	
   1.2870000e+01	   3.7192195e-01	   1.6451088e-01	
   1.2925000e+01	   3.7036045e-01	   1.5616594e-01	
   1.2980000e+01	   3.6958940e-01	   1.4842930e-01	
   1.3035000e+01	   3.6956818e-01	   1.4131779e-01	
   1.3090000e+01	   3.7024823e-01	   1.3484738e-01	
   1.3145000e+01	   3.7158329e-01	   1.2903793e-01	
   1.3200000e+01	   3.7353550e-01	   1.2391456e-01	
   1.3255000e+01	   3.7607593e-01	   1.1950552e-01	
   1.3310000e+01	   3.7917930e-01	   1.1583699e-01	
   1.3365000e+01	   3.8281477e-01	   1.1292589e-01	
   1.3420000e+01	   3.8693563e-01	   1.1077220e-01	
   1.3475000e+01	   3.9147005e-01	   1.0935205e-01	
   1.3530000e+01	   3.9631418e-01	   1.0861247e-01	
   1.3585000e+01	   4.0132961e-01	   1.0846937e-01	
   1.3640000e+01	   4.0634772e-01	   1.0881013e-01	
   1.3695000e+01	   4.1118140e-01	   1.0950142e-01	
   1.3750000e+01	   4.1564189e-01	   1.1040081e-01	
   1.3805000e+01	   4.1955691e-01	   1.1137020e-01	
   1.3860000e+01	   4.2278629e-01	   1.1228835e-01	
   1.3915000e+01	   4.2523212e-01	   1.1306048e-01	
   1.3970000e+01	   4.2684169e-01	   1.1362343e-01	
   1.4025000e+01	   4.2760369e-01	   1.1394655e-01	
   1.4080000e+01	   4.2753930e-01	   1.1402886e-01	
   1.4135000e+01	   4.2668959e-01	   1.1389291e-01	
   1.4190000e+01	   4.2510071e-01	   1.1357614e-01	
   1.4245000e+01	   4.2280945e-01	   1.1312119e-01	
   1.4300000e+01	   4.1983189e-01	   1.1256682e-01	
   1.4355000e+01	   4.1615625e-01	   1.1194051e-01	
   1.4410000e+01	   4.1174037e-01	   1.1125328e-01	
   1.4465000e+01	   4.0651408e-01	   1.1049820e-01	
   1.4520000e+01	   4.0038773e-01	   1.0965360e-01	
   1.4575000e+01	   3.9326690e-01	   1.0869078e-01	
   1.4630000e+01	   3.8507036e-01	   1.0758387e-01	
   1.4685000e+01	   3.7574690e-01	   1.0631925e-01	
   1.4740000e+01	   3.6528763e-01	   1.0490241e-01	
   1.4795000e+01	   3.5373286e-01	   1.0336117e-01	
   1.4850000e+01	   3.4117373e-01	   1.0174496e-01	
   1.4905000e+01	   3.2774976e-01	   1.0012079e-01	
   1.4960000e+01	   3.1364320e-01	   9.8566422e-02	
   1.5015000e+01	   2.9907103e-01	   9.7161258e-02	
   1.5070000e+01	   2.8427571e-01	   9.5975867e-02	
   1.5125000e+01	   2.6951688e-01	   9.5062310e-02	
   1.5180000e+01	   2.5506654e-01	   9.4447464e-02	
   1.5235000e+01	   2.4120907e-01	   9.4130215e-02	
   1.5290000e+01	   2.2824567e-01	   9.4082371e-02	
   1.5345000e+01	   2.1650220e-01	   9.4253447e-02	
   1.5400000e+01	   2.0633948e-01	   9.4579179e-02	
   1.5455000e+01	   1.9816420e-01	   9.4992344e-02	
   1.5510000e+01	   1.9243781e-01	   9.5433760e-02	
   1.5565000e+01	   1.8968098e-01	   9.5861846e-02	
   1.5620000e+01	   1.9047210e-01	   9.6259636e-02	
   1.5675000e+01	   1.9543796e-01	   9.6637916e-02	
   1.5730000e+01	   2.0523540e-01	   9.7033650e-02	
   1.5785000e+01	   2.2052452e-01	   9.7504268e-02	
   1.5840000e+01	   2.4193584e-01	   9.8119304e-02	
   1.5895000e+01	   2.7003356e-01	   9.8950414e-02	
   1.5950000e+01	   3.0527717e-01	   1.0006056e-01	
   1.6005000e+01	   3.4798417e-01	   1.0149390e-01	
   1.6060000e+01	   3.9829778e-01	   1.0326840e-01	
   1.6115000e+01	   4.5616256e-01	   1.0537224e-01	
   1.6170000e+01	   5.2130986e-01	   1.0776482e-01	
   1.6225000e+01	   5.9325378e-01	   1.1038230e-01	
   1.6280000e+01	   6.7129675e-01	   1.1314673e-01	
   1.6335000e+01	   7.5454307e-01	   1.1597643e-01	
   1.6390000e+01	   8.4191890e-01	   1.1879494e-01	
   1.6445000e+01	   9.3219935e-01	   1.2153717e-01	
   1.6500000e+01	   1.0240452e+00	   1.2415189e-01	
   1.6555000e+01	   1.1160522e+00	   1.2660102e-01	
   1.6610000e+01	   1.2068106e+00	   1.2885675e-01	
   1.6665000e+01	   1.2949689e+00	   1.3089788e-01	
   1.6720000e+01	   1.3792883e+00	   1.3270592e-01	
   1.6775000e+01	   1.4586826e+00	   1.3426086e-01	
   1.6830000e+01	   1.5322427e+00	   1.3553692e-01	
   1.6885000e+01	   1.5992502e+00	   1.3649982e-01	
   1.6940000e+01	   1.6591826e+00	   1.3710733e-01	
   1.6995000e+01	   1.7117149e+00	   1.3731353e-01	
   1.7050000e+01	   1.7567161e+00	   1.3707544e-01	
   1.7105000e+01	   1.7942407e+00	   1.3636028e-01	
   1.7160000e+01	   1.8245139e+00	   1.3515180e-01	
   1.7215000e+01	   1.8479108e+00	   1.3345435e-01	
   1.7270000e+01	   1.8649305e+00	   1.3129392e-01	
   1.7325000e+01	   1.8761663e+00	   1.2871603e-01	
   1.7380000e+01	   1.8822734e+00	   1.2578130e-01	
   1.7435000e+01	   1.8839384e+00	   1.2255894e-01	
   1.7490000e+01	   1.8818496e+00	   1.1911875e-01	
   1.7545000e+01	   1.8766712e+00	   1.1552302e-01	
   1.7600000e+01	   1.8690234e+00	   1.1181988e-01	
   1.7655000e+01	   1.8594697e+00	   1.0803927e-01	
   1.7710000e+01	   1.8485122e+00	   1.0419235e-01	
   1.7765000e+01	   1.8365948e+00	   1.0027513e-01	
   1.7820000e+01	   1.8241104e+00	   9.6275657e-02	
   1.7875000e+01	   1.8114119e+00	   9.2182480e-02	
   1.7930000e+01	   1.7988223e+00	   8.7991786e-02	
   1.7985000e+01	   1.7866402e+00	   8.3711697e-02	
   1.8040000e+01	   1.7751400e+00	   7.9363164e-02	
   1.8095000e+01	   1.7645674e+00	   7.4977172e-02	
   1.8150000e+01	   1.7551291e+00	   7.0588792e-02	
   1.8205000e+01	   1.7469801e+00	   6.6229530e-02	
   1.8260000e+01	   1.7402104e+00	   6.1919734e-02	
   1.8315000e+01	   1.7348312e+00	   5.7661819e-02	
   1.8370000e+01	   1.7307640e+00	   5.3434283e-02	
   1.8425000e+01	   1.7278310e+00	   4.9187337e-02	
   1.8480000e+01	   1.7257522e+00	   4.4842361e-02	
   1.8535000e+01	   1.7241517e+00	   4.0297027e-02	
   1.8590000e+01	   1.7225755e+00	   3.5435728e-02	
   1.8645000e+01	   1.7205169e+00	   3.0143093e-02	
   1.8700000e+01	   1.7174474e+00	   2.4317946e-02	
   1.8755000e+01	   1.7128449e+00	   1.7885399e-02	
   1.8810000e+01	   1.7062201e+00	   1.0805380e-02	
   1.8865000e+01	   1.6971375e+00	   3.0768471e-03	
   1.8920000e+01	   1.6852328e+00	  -5.2622637e-03	
   1.8975000e+01	   1.6702251e+00	  -1.4139016e-02	
   1.9030000e+01	   1.6519244e+00	  -2.3452805e-02	
   1.9085000e+01	   1.6302344e+00	  -3.3085054e-02	
   1.9140000e+01	   1.6051523e+00	  -4.2910099e-02	
   1.9195000e+01	   1.5767662e+00	  -5.2806383e-02	
   1.9250000e+01	   1.5452531e+00	  -6.2666934e-02	
   1.9305000e+01	   1.5108777e+00	  -7.2407282e-02	
   1.9360000e+01	   1.4739967e+00	  -8.1968722e-02	
   1.9415000e+01	   1.4350649e+00	  -9.1315803e-02	
   1.9470000e+01	   1.3946433e+00	  -1.0042881e-01	
   1.9525000e+01	   1.3534027e+00	  -1.0929368e-01	
   1.9580000e+01	   1.3121196e+00	  -1.1789205e-01	
   1.9635000e+01	   1.2716608e+00	  -1.2619317e-01	
   1.9690000e+01	   1.2329550e+00	  -1.3414928e-01	
   1.9745000e+01	   1.1969501e+00	  -1.4169530e-01	
   1.9800000e+01	   1.1645550e+00	  -1.4875292e-01	
   1.9855000e+01	   1.1365685e+00	  -1.5523881e-01	
   1.9910000e+01	   1.1136000e+00	  -1.6107587e-01	
   1.9965000e+01	   1.0959957e+00	  -1.6620601e-01	
   2.0020000e+01	   1.0837875e+00	  -1.7060150e-01	
   2.0075000e+01	   1.0766778e+00	  -1.7427272e-01	
   2.0130000e+01	   1.0740630e+00	  -1.7727178e-01	
   2.0185000e+01	   1.0750919e+00	  -1.7969171e-01	
   2.0240000e+01	   1.0787465e+00	  -1.8166117e-01	
   2.0295000e+01	   1.0839306e+00	  -1.8333389e-01	
   2.0350000e+01	   1.0895529e+00	  -1.8487417e-01	
   2.0405000e+01	   1.0946000e+00	  -1.8644075e-01	
   2.0460000e+01	   1.0981956e+00	  -1.8817213e-01	
   2.0515000e+01	   1.0996421e+00	  -1.9017545e-01	
   2.0570000e+01	   1.0984445e+00	  -1.9252013e-01	
   2.0625000e+01	   1.0943155e+00	  -1.9523666e-01	
   2.0680000e+01	   1.0871658e+00	  -1.9831968e-01	
   2.0735000e+01	   1.0770835e+00	  -2.0173448e-01	
   2.0790000e+01	   1.0643029e+00	  -2.0542559e-01	
   2.0845000e+01	   1.0491620e+00	  -2.0932675e-01	
   2.0900000e+01	   1.0320539e+00	  -2.1337104e-01	
   2.0955000e+01	   1.0133791e+00	  -2.1750021e-01	
   2.1010000e+01	   9.9351567e-01	  -2.2167173e-01	
   2.1065000e+01	   9.7281508e-01	  -2.2586143e-01	
   2.1120000e+01	   9.5162397e-01	  -2.3006020e-01	
   2.1175000e+01	   9.3031559e-01	  -2.3426569e-01	
   2.1230000e+01	   9.0931739e-01	  -2.3847240e-01	
   2.1285000e+01	   8.8912590e-01	  -2.4266303e-01	
   2.1340000e+01	   8.7030528e-01	  -2.4680350e-01	
   2.1395000e+01	   8.5346722e-01	  -2.5084286e-01	
   2.1450000e+01	   8.3923198e-01	  -2.5471842e-01	
   2.1505000e+01	   8.2817280e-01	  -2.5836433e-01	
   2.1560000e+01	   8.2074769e-01	  -2.6172152e-01	
   2.1615000e+01	   8.1722484e-01	  -2.6474775e-01	
   2.1670000e+01	   8.1761370e-01	  -2.6742691e-01	
   2.1725000e+01	   8.2161817e-01	  -2.6977581e-01	
   2.1780000e+01	   8.2862579e-01	  -2.7184593e-01	
   2.1835000e+01	   8.3773816e-01	  -2.7371864e-01	
   2.1890000e+01	   8.4783761e-01	  -2.7549438e-01	
   2.1945000e+01	   8.5767495e-01	  -2.7727801e-01	
   2.2000000e+01	   8.6595870e-01	  -2.7916386e-01	
   2.2055000e+01	   8.7143195e-01	  -2.8122359e-01	
   2.2110000e+01	   8.7293196e-01	  -2.8349845e-01	
   2.2165000e+01	   8.6943196e-01	  -2.8599540e-01	
   2.2220000e+01	   8.6006628e-01	  -2.8868662e-01	
   2.2275000e+01	   8.4413866e-01	  -2.9151293e-01	
   2.2330000e+01	   8.2111479e-01	  -2.9439168e-01	
   2.2385000e+01	   7.9060601e-01	  -2.9722800e-01	
   2.2440000e+01	   7.5235823e-01	  -2.9992693e-01	
   2.2495000e+01	   7.0625936e-01	  -3.0240426e-01	
   2.2550000e+01	   6.5236437e-01	  -3.0459480e-01	
   2.2605000e+01	   5.9092694e-01	  -3.0645666e-01	
   2.2660000e+01	   5.2242729e-01	  -3.0796985e-01	
   2.2715000e+01	   4.4759140e-01	  -3.0912932e-01	
   2.2770000e+01	   3.6739590e-01	  -3.0993514e-01	
   2.2825000e+01	   2.8305252e-01	  -3.1038335e-01	
   2.2880000e+01	   1.9596755e-01	  -3.1045943e-01	
   2.2935000e+01	   1.0767827e-01	  -3.1013525e-01	
   2.2990000e+01	   1.9775129e-02	  -3.0936924e-01	
   2.3045000e+01	  -6.6176554e-02	  -3.0810930e-01	
   2.3100000e+01	  -1.4870533e-01	  -3.0629787e-01	
   2.3155000e+01	  -2.2648953e-01	  -3.0387910e-01	
   2.3210000e+01	  -2.9840110e-01	  -3.0080816e-01	
   2.3265000e+01	  -3.6353757e-01	  -2.9706162e-01	
   2.3320000e+01	  -4.2124181e-01	  -2.9264669e-01	
   2.3375000e+01	  -4.7110941e-01	  -2.8760759e-01	
   2.3430000e+01	  -5.1298427e-01	  -2.8202735e-01	
   2.3485000e+01	  -5.4694186e-01	  -2.7602429e-01	
   2.3540000e+01	  -5.7325992e-01	  -2.6974252e-01	
   2.3595000e+01	  -5.9237963e-01	  -2.6333785e-01	
   2.3650000e+01	  -6.0486355e-01	  -2.5696292e-01	
   2.3705000e+01	  -6.1135588e-01	  -2.5075479e-01	
   2.3760000e+01	  -6.1254697e-01	  -2.4482609e-01	
   2.3815000e+01	  -6.0914271e-01	  -2.3925966e-01	
   2.3870000e+01	  -6.0184050e-01	  -2.3410704e-01	
   2.3925000e+01	  -5.9131357e-01	  -2.2939094e-01	
   2.3980000e+01	  -5.7820281e-01	  -2.2511134e-01	
   2.4035000e+01	  -5.6311390e-01	  -2.2125394e-01	
   2.4090000e+01	  -5.4661753e-01	  -2.1780017e-01	
   2.4145000e+01	  -5.2925123e-01	  -2.1473692e-01	
   2.4200000e+01	  -5.1152075e-01	  -2.1206433e-01	
   2.4255000e+01	  -4.9389905e-01	  -2.0979987e-01	
   2.4310000e+01	  -4.7682140e-01	  -2.0797835e-01	
   2.4365000e+01	  -4.6067580e-01	  -2.0664723e-01	
   2.4420000e+01	  -4.4578934e-01	  -2.0585759e-01	
   2.4475000e+01	  -4.3241364e-01	  -2.0565180e-01	
   2.4530000e+01	  -4.2071363e-01	  -2.0605089e-01	
   2.4585000e+01	  -4.1076331e-01	  -2.0704475e-01	
   2.4640000e+01	  -4.0254953e-01	  -2.0858681e-01	
   2.4695000e+01	  -3.9598319e-01	  -2.1059381e-01	
   2.4750000e+01	  -3.9091600e-01	  -2.1295089e-01	
   2.4805000e+01	  -3.8716103e-01	  -2.1552134e-01	
   2.4860000e+01	  -3.8451403e-01	  -2.1815909e-01	
   2.4915000e+01	  -3.8277331e-01	  -2.2072145e-01	
   2.4970000e+01	  -3.8175685e-01	  -2.2308136e-01	
   2.5025000e+01	  -3.8131660e-01	  -2.2513870e-01	
   2.5080000e+01	  -3.8134881e-01	  -2.2682961e-01	
   2.5135000e+01	  -3.8179857e-01	  -2.2813216e-01	
   2.5190000e+01	  -3.8265730e-01	  -2.2906680e-01	
   2.5245000e+01	  -3.8395345e-01	  -2.2969119e-01	
   2.5300000e+01	  -3.8573849e-01	  -2.3009021e-01	
   2.5355000e+01	  -3.8807039e-01	  -2.3036312e-01	
   2.5410000e+01	  -3.9099790e-01	  -2.3061050e-01	
   2.5465000e+01	  -3.9454798e-01	  -2.3092348e-01	
   2.5520000e+01	  -3.9871800e-01	  -2.3137649e-01	
   2.5575000e+01	  -4.0347299e-01	  -2.3202364e-01	
   2.5630000e+01	  -4.0874722e-01	  -2.3289800e-01	
   2.5685000e+01	  -4.1444915e-01	  -2.3401308e-01	
   2.5740000e+01	  -4.2046827e-01	  -2.3536584e-01	
   2.5795000e+01	  -4.2668306e-01	  -2.3694091e-01	
   2.5850000e+01	  -4.3296969e-01	  -2.3871612e-01	
   2.5905000e+01	  -4.3921104e-01	  -2.4066882e-01	
   2.5960000e+01	  -4.4530563e-01	  -2.4278210e-01	
   2.6015000e+01	  -4.5117488e-01	  -2.4504896e-01	
   2.6070000e+01	  -4.5676633e-01	  -2.4747288e-01	
   2.6125000e+01	  -4.6205096e-01	  -2.5006386e-01	
   2.6180000e+01	  -4.6701561e-01	  -2.5283095e-01	
   2.6235000e+01	  -4.7165275e-01	  -2.5577366e-01	
   2.6290000e+01	  -4.7595106e-01	  -2.5887495e-01	
   2.6345000e+01	  -4.7988908e-01	  -2.6209746e-01	
   2.6400000e+01	  -4.8343275e-01	  -2.6538366e-01	
   2.6455000e+01	  -4.8653602e-01	  -2.6865905e-01	
   2.6510000e+01	  -4.8914331e-01	  -2.7183812e-01	
   2.6565000e+01	  -4.9119408e-01	  -2.7483177e-01	
   2.6620000e+01	  -4.9262986e-01	  -2.7755612e-01	
   2.6675000e+01	  -4.9340413e-01	  -2.7994193e-01	
   2.6730000e+01	  -4.9349413e-01	  -2.8194399e-01	
   2.6785000e+01	  -4.9291178e-01	  -2.8354843e-01	
   2.6840000e+01	  -4.9170981e-01	  -2.8477583e-01	
   2.6895000e+01	  -4.8998023e-01	  -2.8567919e-01	
   2.6950000e+01	  -4.8784505e-01	  -2.8633685e-01	
   2.7005000e+01	  -4.8544228e-01	  -2.8684181e-01	
   2.7060000e+01	  -4.8291080e-01	  -2.8728879e-01	
   2.7115000e+01	  -4.8037676e-01	  -2.8776094e-01	
   2.7170000e+01	  -4.7794369e-01	  -2.8831821e-01	
   2.7225000e+01	  -4.7568740e-01	  -2.8898953e-01	
   2.7280000e+01	  -4.7365576e-01	  -2.8976950e-01	
   2.7335000e+01	  -4.7187272e-01	  -2.9061971e-01	
   2.7390000e+01	  -4.7034511e-01	  -2.9147476e-01	
   2.7445000e+01	  -4.6907138e-01	  -2.9225216e-01	
   2.7500000e+01	  -4.6805049e-01	  -2.9286465e-01	
   2.7555000e+01	  -4.6729047e-01	  -2.9323272e-01	
   2.7610000e+01	  -4.6681578e-01	  -2.9329634e-01	
   2.7665000e+01	  -4.6667251e-01	  -2.9302488e-01	
   2.7720000e+01	  -4.6692951e-01	  -2.9242323e-01	
   2.7775000e+01	  -4.6767334e-01	  -2.9153205e-01	
   2.7830000e+01	  -4.6899715e-01	  -2.9042137e-01	
   2.7885000e+01	  -4.7098615e-01	  -2.8917888e-01	
   2.7940000e+01	  -4.7370350e-01	  -2.8789596e-01	
   2.7995000e+01	  -4.7717945e-01	  -2.8665446e-01	
   2.8050000e+01	  -4.8140494e-01	  -2.8551602e-01	
   2.8105000e+01	  -4.8632953e-01	  -2.8451490e-01	
   2.8160000e+01	  -4.9186273e-01	  -2.8365470e-01	
   2.8215000e+01	  -4.9787838e-01	  -2.8290925e-01	
   2.8270000e+01	  -5.0422225e-01	  -2.8222736e-01	
   2.8325000e+01	  -5.1072363e-01	  -2.8154056e-01	
   2.8380000e+01	  -5.1720926e-01	  -2.8077207e-01	
   2.8435000e+01	  -5.2351755e-01	  -2.7984659e-01	
   2.8490000e+01	  -5.2951122e-01	  -2.7870072e-01	
   2.8545000e+01	  -5.3508762e-01	  -2.7729334e-01	
   2.8600000e+01	  -5.4018479e-01	  -2.7561350e-01	
   2.8655000e+01	  -5.4478112e-01	  -2.7368298e-01	
   2.8710000e+01	  -5.4888786e-01	  -2.7155293e-01	
   2.8765000e+01	  -5.5253653e-01	  -2.6929550e-01	
   2.8820000e+01	  -5.5576438e-01	  -2.6699234e-01	
   2.8875000e+01	  -5.5860060e-01	  -2.6472216e-01	
   2.8930000e+01	  -5.6105575e-01	  -2.6254955e-01	
   2.8985000e+01	  -5.6311621e-01	  -2.6051691e-01	
   2.9040000e+01	  -5.6474469e-01	  -2.5864030e-01	
   2.9095000e+01	  -5.6588697e-01	  -2.5690941e-01	
   2.9150000e+01	  -5.6648358e-01	  -2.5529218e-01	
   2.9205000e+01	  -5.6648477e-01	  -2.5374369e-01	
   2.9260000e+01	  -5.6586609e-01	  -2.5221804e-01	
   2.9315000e+01	  -5.6464133e-01	  -2.5068068e-01	
   2.9370000e+01	  -5.6287057e-01	  -2.4911887e-01	
   2.9425000e+01	  -5.6066227e-01	  -2.4754816e-01	
   2.9480000e+01	  -5.5816821e-01	  -2.4601367e-01	
   2.9535000e+01	  -5.5557063e-01	  -2.4458519e-01	
   2.9590000e+01	  -5.5306336e-01	  -2.4334722e-01	
   2.9645000e+01	  -5.5083155e-01	  -2.4238652e-01	
   2.9700000e+01	  -5.4903433e-01	  -2.4177972e-01	
   2.9755000e+01	  -5.4779283e-01	  -2.4158308e-01	
   2.9810000e+01	  -5.4718415e-01	  -2.4182545e-01	
   2.9865000e+01	  -5.4724126e-01	  -2.4250490e-01	
   2.9920000e+01	  -5.4795762e-01	  -2.4358868e-01	
   2.9975000e+01	  -5.4929453e-01	  -2.4501637e-01	
   3.0030000e+01	  -5.5118958e-01	  -2.4670606e-01	
   3.0085000e+01	  -5.5356570e-01	  -2.4856326e-01	
   3.0140000e+01	  -5.5633978e-01	  -2.5049090e-01	
   3.0195000e+01	  -5.5942966e-01	  -2.5239837e-01	
   3.0250000e+01	  -5.6275822e-01	  -2.5420793e-01	
   3.0305000e+01	  -5.6625387e-01	  -2.5585718e-01	
   3.0360000e+01	  -5.6984705e-01	  -2.5729745e-01	
   3.0415000e+01	  -5.7346412e-01	  -2.5848867e-01	
   3.0470000e+01	  -5.7702068e-01	  -2.5939292e-01	
   3.0525000e+01	  -5.8041693e-01	  -2.5996841e-01	
   3.0580000e+01	  -5.8353572e-01	  -2.6016467e-01	
   3.0635000e+01	  -5.8624378e-01	  -2.5991908e-01	
   3.0690000e+01	  -5.8839648e-01	  -2.5915630e-01	
   3.0745000e+01	  -5.8984621e-01	  -2.5779164e-01	
   3.0800000e+01	  -5.9045366e-01	  -2.5573829e-01	
   3.0855000e+01	  -5.9010027e-01	  -2.5291670e-01	
   3.0910000e+01	  -5.8870029e-01	  -2.4926466e-01	
   3.0965000e+01	  -5.8621101e-01	  -2.4474655e-01	
   3.1020000e+01	  -5.8263939e-01	  -2.3936040e-01	
   3.1075000e+01	  -5.7804241e-01	  -2.3314126e-01	
   3.1130000e+01	  -5.7251951e-01	  -2.2616008e-01	
   3.1185000e+01	  -5.6619784e-01	  -2.1851796e-01	
   3.1240000e+01	  -5.5921294e-01	  -2.1033617e-01	
   3.1295000e+01	  -5.5169011e-01	  -2.0174413e-01	
   3.1350000e+01	  -5.4373126e-01	  -1.9286843e-01	
   3.1405000e+01	  -5.3541007e-01	  -1.8382557e-01	
   3.1460000e+01	  -5.2677452e-01	  -1.7471894e-01	
   3.1515000e+01	  -5.1785417e-01	  -1.6563926e-01	
   3.1570000e+01	  -5.0866957e-01	  -1.5666725e-01	
   3.1625000e+01	  -4.9924226e-01	  -1.4787784e-01	
   3.1680000e+01	  -4.8960380e-01	  -1.3934493e-01	
   3.1735000e+01	  -4.7980367e-01	  -1.3114608e-01	
   3.1790000e+01	  -4.6991554e-01	  -1.2336660e-01	
   3.1845000e+01	  -4.6004100e-01	  -1.1610227e-01	
   3.1900000e+01	  -4.5030844e-01	  -1.0945943e-01	
   3.1955000e+01	  -4.4086570e-01	  -1.0355145e-01	
   3.2010000e+01	  -4.3186638e-01	  -9.8491135e-02	
   3.2065000e+01	  -4.2345225e-01	  -9.4380238e-02	
   3.2120000e+01	  -4.1573568e-01	  -9.1297977e-02	
   3.2175000e+01	  -4.0878578e-01	  -8.9290540e-02	
   3.2230000e+01	  -4.0262106e-01	  -8.8363255e-02	
   3.2285000e+01	  -3.9720995e-01	  -8.8477136e-02	
   3.2340000e+01	  -3.9247853e-01	  -8.9550219e-02	
   3.2395000e+01	  -3.8832265e-01	  -9.1462770e-02	
   3.2450000e+01	  -3.8462115e-01	  -9.4065515e-02	
   3.2505000e+01	  -3.8124828e-01	  -9.7190509e-02	
   3.2560000e+01	  -3.7808553e-01	  -1.0066359e-01	
   3.2615000e+01	  -3.7503252e-01	  -1.0431699e-01	
   3.2670000e+01	  -3.7201696e-01	  -1.0800125e-01	
   3.2725000e+01	  -3.6900231e-01	  -1.1159523e-01	
   3.2780000e+01	  -3.6599032e-01	  -1.1501243e-01	
   3.2835000e+01	  -3.6301605e-01	  -1.1820140e-01	
   3.2890000e+01	  -3.6013534e-01	  -1.2114018e-01	
   3.2945000e+01	  -3.5740825e-01	  -1.2382677e-01	
   3.3000000e+01	  -3.5488323e-01	  -1.2626831e-01	
   3.3055000e+01	  -3.5258551e-01	  -1.2847116e-01	
   3.3110000e+01	  -3.5051123e-01	  -1.3043353e-01	
   3.3165000e+01	  -3.4862745e-01	  -1.3214176e-01	
   3.3220000e+01	  -3.4687694e-01	  -1.3357016e-01	
   3.3275000e+01	  -3.4518643e-01	  -1.3468386e-01	
   3.3330000e+01	  -3.4347728e-01	  -1.3544403e-01	
   3.3385000e+01	  -3.4167771e-01	  -1.3581498e-01	
   3.3440000e+01	  -3.3973520e-01	  -1.3577216e-01	
   3.3495000e+01	  -3.3762678e-01	  -1.3530941e-01	
   3.3550000e+01	  -3.3536511e-01	  -1.3444424e-01	
   3.3605000e+01	  -3.3299978e-01	  -1.3322010e-01	
   3.3660000e+01	  -3.3061309e-01	  -1.3170471e-01	
   3.3715000e+01	  -3.2831019e-01	  -1.2998404e-01	
   3.3770000e+01	  -3.2620528e-01	  -1.2815332e-01	
   3.3825000e+01	  -3.2440679e-01	  -1.2630711e-01	
   3.3880000e+01	  -3.2300324e-01	  -1.2452959e-01	
   3.3935000e+01	  -3.2205104e-01	  -1.2288547e-01	
   3.3990000e+01	  -3.2156620e-01	  -1.2141332e-01	
   3.4045000e+01	  -3.2152167e-01	  -1.2012287e-01	
   3.4100000e+01	  -3.2185039e-01	  -1.1899690e-01	
   3.4155000e+01	  -3.2245293e-01	  -1.1799682e-01	
   3.4210000e+01	  -3.2320858e-01	  -1.1707081e-01	
   3.4265000e+01	  -3.2398806e-01	  -1.1616294e-01	
   3.4320000e+01	  -3.2466462e-01	  -1.1522093e-01	
   3.4375000e+01	  -3.2512098e-01	  -1.1420038e-01	
   3.4430000e+01	  -3.2525097e-01	  -1.1306523e-01	
   3.4485000e+01	  -3.2495687e-01	  -1.1178488e-01	
   3.4540000e+01	  -3.2414399e-01	  -1.1032891e-01	
   3.4595000e+01	  -3.2271503e-01	  -1.0866112e-01	
   3.4650000e+01	  -3.2056665e-01	  -1.0673516e-01	
   3.4705000e+01	  -3.1758962e-01	  -1.0449328e-01	
   3.4760000e+01	  -3.1367217e-01	  -1.0186786e-01	
   3.4815000e+01	  -3.0870604e-01	  -9.8784803e-02	
   3.4870000e+01	  -3.0259462e-01	  -9.5169039e-02	
   3.4925000e+01	  -2.9526258e-01	  -9.0951804e-02	
   3.4980000e+01	  -2.8666528e-01	  -8.6078393e-02	
   3.5035000e+01	  -2.7679625e-01	  -8.0514893e-02	
   3.5090000e+01	  -2.6569211e-01	  -7.4253547e-02	
   3.5145000e+01	  -2.5343393e-01	  -6.7316633e-02	
   3.5200000e+01	  -2.4014329e-01	  -5.9757417e-02	
   3.5255000e+01	  -2.2597132e-01	  -5.1656338e-02	
   3.5310000e+01	  -2.1108192e-01	  -4.3112517e-02	
   3.5365000e+01	  -1.9563330e-01	  -3.4232771e-02	
   3.5420000e+01	  -1.7976187e-01	  -2.5120472e-02	
   3.5475000e+01	  -1.6357117e-01	  -1.5866028e-02	
   3.5530000e+01	  -1.4712765e-01	  -6.5407221e-03	
   3.5585000e+01	  -1.3046362e-01	   2.8047256e-03	
   3.5640000e+01	  -1.1358692e-01	   1.2136958e-02	
   3.5695000e+01	  -9.6494850e-02	   2.1433545e-02	
   3.5750000e+01	  -7.9189516e-02	   3.0674844e-02	
   3.5805000e+01	  -6.1692328e-02	   3.9835571e-02	
   3.5860000e+01	  -4.4055378e-02	   4.8877771e-02	
   3.5915000e+01	  -2.6368357e-02	   5.7746695e-02	
   3.5970000e+01	  -8.7606385e-03	   6.6369968e-02	
   3.6025000e+01	   8.6018060e-03	   7.4660020e-02	
   3.6080000e+01	   2.5525552e-02	   8.2520215e-02	
   3.6135000e+01	   4.1804892e-02	   8.9854476e-02	
   3.6190000e+01	   5.7240529e-02	   9.6578514e-02	
   3.6245000e+01	   7.1658086e-02	   1.0262999e-01	
   3.6300000e+01	   8.4923627e-02	   1.0797609e-01	
   3.6355000e+01	   9.6954434e-02	   1.1261788e-01	
   3.6410000e+01	   1.0772369e-01	   1.1659071e-01	
   3.6465000e+01	   1.1725858e-01	   1.1996007e-01	
   3.6520000e+01	   1.2563287e-01	   1.2281358e-01	
   3.6575000e+01	   1.3295565e-01	   1.2525084e-01	
   3.6630000e+01	   1.3935766e-01	   1.2737230e-01	
   3.6685000e+01	   1.4497659e-01	   1.2926843e-01	
   3.6740000e+01	   1.4994416e-01	   1.3101078e-01	
   3.6795000e+01	   1.5437806e-01	   1.3264659e-01	
   3.6850000e+01	   1.5838089e-01	   1.3419794e-01	
   3.6905000e+01	   1.6204470e-01	   1.3566522e-01	
   3.6960000e+01	   1.6545749e-01	   1.3703405e-01	
   3.7015000e+01	   1.6870836e-01	   1.3828344e-01	
   3.7070000e+01	   1.7188856e-01	   1.3939282e-01	
   3.7125000e+01	   1.7508763e-01	   1.4034607e-01	
   3.7180000e+01	   1.7838575e-01	   1.4113245e-01	
   3.7235000e+01	   1.8184540e-01	   1.4174551e-01	
   3.7290000e+01	   1.8550428e-01	   1.4218086e-01	
   3.7345000e+01	   1.8937004e-01	   1.4243307e-01	
   3.7400000e+01	   1.9341659e-01	   1.4249210e-01	
   3.7455000e+01	   1.9758336e-01	   1.4234029e-01	
   3.7510000e+01	   2.0177796e-01	   1.4195007e-01	
   3.7565000e+01	   2.0588199e-01	   1.4128291e-01	
   3.7620000e+01	   2.0976071e-01	   1.4029086e-01	
   3.7675000e+01	   2.1327684e-01	   1.3892218e-01	
   3.7730000e+01	   2.1630661e-01	   1.3713018e-01	
   3.7785000e+01	   2.1875428e-01	   1.3488276e-01	
   3.7840000e+01	   2.2056260e-01	   1.3216985e-01	
   3.7895000e+01	   2.2171784e-01	   1.2900732e-01	
   3.7950000e+01	   2.2224885e-01	   1.2543701e-01	
   3.8005000e+01	   2.2222058e-01	   1.2152319e-01	
   3.8060000e+01	   2.2172327e-01	   1.1734660e-01	
   3.8115000e+01	   2.2085958e-01	   1.1299694e-01	
   3.8170000e+01	   2.1973083e-01	   1.0856430e-01	
   3.8225000e+01	   2.1842325e-01	   1.0412959e-01	
   3.8280000e+01	   2.1699537e-01	   9.9755429e-02	
   3.8335000e+01	   2.1546856e-01	   9.5479213e-02	
   3.8390000e+01	   2.1382357e-01	   9.1309888e-02	
   3.8445000e+01	   2.1200483e-01	   8.7229077e-02	
   3.8500000e+01	   2.0993226e-01	   8.3196442e-02	
   3.8555000e+01	   2.0751832e-01	   7.9158434e-02	
   3.8610000e+01	   2.0468559e-01	   7.5058494e-02	
   3.8665000e+01	   2.0137945e-01	   7.0846632e-02	
   3.8720000e+01	   1.9757247e-01	   6.6487147e-02	
   3.8775000e+01	   1.9326210e-01	   6.1964011e-02	
   3.8830000e+01	   1.8846482e-01	   5.7283272e-02	
   3.8885000e+01	   1.8320925e-01	   5.2471661e-02	
   3.8940000e+01	   1.7752889e-01	   4.7571505e-02	
   3.8995000e+01	   1.7145527e-01	   4.2633086e-02	
   3.9050000e+01	   1.6501197e-01	   3.7705625e-02	
   3.9105000e+01	   1.5820951e-01	   3.2827713e-02	
   3.9160000e+01	   1.5104162e-01	   2.8018338e-02	
   3.9215000e+01	   1.4348378e-01	   2.3270003e-02	
   3.9270000e+01	   1.3549530e-01	   1.8545274e-02	
   3.9325000e+01	   1.2702537e-01	   1.3777944e-02	
   3.9380000e+01	   1.1802309e-01	   8.8798181e-03	
   3.9435000e+01	   1.0845019e-01	   3.7528555e-03	
   3.9490000e+01	   9.8293928e-02	  -1.6958075e-03	
   3.9545000e+01	   8.7577237e-02	  -7.5394150e-03	
   3.9600000e+01	   7.6364422e-02	  -1.3820322e-02	
   3.9655000e+01	   6.4761601e-02	  -2.0543107e-02	
   3.9710000e+01	   5.2911538e-02	  -2.7672807e-02	
   3.9765000e+01	   4.0983070e-02	  -3.5138608e-02	
   3.9820000e+01	   2.9157095e-02	  -4.2842002e-02	
   3.9875000e+01	   1.7611575e-02	  -5.0667301e-02	
   3.9930000e+01	   6.5064560e-03	  -5.8492939e-02	
   3.9985000e+01	  -4.0312909e-03	  -6.6203061e-02	
   4.0040000e+01	  -1.3920983e-02	  -7.3698927e-02	
   4.0095000e+01	  -2.3137461e-02	  -8.0908833e-02	
   4.0150000e+01	  -3.1714395e-02	  -8.7794748e-02	
   4.0205000e+01	  -3.9740266e-02	  -9.4353571e-02	
   4.0260000e+01	  -4.7346447e-02	  -1.0061164e-01	
   4.0315000e+01	  -5.4689015e-02	  -1.0661344e-01	
   4.0370000e+01	  -6.1928183e-02	  -1.1240782e-01	
   4.0425000e+01	  -6.9209629e-02	  -1.1803486e-01	
   4.0480000e+01	  -7.6650711e-02	  -1.2351569e-01	
   4.0535000e+01	  -8.4332909e-02	  -1.2884666e-01	
   4.0590000e+01	  -9.2300506e-02	  -1.3399929e-01	
   4.0645000e+01	  -1.0056466e-01	  -1.3892597e-01	
   4.0700000e+01	  -1.0911123e-01	  -1.4356913e-01	
   4.0755000e+01	  -1.1791031e-01	  -1.4787158e-01	
   4.0810000e+01	  -1.2692620e-01	  -1.5178578e-01	
   4.0865000e+01	  -1.3612643e-01	  -1.5528170e-01	
   4.0920000e+01	  -1.4548865e-01	  -1.5835221e-01	
   4.0975000e+01	  -1.5500343e-01	  -1.6101501e-01	
   4.1030000e+01	  -1.6467200e-01	  -1.6331040e-01	
   4.1085000e+01	  -1.7449978e-01	  -1.6529500e-01	
   4.1140000e+01	  -1.8448789e-01	  -1.6703260e-01	
   4.1195000e+01	  -1.9462525e-01	  -1.6858361e-01	
   4.1250000e+01	  -2.0488318e-01	  -1.6999544e-01	
   4.1305000e+01	  -2.1521366e-01	  -1.7129584e-01	
   4.1360000e+01	  -2.2555156e-01	  -1.7248985e-01	
   4.1415000e+01	  -2.3581974e-01	  -1.7356045e-01	
   4.1470000e+01	  -2.4593613e-01	  -1.7447269e-01	
   4.1525000e+01	  -2.5582168e-01	  -1.7518093e-01	
   4.1580000e+01	  -2.6540846e-01	  -1.7563801e-01	
   4.1635000e+01	  -2.7464659e-01	  -1.7580423e-01	
   4.1690000e+01	  -2.8350902e-01	  -1.7565472e-01	
   4.1745000e+01	  -2.9199234e-01	  -1.7518359e-01	
   4.1800000e+01	  -3.0011278e-01	  -1.7440403e-01	
   4.1855000e+01	  -3.0789722e-01	  -1.7334357e-01	
   4.1910000e+01	  -3.1537163e-01	  -1.7203632e-01	
   4.1965000e+01	  -3.2255051e-01	  -1.7051453e-01	
   4.2020000e+01	  -3.2943042e-01	  -1.6880181e-01	
   4.2075000e+01	  -3.3598864e-01	  -1.6690862e-01	
   4.2130000e+01	  -3.4218602e-01	  -1.6483043e-01	
   4.2185000e+01	  -3.4797312e-01	  -1.6254880e-01	
   4.2240000e+01	  -3.5329768e-01	  -1.6003526e-01	
   4.2295000e+01	  -3.5811170e-01	  -1.5725698e-01	
   4.2350000e+01	  -3.6237783e-01	  -1.5418352e-01	
   4.2405000e+01	  -3.6607582e-01	  -1.5079447e-01	
   4.2460000e+01	  -3.6920897e-01	  -1.4708664e-01	
   4.2515000e+01	  -3.7180873e-01	  -1.4307816e-01	
   4.2570000e+01	  -3.7393401e-01	  -1.3880770e-01	
   4.2625000e+01	  -3.7566410e-01	  -1.3432886e-01	
   4.2680000e+01	  -3.7708631e-01	  -1.2970169e-01	
   4.2735000e+01	  -3.7828192e-01	  -1.2498333e-01	
   4.2790000e+01	  -3.7931414e-01	  -1.2021929e-01	
   4.2845000e+01	  -3.8022089e-01	  -1.1543657e-01	
   4.2900000e+01	  -3.8101313e-01	  -1.1063963e-01	
   4.2955000e+01	  -3.8167774e-01	  -1.0580960e-01	
   4.3010000e+01	  -3.8218369e-01	  -1.0090705e-01	
   4.3065000e+01	  -3.8249025e-01	  -9.5878518e-02	
   4.3120000e+01	  -3.8255684e-01	  -9.0665834e-02	
   4.3175000e+01	  -3.8235272e-01	  -8.5216809e-02	
   4.3230000e+01	  -3.8186510e-01	  -7.9495584e-02	
   4.3285000e+01	  -3.8110416e-01	  -7.3490864e-02	
   4.3340000e+01	  -3.8010455e-01	  -6.7220114e-02	
   4.3395000e+01	  -3.7892214e-01	  -6.0728380e-02	
   4.3450000e+01	  -3.7762654e-01	  -5.4082326e-02	
   4.3505000e+01	  -3.7629085e-01	  -4.7361832e-02	
   4.3560000e+01	  -3.7498101e-01	  -4.0651190e-02	
   4.3615000e+01	  -3.7374664e-01	  -3.4030862e-02	
   4.3670000e+01	  -3.7261534e-01	  -2.7570760e-02	
   4.3725000e+01	  -3.7159220e-01	  -2.1326199e-02	
   4.3780000e+01	  -3.7066481e-01	  -1.5336958e-02	
   4.3835000e+01	  -3.6981214e-01	  -9.6289257e-03	
   4.3890000e+01	  -3.6901514e-01	  -4.2179232e-03	
   4.3945000e+01	  -3.6826620e-01	   8.8452980e-04	
   4.4000000e+01	  -3.6757605e-01	   5.6644753e-03	
   4.4055000e+01	  -3.6697661e-01	   1.0099773e-02	
   4.4110000e+01	  -3.6651922e-01	   1.4157555e-02	
   4.4165000e+01	  -3.6626756e-01	   1.7796376e-02	
   4.4220000e+01	  -3.6628701e-01	   2.0972995e-02	
   4.4275000e+01	  -3.6663327e-01	   2.3651551e-02	
   4.4330000e+01	  -3.6734303e-01	   2.5811825e-02	
   4.4385000e+01	  -3.6842787e-01	   2.7454375e-02	
   4.4440000e+01	  -3.6987132e-01	   2.8602375e-02	
   4.4495000e+01	  -3.7162939e-01	   2.9300585e-02	
   4.4550000e+01	  -3.7363482e-01	   2.9611601e-02	
   4.4605000e+01	  -3.7580436e-01	   2.9609703e-02	
   4.4660000e+01	  -3.7804732e-01	   2.9373472e-02	
   4.4715000e+01	  -3.8027270e-01	   2.8978811e-02	
   4.4770000e+01	  -3.8239406e-01	   2.8493745e-02	
   4.4825000e+01	  -3.8433213e-01	   2.7975971e-02	
   4.4880000e+01	  -3.8601438e-01	   2.7473975e-02	
   4.4935000e+01	  -3.8737143e-01	   2.7031862e-02	
   4.4990000e+01	  -3.8833264e-01	   2.6696086e-02	
   4.5045000e+01	  -3.8882375e-01	   2.6521117e-02	
   4.5100000e+01	  -3.8876720e-01	   2.6572202e-02	
   4.5155000e+01	  -3.8808392e-01	   2.6925194e-02	
   4.5210000e+01	  -3.8669622e-01	   2.7663772e-02	
   4.5265000e+01	  -3.8453256e-01	   2.8874300e-02	
   4.5320000e+01	  -3.8153450e-01	   3.0639131e-02	
   4.5375000e+01	  -3.7766458e-01	   3.3029720e-02	
   4.5430000e+01	  -3.7291284e-01	   3.6100332e-02	
   4.5485000e+01	  -3.6730033e-01	   3.9882700e-02	
   4.5540000e+01	  -3.6087820e-01	   4.4382553e-02	
   4.5595000e+01	  -3.5372202e-01	   4.9579292e-02	
   4.5650000e+01	  -3.4592198e-01	   5.5429146e-02	
   4.5705000e+01	  -3.3757143e-01	   6.1870732e-02	
   4.5760000e+01	  -3.2875613e-01	   6.8831650e-02	
   4.5815000e+01	  -3.1954579e-01	   7.6235381e-02	
   4.5870000e+01	  -3.0998873e-01	   8.4007865e-02	
   4.5925000e+01	  -3.0011031e-01	   9.2082407e-02	
   4.5980000e+01	  -2.8991574e-01	   1.0040150e-01	
   4.6035000e+01	  -2.7939688e-01	   1.0891505e-01	
   4.6090000e+01	  -2.6854216e-01	   1.1757538e-01	
   4.6145000e+01	  -2.5734859e-01	   1.2632976e-01	
   4.6200000e+01	  -2.4583383e-01	   1.3511248e-01	
   4.6255000e+01	  -2.3404488e-01	   1.4383910e-01	
   4.6310000e+01	  -2.2205993e-01	   1.5240508e-01	
   4.6365000e+01	  -2.0998319e-01	   1.6068948e-01	
   4.6420000e+01	  -1.9793402e-01	   1.6856345e-01	
   4.6475000e+01	  -1.8603320e-01	   1.7590201e-01	
   4.6530000e+01	  -1.7438955e-01	   1.8259654e-01	
   4.6585000e+01	  -1.6309015e-01	   1.8856490e-01	
   4.6640000e+01	  -1.5219594e-01	   1.9375776e-01	
   4.6695000e+01	  -1.4174321e-01	   1.9816059e-01	
   4.6750000e+01	  -1.3174937e-01	   2.0179160e-01	
   4.6805000e+01	  -1.2222082e-01	   2.0469603e-01	
   4.6860000e+01	  -1.1316015e-01	   2.0693791e-01	
   4.6915000e+01	  -1.0457172e-01	   2.0859104e-01	
   4.6970000e+01	  -9.6465290e-02	   2.0973045e-01	
   4.7025000e+01	  -8.8858090e-02	   2.1042477e-01	
   4.7080000e+01	  -8.1775240e-02	   2.1073036e-01	
   4.7135000e+01	  -7.5247299e-02	   2.1068891e-01	
   4.7190000e+01	  -6.9303555e-02	   2.1032963e-01	
   4.7245000e+01	  -6.3961531e-02	   2.0967542e-01	
   4.7300000e+01	  -5.9215672e-02	   2.0875083e-01	
   4.7355000e+01	  -5.5028929e-02	   2.0758955e-01	
   4.7410000e+01	  -5.1329736e-02	   2.0623964e-01	
   4.7465000e+01	  -4.8014853e-02	   2.0476493e-01	
   4.7520000e+01	  -4.4956889e-02	   2.0324241e-01	
   4.7575000e+01	  -4.2014566e-02	   2.0175612e-01	
   4.7630000e+01	  -3.9044514e-02	   2.0038886e-01	
   4.7685000e+01	  -3.5914085e-02	   1.9921277e-01	
   4.7740000e+01	  -3.2514264e-02	   1.9828021e-01	
   4.7795000e+01	  -2.8771040e-02	   1.9761656e-01	
   4.7850000e+01	  -2.4653303e-02	   1.9721586e-01	
   4.7905000e+01	  -2.0175641e-02	   1.9704010e-01	
   4.7960000e+01	  -1.5395138e-02	   1.9702271e-01	
   4.8015000e+01	  -1.0402730e-02	   1.9707613e-01	
   4.8070000e+01	  -5.3110858e-03	   1.9710192e-01	
   4.8125000e+01	  -2.4154048e-04	   1.9700169e-01	
   4.8180000e+01	   4.6877175e-03	   1.9668705e-01	
   4.8235000e+01	   9.3706041e-03	   1.9608738e-01	
   4.8290000e+01	   1.3718134e-02	   1.9515364e-01	
   4.8345000e+01	   1.7659012e-02	   1.9385759e-01	
   4.8400000e+01	   2.1136673e-02	   1.9218687e-01	
   4.8455000e+01	   2.4105165e-02	   1.9013875e-01	
   4.8510000e+01	   2.6526426e-02	   1.8771534e-01	
   4.8565000e+01	   2.8370113e-02	   1.8492172e-01	
   4.8620000e+01	   2.9616030e-02	   1.8176684e-01	
   4.8675000e+01	   3.0259130e-02	   1.7826685e-01	
   4.8730000e+01	   3.0316439e-02	   1.7445000e-01	
   4.8785000e+01	   2.9833606e-02	   1.7036141e-01	
   4.8840000e+01	   2.8888137e-02	   1.6606596e-01	
   4.8895000e+01	   2.7587759e-02	   1.6164871e-01	
   4.8950000e+01	   2.6064148e-02	   1.5721268e-01	
   4.9005000e+01	   2.4462771e-02	   1.5287373e-01	
   4.9060000e+01	   2.2929879e-02	   1.4875266e-01	
   4.9115000e+01	   2.1598581e-02	   1.4496560e-01	
   4.9170000e+01	   2.0576380e-02	   1.4161395e-01	
   4.9225000e+01	   1.9935448e-02	   1.3877477e-01	
   4.9280000e+01	   1.9706026e-02	   1.3649243e-01	
   4.9335000e+01	   1.9873692e-02	   1.3477350e-01	
   4.9390000e+01	   2.0381761e-02	   1.3358588e-01	
   4.9445000e+01	   2.1139779e-02	   1.3286288e-01	
   4.9500000e+01	   2.2038008e-02	   1.3251177e-01	
   4.9555000e+01	   2.2965978e-02	   1.3242613e-01	
   4.9610000e+01	   2.3831298e-02	   1.3249968e-01	
   4.9665000e+01	   2.4574094e-02	   1.3263863e-01	
   4.9720000e+01	   2.5174152e-02	   1.3277064e-01	
   4.9775000e+01	   2.5650703e-02	   1.3284963e-01	
   4.9830000e+01	   2.6056108e-02	   1.3285637e-01	
   4.9885000e+01	   2.6464453e-02	   1.3279423e-01	
   4.9940000e+01	   2.6956426e-02	   1.3268073e-01	
   4.9995000e+01	   2.7602831e-02	   1.3253696e-01	
   5.0050000e+01	   2.8448726e-02	   1.3237672e-01	
   5.0105000e+01	   2.9499654e-02	   1.3219653e-01	
   5.0160000e+01	   3.0712687e-02	   1.3196826e-01	
   5.0215000e+01	   3.1995935e-02	   1.3163692e-01	
   5.0270000e+01	   3.3217673e-02	   1.3112504e-01	
   5.0325000e+01	   3.4222391e-02	   1.3034252e-01	
   5.0380000e+01	   3.4849634e-02	   1.2919954e-01	
   5.0435000e+01	   3.4952448e-02	   1.2761986e-01	
   5.0490000e+01	   3.4413113e-02	   1.2555188e-01	
   5.0545000e+01	   3.3154438e-02	   1.2297566e-01	
   5.0600000e+01	   3.1145466e-02	   1.1990537e-01	
   5.0655000e+01	   2.8401079e-02	   1.1638735e-01	
   5.0710000e+01	   2.4975490e-02	   1.1249373e-01	
   5.0765000e+01	   2.0950480e-02	   1.0831239e-01	
   5.0820000e+01	   1.6420401e-02	   1.0393486e-01	
   5.0875000e+01	   1.1476587e-02	   9.9444678e-02	
   5.0930000e+01	   6.1936841e-03	   9.4907263e-02	
   5.0985000e+01	   6.1994369e-04	   9.0362317e-02	
   5.1040000e+01	  -5.2269541e-03	   8.5819483e-02	
   5.1095000e+01	  -1.1357737e-02	   8.1258796e-02	
   5.1150000e+01	  -1.7803587e-02	   7.6636596e-02	
   5.1205000e+01	  -2.4604709e-02	   7.1895748e-02	
   5.1260000e+01	  -3.1798487e-02	   6.6977727e-02	
   5.1315000e+01	  -3.9409504e-02	   6.1834229e-02	
   5.1370000e+01	  -4.7442705e-02	   5.6436506e-02	
   5.1425000e+01	  -5.5880282e-02	   5.0781089e-02	
   5.1480000e+01	  -6.4682162e-02	   4.4891447e-02	
   5.1535000e+01	  -7.3789540e-02	   3.8816201e-02	
   5.1590000e+01	  -8.3131028e-02	   3.2624788e-02	
   5.1645000e+01	  -9.2630842e-02	   2.6400958e-02	
   5.1700000e+01	  -1.0221763e-01	   2.0234628e-02	
   5.1755000e+01	  -1.1183157e-01	   1.4213421e-02	
   5.1810000e+01	  -1.2142737e-01	   8.4158397e-03	
   5.1865000e+01	  -1.3097231e-01	   2.9080423e-03	
   5.1920000e+01	  -1.4044021e-01	  -2.2546559e-03	
   5.1975000e+01	  -1.4980311e-01	  -7.0222365e-03	
   5.2030000e+01	  -1.5902316e-01	  -1.1343080e-02	
   5.2085000e+01	  -1.6804809e-01	  -1.5159136e-02	
   5.2140000e+01	  -1.7681147e-01	  -1.8405146e-02	
   5.2195000e+01	  -1.8523695e-01	  -2.1011656e-02	
   5.2250000e+01	  -1.9324492e-01	  -2.2910673e-02	
   5.2305000e+01	  -2.0076074e-01	  -2.4043317e-02	
   5.2360000e+01	  -2.0772432e-01	  -2.4368715e-02	
   5.2415000e+01	  -2.1410007e-01	  -2.3872714e-02	
   5.2470000e+01	  -2.1988574e-01	  -2.2575113e-02	
   5.2525000e+01	  -2.2511818e-01	  -2.0534658e-02	
   5.2580000e+01	  -2.2987383e-01	  -1.7850482e-02	
   5.2635000e+01	  -2.3426160e-01	  -1.4657918e-02	
   5.2690000e+01	  -2.3840835e-01	  -1.1117817e-02	
   5.2745000e+01	  -2.4244044e-01	  -7.4012891e-03	
   5.2800000e+01	  -2.4646578e-01	  -3.6733093e-03	
   5.2855000e+01	  -2.5055999e-01	  -7.8145531e-05	
   5.2910000e+01	  -2.5475865e-01	   3.2712495e-03	
   5.2965000e+01	  -2.5905721e-01	   6.2983497e-03	
   5.3020000e+01	  -2.6341782e-01	   8.9624549e-03	
   5.3075000e+01	  -2.6778097e-01	   1.1253575e-02	
   5.3130000e+01	  -2.7207917e-01	   1.3184475e-02	
   5.3185000e+01	  -2.7625072e-01	   1.4781408e-02	
   5.3240000e+01	  -2.8025101e-01	   1.6074924e-02	
   5.3295000e+01	  -2.8406011e-01	   1.7091899e-02	
   5.3350000e+01	  -2.8768585e-01	   1.7849932e-02	
   5.3405000e+01	  -2.9116176e-01	   1.8355259e-02	
   5.3460000e+01	  -2.9453996e-01	   1.8605110e-02	
   5.3515000e+01	  -2.9788000e-01	   1.8594169e-02	
   5.3570000e+01	  -3.0123606e-01	   1.8323142e-02	
   5.3625000e+01	  -3.0464534e-01	   1.7806833e-02	
   5.3680000e+01	  -3.0812019e-01	   1.7079815e-02	
   5.3735000e+01	  -3.1164519e-01	   1.6198836e-02	
   5.3790000e+01	  -3.1517972e-01	   1.5241515e-02	
   5.3845000e+01	  -3.1866558e-01	   1.4301008e-02	
   5.3900000e+01	  -3.2203840e-01	   1.3476998e-02	
   5.3955000e+01	  -3.2524073e-01	   1.2864418e-02	
   5.4010000e+01	  -3.2823464e-01	   1.2541753e-02	
   5.4065000e+01	  -3.3101173e-01	   1.2560562e-02	
   5.4120000e+01	  -3.3359883e-01	   1.2937759e-02	
   5.4175000e+01	  -3.3605797e-01	   1.3652077e-02	
   5.4230000e+01	  -3.3847967e-01	   1.4645481e-02	
   5.4285000e+01	  -3.4097049e-01	   1.5829381e-02	
   5.4340000e+01	  -3.4363659e-01	   1.7094846e-02	
   5.4395000e+01	  -3.4656710e-01	   1.8325039e-02	
   5.4450000e+01	  -3.4982148e-01	   1.9407275e-02	
   5.4505000e+01	  -3.5342325e-01	   2.0242576e-02	
   5.4560000e+01	  -3.5735999e-01	   2.0751881e-02	
   5.4615000e+01	  -3.6158807e-01	   2.0878729e-02	
   5.4670000e+01	  -3.6604096e-01	   2.0588328e-02	
   5.4725000e+01	  -3.7064037e-01	   1.9863219e-02	
   5.4780000e+01	  -3.7530946e-01	   1.8696385e-02	
   5.4835000e+01	  -3.7998628e-01	   1.7083478e-02	
   5.4890000e+01	  -3.8463505e-01	   1.5015968e-02	
   5.4945000e+01	  -3.8925339e-01	   1.2476374e-02	
   5.5000000e+01	  -3.9387436e-01	   9.4362616e-03	
   5.5055000e+01	  -3.9856250e-01	   5.8579740e-03	
   5.5110000e+01	  -4.0340380e-01	   1.7005832e-03	
   5.5165000e+01	  -4.0849112e-01	  -3.0710658e-03	
   5.5220000e+01	  -4.1390847e-01	  -8.4765360e-03	
   5.5275000e+01	  -4.1971761e-01	  -1.4511087e-02	
   5.5330000e+01	  -4.2594891e-01	  -2.1139378e-02	
   5.5385000e+01	  -4.3259724e-01	  -2.8292930e-02	
   5.5440000e+01	  -4.3962288e-01	  -3.5872323e-02	
   5.5495000e+01	  -4.4695766e-01	  -4.3753897e-02	
   5.5550000e+01	  -4.5451496e-01	  -5.1799732e-02	
   5.5605000e+01	  -4.6220262e-01	  -5.9869616e-02	
   5.5660000e+01	  -4.6993659e-01	  -6.7833773e-02	
   5.5715000e+01	  -4.7765363e-01	  -7.5584501e-02	
   5.5770000e+01	  -4.8532046e-01	  -8.3044437e-02	
   5.5825000e+01	  -4.9293763e-01	  -9.0170000e-02	
   5.5880000e+01	  -5.0053683e-01	  -9.6949510e-02	
   5.5935000e+01	  -5.0817090e-01	  -1.0339623e-01	
   5.5990000e+01	  -5.1589846e-01	  -1.0953783e-01	
   5.6045000e+01	  -5.2376757e-01	  -1.1540504e-01	
   5.6100000e+01	  -5.3180307e-01	  -1.2102206e-01	
   5.6155000e+01	  -5.3999969e-01	  -1.2639968e-01	
   5.6210000e+01	  -5.4832038e-01	  -1.3153117e-01	
   5.6265000e+01	  -5.5669897e-01	  -1.3639098e-01	
   5.6320000e+01	  -5.6504629e-01	  -1.4093659e-01	
   5.6375000e+01	  -5.7325839e-01	  -1.4511268e-01	
   5.6430000e+01	  -5.8122552e-01	  -1.4885701e-01	
   5.6485000e+01	  -5.8884080e-01	  -1.5210738e-01	
   5.6540000e+01	  -5.9600766e-01	  -1.5480873e-01	
   5.6595000e+01	  -6.0264424e-01	  -1.5691878e-01	
   5.6650000e+01	  -6.0868254e-01	  -1.5841000e-01	
   5.6705000e+01	  -6.1406200e-01	  -1.5926715e-01	
   5.6760000e+01	  -6.1872019e-01	  -1.5948147e-01	
   5.6815000e+01	  -6.2258444e-01	  -1.5904351e-01	
   5.6870000e+01	  -6.2556704e-01	  -1.5793651e-01	
   5.6925000e+01	  -6.2756493e-01	  -1.5613246e-01	
   5.6980000e+01	  -6.2846365e-01	  -1.5359163e-01	
   5.7035000e+01	  -6.2814397e-01	  -1.5026555e-01	
   5.7090000e+01	  -6.2648926e-01	  -1.4610233e-01	
   5.7145000e+01	  -6.2339254e-01	  -1.4105346e-01	
   5.7200000e+01	  -6.1876320e-01	  -1.3508073e-01	
   5.7255000e+01	  -6.1253340e-01	  -1.2816192e-01	
   5.7310000e+01	  -6.0466204e-01	  -1.2029367e-01	
   5.7365000e+01	  -5.9513440e-01	  -1.1149077e-01	
   5.7420000e+01	  -5.8395751e-01	  -1.0178245e-01	
   5.7475000e+01	  -5.7115337e-01	  -9.1206630e-02	
   5.7530000e+01	  -5.5675178e-01	  -7.9803729e-02	
   5.7585000e+01	  -5.4078476e-01	  -6.7611224e-02	
   5.7640000e+01	  -5.2328336e-01	  -5.4660190e-02	
   5.7695000e+01	  -5.0427738e-01	  -4.0974037e-02	
   5.7750000e+01	  -4.8379747e-01	  -2.6569684e-02	
   5.7805000e+01	  -4.6187945e-01	  -1.1461547e-02	
   5.7860000e+01	  -4.3857045e-01	   4.3319976e-03	
   5.7915000e+01	  -4.1393493e-01	   2.0781384e-02	
   5.7970000e+01	  -3.8805808e-01	   3.7840094e-02	
   5.8025000e+01	  -3.6104436e-01	   5.5442275e-02	
   5.8080000e+01	  -3.3301115e-01	   7.3504781e-02	
   5.8135000e+01	  -3.0407847e-01	   9.1933132e-02	
   5.8190000e+01	  -2.7435794e-01	   1.1062948e-01	
   5.8245000e+01	  -2.4394451e-01	   1.2950056e-01	
   5.8300000e+01	  -2.1291332e-01	   1.4846419e-01	
   5.8355000e+01	  -1.8132164e-01	   1.6745369e-01	
   5.8410000e+01	  -1.4921382e-01	   1.8641930e-01	
   5.8465000e+01	  -1.1662870e-01	   2.0532632e-01	
   5.8520000e+01	  -8.3610137e-02	   2.2414989e-01	
   5.8575000e+01	  -5.0219766e-02	   2.4286721e-01	
   5.8630000e+01	  -1.6549752e-02	   2.6144923e-01	
   5.8685000e+01	   1.7267482e-02	   2.7985310e-01	
   5.8740000e+01	   5.1054783e-02	   2.9801688e-01	
   5.8795000e+01	   8.4593254e-02	   3.1585779e-01	
   5.8850000e+01	   1.1763381e-01	   3.3327516e-01	
   5.8905000e+01	   1.4991581e-01	   3.5015796e-01	
   5.8960000e+01	   1.8118862e-01	   3.6639491e-01	
   5.9015000e+01	   2.1123180e-01	   3.8188534e-01	
   5.9070000e+01	   2.3987145e-01	   3.9654938e-01	
   5.9125000e+01	   2.6699109e-01	   4.1033587e-01	
   5.9180000e+01	   2.9253564e-01	   4.2322624e-01	
   5.9235000e+01	   3.1650793e-01	   4.3523349e-01	
   5.9290000e+01	   3.3895874e-01	   4.4639678e-01	
   5.9345000e+01	   3.5997334e-01	   4.5677308e-01	
   5.9400000e+01	   3.7965636e-01	   4.6642750e-01	
   5.9455000e+01	   3.9811691e-01	   4.7542383e-01	
   5.9510000e+01	   4.1545513e-01	   4.8381598e-01	
   5.9565000e+01	   4.3175174e-01	   4.9164068e-01	
   5.9620000e+01	   4.4706195e-01	   4.9891196e-01	
   5.9675000e+01	   4.6141469e-01	   5.0561902e-01	
   5.9730000e+01	   4.7481772e-01	   5.1172879e-01	
   5.9785000e+01	   4.8726671e-01	   5.1719253e-01	
   5.9840000e+01	   4.9875538e-01	   5.2195441e-01	
   5.9895000e+01	   5.0928385e-01	   5.2596009e-01	
   5.9950000e+01	   5.1886443e-01	   5.2916449e-01	
   6.0005000e+01	   5.2752431e-01	   5.3153798e-01	
   6.0060000e+01	   5.3530503e-01	   5.3307032e-01	
   6.0115000e+01	   5.4225896e-01	   5.3377203e-01	
   6.0170000e+01	   5.4844420e-01	   5.3367320e-01	
   6.0225000e+01	   5.5391961e-01	   5.3281999e-01	
   6.0280000e+01	   5.5874083e-01	   5.3126949e-01	
   6.0335000e+01	   5.6295694e-01	   5.2908356e-01	
   6.0390000e+01	   5.6660682e-01	   5.2632238e-01	
   6.0445000e+01	   5.6971373e-01	   5.2303801e-01	
   6.0500000e+01	   5.7227931e-01	   5.1926899e-01	
   6.0555000e+01	   5.7428107e-01	   5.1503828e-01	
   6.0610000e+01	   5.7567637e-01	   5.1035553e-01	
   6.0665000e+01	   5.7641162e-01	   5.0522269e-01	
   6.0720000e+01	   5.7643303e-01	   4.9964039e-01	
   6.0775000e+01	   5.7569678e-01	   4.9361396e-01	
   6.0830000e+01	   5.7417776e-01	   4.8715812e-01	
   6.0885000e+01	   5.7187560e-01	   4.8029971e-01	
   6.0940000e+01	   5.6881615e-01	   4.7307787e-01	
   6.0995000e+01	   5.6504790e-01	   4.6554200e-01	
   6.1050000e+01	   5.6063504e-01	   4.5774780e-01	
   6.1105000e+01	   5.5564906e-01	   4.4975176e-01	
   6.1160000e+01	   5.5016043e-01	   4.4160497e-01	
   6.1215000e+01	   5.4423206e-01	   4.3334784e-01	
   6.1270000e+01	   5.3791617e-01	   4.2500752e-01	
   6.1325000e+01	   5.3125522e-01	   4.1659790e-01	
   6.1380000e+01	   5.2428657e-01	   4.0812249e-01	
   6.1435000e+01	   5.1705086e-01	   3.9957962e-01	
   6.1490000e+01	   5.0960281e-01	   3.9096941e-01	
   6.1545000e+01	   5.0202106e-01	   3.8230021e-01	
   6.1600000e+01	   4.9441340e-01	   3.7359293e-01	
   6.1655000e+01	   4.8691658e-01	   3.6488254e-01	
   6.1710000e+01	   4.7969125e-01	   3.5621685e-01	
   6.1765000e+01	   4.7291238e-01	   3.4765273e-01	
   6.1820000e+01	   4.6675505e-01	   3.3925014e-01	
   6.1875000e+01	   4.6137649e-01	   3.3106445e-01	
   6.1930000e+01	   4.5689716e-01	   3.2313830e-01	
   6.1985000e+01	   4.5338435e-01	   3.1549380e-01	
   6.2040000e+01	   4.5084087e-01	   3.0812649e-01	
   6.2095000e+01	   4.4920082e-01	   3.0100240e-01	
   6.2150000e+01	   4.4833374e-01	   2.9405973e-01	
   6.2205000e+01	   4.4805664e-01	   2.8721552e-01	
   6.2260000e+01	   4.4815199e-01	   2.8037647e-01	
   6.2315000e+01	   4.4838821e-01	   2.7345180e-01	
   6.2370000e+01	   4.4854041e-01	   2.6636552e-01	
   6.2425000e+01	   4.4840817e-01	   2.5906588e-01	
   6.2480000e+01	   4.4782840e-01	   2.5153010e-01	
   6.2535000e+01	   4.4668165e-01	   2.4376416e-01	
   6.2590000e+01	   4.4489190e-01	   2.3579800e-01	
   6.2645000e+01	   4.4241968e-01	   2.2767670e-01	
   6.2700000e+01	   4.3924991e-01	   2.1944880e-01	
   6.2755000e+01	   4.3537784e-01	   2.1115419e-01	
   6.2810000e+01	   4.3079636e-01	   2.0281404e-01	
   6.2865000e+01	   4.2548564e-01	   1.9442355e-01	
   6.2920000e+01	   4.1940626e-01	   1.8594798e-01	
   6.2975000e+01	   4.1249751e-01	   1.7732278e-01	
   6.3030000e+01	   4.0468273e-01	   1.6845884e-01	
   6.3085000e+01	   3.9588112e-01	   1.5925263e-01	
   6.3140000e+01	   3.8602367e-01	   1.4959996e-01	
   6.3195000e+01	   3.7506927e-01	   1.3941116e-01	
   6.3250000e+01	   3.6301751e-01	   1.2862498e-01	
   6.3305000e+01	   3.4991524e-01	   1.1721888e-01	
   6.3360000e+01	   3.3585587e-01	   1.0521390e-01	
   6.3415000e+01	   3.2097149e-01	   9.2674079e-02	
   6.3470000e+01	   3.0541912e-01	   7.9700763e-02	
   6.3525000e+01	   2.8936397e-01	   6.6422927e-02	
   6.3580000e+01	   2.7296299e-01	   5.2984510e-02	
   6.3635000e+01	   2.5635127e-01	   3.9530791e-02	
   6.3690000e+01	   2.3963175e-01	   2.6195637e-02	
   6.3745000e+01	   2.2286712e-01	   1.3090673e-02	
   6.3800000e+01	   2.0607422e-01	   2.9699980e-04	
   6.3855000e+01	   1.8922346e-01	  -1.2139400e-02	
   6.3910000e+01	   1.7224585e-01	  -2.4207608e-02	
   6.3965000e+01	   1.5504749e-01	  -3.5927085e-02	
   6.4020000e+01	   1.3752884e-01	  -4.7339334e-02	
   6.4075000e+01	   1.1960439e-01	  -5.8497387e-02	
   6.4130000e+01	   1.0121915e-01	  -6.9455073e-02	
   6.4185000e+01	   8.2359384e-02	  -8.0258131e-02	
   6.4240000e+01	   6.3056440e-02	  -9.0938311e-02	
   6.4295000e+01	   4.3384015e-02	  -1.0151078e-01	
   6.4350000e+01	   2.3449894e-02	  -1.1197501e-01	
   6.4405000e+01	   3.3836589e-03	  -1.2231934e-01	
   6.4460000e+01	  -1.6677749e-02	  -1.3252806e-01	
   6.4515000e+01	  -3.6604199e-02	  -1.4258916e-01	
   6.4570000e+01	  -5.6283799e-02	  -1.5250098e-01	
   6.4625000e+01	  -7.5629479e-02	  -1.6227607e-01	
   6.4680000e+01	  -9.4579435e-02	  -1.7194123e-01	
   6.4735000e+01	  -1.1309171e-01	  -1.8153281e-01	
   6.4790000e+01	  -1.3113523e-01	  -1.9108858e-01	
   6.4845000e+01	  -1.4868060e-01	  -2.0063857e-01	
   6.4900000e+01	  -1.6569304e-01	  -2.1019762e-01	
   6.4955000e+01	  -1.8212916e-01	  -2.1976088e-01	
   6.5010000e+01	  -1.9793801e-01	  -2.2930237e-01	
   6.5065000e+01	  -2.1306641e-01	  -2.3877651e-01	
   6.5120000e+01	  -2.2746631e-01	  -2.4812223e-01	
   6.5175000e+01	  -2.4110209e-01	  -2.5726894e-01	
   6.5230000e+01	  -2.5395673e-01	  -2.6614356e-01	
   6.5285000e+01	  -2.6603737e-01	  -2.7467850e-01	
   6.5340000e+01	  -2.7738049e-01	  -2.8282030e-01	
   6.5395000e+01	  -2.8805460e-01	  -2.9053676e-01	
   6.5450000e+01	  -2.9815772e-01	  -2.9782018e-01	
   6.5505000e+01	  -3.0780778e-01	  -3.0468498e-01	
   6.5560000e+01	  -3.1712666e-01	  -3.1115986e-01	
   6.5615000e+01	  -3.2622112e-01	  -3.1727615e-01	
   6.5670000e+01	  -3.3516552e-01	  -3.2305579e-01	
   6.5725000e+01	  -3.4399133e-01	  -3.2850241e-01	
   6.5780000e+01	  -3.5268538e-01	  -3.3359767e-01	
   6.5835000e+01	  -3.6119552e-01	  -3.3830270e-01	
   6.5890000e+01	  -3.6944106e-01	  -3.4256321e-01	
   6.5945000e+01	  -3.7732694e-01	  -3.4631723e-01	
   6.6000000e+01	  -3.8476040e-01	  -3.4950476e-01	
   6.6055000e+01	  -3.9166815e-01	  -3.5207802e-01	
   6.6110000e+01	  -3.9801062e-01	  -3.5401058e-01	
   6.6165000e+01	  -4.0379172e-01	  -3.5530512e-01	
   6.6220000e+01	  -4.0906354e-01	  -3.5599905e-01	
   6.6275000e+01	  -4.1392544e-01	  -3.5616712e-01	
   6.6330000e+01	  -4.1851624e-01	  -3.5591916e-01	
   6.6385000e+01	  -4.2299946e-01	  -3.5539222e-01	
   6.6440000e+01	  -4.2754334e-01	  -3.5473769e-01	
   6.6495000e+01	  -4.3229910e-01	  -3.5410510e-01	
   6.6550000e+01	  -4.3738160e-01	  -3.5362559e-01	
   6.6605000e+01	  -4.4285627e-01	  -3.5339793e-01	
   6.6660000e+01	  -4.4873385e-01	  -3.5347924e-01	
   6.6715000e+01	  -4.5497269e-01	  -3.5388125e-01	
   6.6770000e+01	  -4.6148711e-01	  -3.5457204e-01	
   6.6825000e+01	  -4.6815998e-01	  -3.5548283e-01	
   6.6880000e+01	  -4.7485750e-01	  -3.5651831e-01	
   6.6935000e+01	  -4.8144432e-01	  -3.5756922e-01	
   6.6990000e+01	  -4.8779793e-01	  -3.5852584e-01	
   6.7045000e+01	  -4.9382184e-01	  -3.5929168e-01	
   6.7100000e+01	  -4.9945572e-01	  -3.5979584e-01	
   6.7155000e+01	  -5.0467968e-01	  -3.6000197e-01	
   6.7210000e+01	  -5.0951054e-01	  -3.5991207e-01	
   6.7265000e+01	  -5.1399143e-01	  -3.5956451e-01	
   6.7320000e+01	  -5.1817719e-01	  -3.5902620e-01	
   6.7375000e+01	  -5.2211876e-01	  -3.5838071e-01	
   6.7430000e+01	  -5.2585036e-01	  -3.5771505e-01	
   6.7485000e+01	  -5.2938229e-01	  -3.5710852e-01	
   6.7540000e+01	  -5.3270051e-01	  -3.5662518e-01	
   6.7595000e+01	  -5.3577071e-01	  -3.5630944e-01	
   6.7650000e+01	  -5.3854476e-01	  -3.5618400e-01	
   6.7705000e+01	  -5.4096838e-01	  -3.5625019e-01	
   6.7760000e+01	  -5.4298954e-01	  -3.5649094e-01	
   6.7815000e+01	  -5.4456674e-01	  -3.5687546e-01	
   6.7870000e+01	  -5.4567548e-01	  -3.5736461e-01	
   6.7925000e+01	  -5.4631172e-01	  -3.5791611e-01	
   6.7980000e+01	  -5.4649091e-01	  -3.5848834e-01	
   6.8035000e+01	  -5.4624176e-01	  -3.5904129e-01	
   6.8090000e+01	  -5.4559489e-01	  -3.5953422e-01	
   6.8145000e+01	  -5.4456857e-01	  -3.5992095e-01	
   6.8200000e+01	  -5.4315528e-01	  -3.6014444e-01	
   6.8255000e+01	  -5.4131280e-01	  -3.6013249e-01	
   6.8310000e+01	  -5.3896134e-01	  -3.5979572e-01	
   6.8365000e+01	  -5.3598609e-01	  -3.5902875e-01	
   6.8420000e+01	  -5.3224452e-01	  -3.5771483e-01	
   6.8475000e+01	  -5.2757791e-01	  -3.5573384e-01	
   6.8530000e+01	  -5.2182590e-01	  -3.5297295e-01	
   6.8585000e+01	  -5.1484256e-01	  -3.4933888e-01	
   6.8640000e+01	  -5.0651251e-01	  -3.4476980e-01	
   6.8695000e+01	  -4.9676483e-01	  -3.3924389e-01	
   6.8750000e+01	  -4.8558111e-01	  -3.3278308e-01	
   6.8805000e+01	  -4.7299616e-01	  -3.2545158e-01	
   6.8860000e+01	  -4.5909112e-01	  -3.1734963e-01	
   6.8915000e+01	  -4.4398075e-01	  -3.0860283e-01	
   6.8970000e+01	  -4.2779773e-01	  -2.9934878e-01	
   6.9025000e+01	  -4.1067833e-01	  -2.8972409e-01	
   6.9080000e+01	  -3.9275282e-01	  -2.7985405e-01	
   6.9135000e+01	  -3.7414151e-01	  -2.6984542e-01	
   6.9190000e+01	  -3.5495528e-01	  -2.5978231e-01	
   6.9245000e+01	  -3.3529998e-01	  -2.4972542e-01	
   6.9300000e+01	  -3.1528409e-01	  -2.3971503e-01	
   6.9355000e+01	  -2.9502843e-01	  -2.2977749e-01	
   6.9410000e+01	  -2.7467678e-01	  -2.1993423e-01	
   6.9465000e+01	  -2.5440549e-01	  -2.1021193e-01	
   6.9520000e+01	  -2.3442939e-01	  -2.0065168e-01	
   6.9575000e+01	  -2.1500040e-01	  -1.9131491e-01	
   6.9630000e+01	  -1.9639714e-01	  -1.8228432e-01	
   6.9685000e+01	  -1.7890618e-01	  -1.7365872e-01	
   6.9740000e+01	  -1.6279881e-01	  -1.6554247e-01	
   6.9795000e+01	  -1.4830793e-01	  -1.5803202e-01	
   6.9850000e+01	  -1.3560884e-01	  -1.5120289e-01	
   6.9905000e+01	  -1.2480669e-01	  -1.4509995e-01	
   6.9960000e+01	  -1.1593064e-01	  -1.3973161e-01	
   7.0015000e+01	  -1.0893402e-01	  -1.3506817e-01	
   7.0070000e+01	  -1.0369943e-01	  -1.3104420e-01	
   7.0125000e+01	  -1.0004900e-01	  -1.2756484e-01	
   7.0180000e+01	  -9.7759660e-02	  -1.2451519e-01	
   7.0235000e+01	  -9.6581406e-02	  -1.2177130e-01	
   7.0290000e+01	  -9.6256626e-02	  -1.1921179e-01	
   7.0345000e+01	  -9.6539758e-02	  -1.1672944e-01	
   7.0400000e+01	  -9.7215714e-02	  -1.1424152e-01	
   7.0455000e+01	  -9.8114145e-02	  -1.1169695e-01	
   7.0510000e+01	  -9.9116615e-02	  -1.0907894e-01	
   7.0565000e+01	  -1.0015505e-01	  -1.0640239e-01	
   7.0620000e+01	  -1.0120187e-01	  -1.0370587e-01	
   7.0675000e+01	  -1.0225492e-01	  -1.0104039e-01	
   7.0730000e+01	  -1.0332176e-01	  -9.8457598e-02	
   7.0785000e+01	  -1.0440675e-01	  -9.5999990e-02	
   7.0840000e+01	  -1.0550176e-01	  -9.3693833e-02	
   7.0895000e+01	  -1.0658041e-01	  -9.1545251e-02	
   7.0950000e+01	  -1.0759608e-01	  -8.9539794e-02	
   7.1005000e+01	  -1.0848413e-01	  -8.7645303e-02	
   7.1060000e+01	  -1.0916755e-01	  -8.5817102e-02	
   7.1115000e+01	  -1.0956470e-01	  -8.4004523e-02	
   7.1170000e+01	  -1.0959756e-01	  -8.2158320e-02	
   7.1225000e+01	  -1.0919995e-01	  -8.0238255e-02	
   7.1280000e+01	  -1.0832473e-01	  -7.8219089e-02	
   7.1335000e+01	  -1.0694771e-01	  -7.6092829e-02	
   7.1390000e+01	  -1.0506564e-01	  -7.3866266e-02	
   7.1445000e+01	  -1.0268842e-01	  -7.1554471e-02	
   7.1500000e+01	  -9.9828785e-02	  -6.9172238e-02	
   7.1555000e+01	  -9.6493582e-02	  -6.6726130e-02	
   7.1610000e+01	  -9.2679459e-02	  -6.4209515e-02	
   7.1665000e+01	  -8.8373286e-02	  -6.1601689e-02	
   7.1720000e+01	  -8.3555221e-02	  -5.8870644e-02	
   7.1775000e+01	  -7.8202187e-02	  -5.5978363e-02	
   7.1830000e+01	  -7.2291443e-02	  -5.2887806e-02	
   7.1885000e+01	  -6.5805284e-02	  -4.9571028e-02	
   7.1940000e+01	  -5.8737373e-02	  -4.6017709e-02	
   7.1995000e+01	  -5.1100452e-02	  -4.2243269e-02	
   7.2050000e+01	  -4.2934934e-02	  -3.8295573e-02	
   7.2105000e+01	  -3.4316614e-02	  -3.4258476e-02	
   7.2160000e+01	  -2.5359765e-02	  -3.0249741e-02	
   7.2215000e+01	  -1.6212353e-02	  -2.6411844e-02	
   7.2270000e+01	  -7.0436206e-03	  -2.2896910e-02	
   7.2325000e+01	   1.9726215e-03	  -1.9849073e-02	
   7.2380000e+01	   1.0675466e-02	  -1.7387492e-02	
   7.2435000e+01	   1.8932556e-02	  -1.5592421e-02	
   7.2490000e+01	   2.6651641e-02	  -1.4496172e-02	
   7.2545000e+01	   3.3786339e-02	  -1.4080147e-02	
   7.2600000e+01	   4.0336014e-02	  -1.4277968e-02	
   7.2655000e+01	   4.6340252e-02	  -1.4983730e-02	
   7.2710000e+01	   5.1868228e-02	  -1.6064000e-02	
   7.2765000e+01	   5.7004089e-02	  -1.7371828e-02	
   7.2820000e+01	   6.1830904e-02	  -1.8760909e-02	
   7.2875000e+01	   6.6415300e-02	  -2.0098712e-02	
   7.2930000e+01	   7.0793581e-02	  -2.1278430e-02	
   7.2985000e+01	   7.4960102e-02	  -2.2229453e-02	
   7.3040000e+01	   7.8860530e-02	  -2.2924564e-02	
   7.3095000e+01	   8.2393275e-02	  -2.3381310e-02	
   7.3150000e+01	   8.5420019e-02	  -2.3656362e-02	
   7.3205000e+01	   8.7782679e-02	  -2.3833848e-02	
   7.3260000e+01	   8.9322677e-02	  -2.4010029e-02	
   7.3315000e+01	   8.9899347e-02	  -2.4277323e-02	
   7.3370000e+01	   8.9405474e-02	  -2.4710582e-02	
   7.3425000e+01	   8.7778270e-02	  -2.5357314e-02	
   7.3480000e+01	   8.5004490e-02	  -2.6232618e-02	
   7.3535000e+01	   8.1119128e-02	  -2.7319544e-02	
   7.3590000e+01	   7.6198071e-02	  -2.8575012e-02	
   7.3645000e+01	   7.0346550e-02	  -2.9939615e-02	
   7.3700000e+01	   6.3686231e-02	  -3.1348541e-02	
   7.3755000e+01	   5.6342984e-02	  -3.2741671e-02	
   7.3810000e+01	   4.8435975e-02	  -3.4072166e-02	
   7.3865000e+01	   4.0068785e-02	  -3.5313067e-02	
   7.3920000e+01	   3.1324077e-02	  -3.6461045e-02	
   7.3975000e+01	   2.2263246e-02	  -3.7536527e-02	
   7.4030000e+01	   1.2931624e-02	  -3.8579685e-02	
   7.4085000e+01	   3.3688286e-03	  -3.9642128e-02	
   7.4140000e+01	  -6.3775096e-03	  -4.0775333e-02	
   7.4195000e+01	  -1.6237572e-02	  -4.2018633e-02	
   7.4250000e+01	  -2.6108072e-02	  -4.3389863e-02	
   7.4305000e+01	  -3.5846592e-02	  -4.4880104e-02	
   7.4360000e+01	  -4.5272733e-02	  -4.6452232e-02	
   7.4415000e+01	  -5.4175792e-02	  -4.8042921e-02	
   7.4470000e+01	  -6.2327964e-02	  -4.9568069e-02	
   7.4525000e+01	  -6.9501539e-02	  -5.0931195e-02	
   7.4580000e+01	  -7.5487866e-02	  -5.2033703e-02	
   7.4635000e+01	  -8.0115288e-02	  -5.2785691e-02	
   7.4690000e+01	  -8.3262992e-02	  -5.3115662e-02	
   7.4745000e+01	  -8.4867749e-02	  -5.2976783e-02	
   7.4800000e+01	  -8.4921642e-02	  -5.2347822e-02	
   7.4855000e+01	  -8.3461632e-02	  -5.1228813e-02	
   7.4910000e+01	  -8.0554398e-02	  -4.9633458e-02	
   7.4965000e+01	  -7.6280562e-02	  -4.7581014e-02	
   7.5020000e+01	  -7.0721801e-02	  -4.5090036e-02	
   7.5075000e+01	  -6.3953555e-02	  -4.2175172e-02	
   7.5130000e+01	  -5.6044091e-02	  -3.8846867e-02	
   7.5185000e+01	  -4.7058172e-02	  -3.5113248e-02	
   7.5240000e+01	  -3.7062605e-02	  -3.0983448e-02	
   7.5295000e+01	  -2.6132165e-02	  -2.6471749e-02	
   7.5350000e+01	  -1.4355441e-02	  -2.1601995e-02	
   7.5405000e+01	  -1.8398063e-03	  -1.6411432e-02	
   7.5460000e+01	   1.1286026e-02	  -1.0952849e-02	
   7.5515000e+01	   2.4873421e-02	  -5.2939438e-03	
   7.5570000e+01	   3.8760307e-02	   4.8700038e-04	
   7.5625000e+01	   5.2782851e-02	   6.3094749e-03	
   7.5680000e+01	   6.6790755e-02	   1.2101865e-02	
   7.5735000e+01	   8.0662973e-02	   1.7812234e-02	
   7.5790000e+01	   9.4320423e-02	   2.3415683e-02	
   7.5845000e+01	   1.0773314e-01	   2.8917088e-02	
   7.5900000e+01	   1.2092061e-01	   3.4349906e-02	
   7.5955000e+01	   1.3394543e-01	   3.9772178e-02	
   7.6010000e+01	   1.4690148e-01	   4.5260385e-02	
   7.6065000e+01	   1.5989910e-01	   5.0901572e-02	
   7.6120000e+01	   1.7304971e-01	   5.6784096e-02	
   7.6175000e+01	   1.8645126e-01	   6.2987558e-02	
   7.6230000e+01	   2.0017464e-01	   6.9572792e-02	
   7.6285000e+01	   2.1425148e-01	   7.6573149e-02	
   7.6340000e+01	   2.2866578e-01	   8.3988438e-02	
   7.6395000e+01	   2.4335207e-01	   9.1782793e-02	
   7.6450000e+01	   2.5820169e-01	   9.9887608e-02	
   7.6505000e+01	   2.7307622e-01	   1.0820967e-01	
   7.6560000e+01	   2.8782559e-01	   1.1664296e-01	
   7.6615000e+01	   3.0230689e-01	   1.2508113e-01	
   7.6670000e+01	   3.1640023e-01	   1.3342812e-01	
   7.6725000e+01	   3.3001925e-01	   1.4160540e-01	
   7.6780000e+01	   3.4311616e-01	   1.4955565e-01	
   7.6835000e+01	   3.5568174e-01	   1.5724267e-01	
   7.6890000e+01	   3.6774014e-01	   1.6464806e-01	
   7.6945000e+01	   3.7933856e-01	   1.7176554e-01	
   7.7000000e+01	   3.9053344e-01	   1.7859407e-01	
   7.7055000e+01	   4.0137605e-01	   1.8513047e-01	
   7.7110000e+01	   4.1189955e-01	   1.9136232e-01	
   7.7165000e+01	   4.2210909e-01	   1.9726281e-01	
   7.7220000e+01	   4.3197646e-01	   2.0278916e-01	
   7.7275000e+01	   4.4144064e-01	   2.0788540e-01	
   7.7330000e+01	   4.5041487e-01	   2.1248938e-01	
   7.7385000e+01	   4.5879966e-01	   2.1654340e-01	
   7.7440000e+01	   4.6649948e-01	   2.2000643e-01	
   7.7495000e+01	   4.7343920e-01	   2.2286476e-01	
   7.7550000e+01	   4.7957647e-01	   2.2513870e-01	
   7.7605000e+01	   4.8490819e-01	   2.2688395e-01	
   7.7660000e+01	   4.8947069e-01	   2.2818782e-01	
   7.7715000e+01	   4.9333369e-01	   2.2916063e-01	
   7.7770000e+01	   4.9658872e-01	   2.2992407e-01	
   7.7825000e+01	   4.9933347e-01	   2.3059855e-01	
   7.7880000e+01	   5.0165534e-01	   2.3129179e-01	
   7.7935000e+01	   5.0361709e-01	   2.3208941e-01	
   7.7990000e+01	   5.0524671e-01	   2.3304824e-01	
   7.8045000e+01	   5.0653373e-01	   2.3419317e-01	
   7.8100000e+01	   5.0743300e-01	   2.3551814e-01	
   7.8155000e+01	   5.0787497e-01	   2.3699125e-01	
   7.8210000e+01	   5.0777930e-01	   2.3856257e-01	
   7.8265000e+01	   5.0706861e-01	   2.4017327e-01	
   7.8320000e+01	   5.0568077e-01	   2.4176391e-01	
   7.8375000e+01	   5.0357887e-01	   2.4328083e-01	
   7.8430000e+01	   5.0075782e-01	   2.4467971e-01	
   7.8485000e+01	   4.9724680e-01	   2.4592700e-01	
   7.8540000e+01	   4.9310741e-01	   2.4699929e-01	
   7.8595000e+01	   4.8842811e-01	   2.4788098e-01	
   7.8650000e+01	   4.8331659e-01	   2.4856048e-01	
   7.8705000e+01	   4.7789162e-01	   2.4902669e-01	
   7.8760000e+01	   4.7227444e-01	   2.4926628e-01	
   7.8815000e+01	   4.6658027e-01	   2.4926258e-01	
   7.8870000e+01	   4.6091222e-01	   2.4899681e-01	
   7.8925000e+01	   4.5536017e-01	   2.4845278e-01	
   7.8980000e+01	   4.5000492e-01	   2.4762394e-01	
   7.9035000e+01	   4.4492472e-01	   2.4652047e-01	
   7.9090000e+01	   4.4020119e-01	   2.4517467e-01	
   7.9145000e+01	   4.3592198e-01	   2.4364307e-01	
   7.9200000e+01	   4.3217841e-01	   2.4200443e-01	
   7.9255000e+01	   4.2905809e-01	   2.4035353e-01	
   7.9310000e+01	   4.2663447e-01	   2.3879249e-01	
   7.9365000e+01	   4.2495612e-01	   2.3742120e-01	
   7.9420000e+01	   4.2403690e-01	   2.3632781e-01	
   7.9475000e+01	   4.2384761e-01	   2.3557963e-01	
   7.9530000e+01	   4.2430990e-01	   2.3521501e-01	
   7.9585000e+01	   4.2529437e-01	   2.3523794e-01	
   7.9640000e+01	   4.2662571e-01	   2.3561706e-01	
   7.9695000e+01	   4.2809646e-01	   2.3629015e-01	
   7.9750000e+01	   4.2948815e-01	   2.3717361e-01	
   7.9805000e+01	   4.3059481e-01	   2.3817447e-01	
   7.9860000e+01	   4.3124268e-01	   2.3920123e-01	
   7.9915000e+01	   4.3130176e-01	   2.4017153e-01	
   7.9970000e+01	   4.3068890e-01	   2.4101594e-01	
   8.0025000e+01	   4.2936462e-01	   2.4167904e-01	
   8.0080000e+01	   4.2732651e-01	   2.4211849e-01	
   8.0135000e+01	   4.2460092e-01	   2.4230266e-01	
   8.0190000e+01	   4.2123433e-01	   2.4220754e-01	
   8.0245000e+01	   4.1728463e-01	   2.4181329e-01	
   8.0300000e+01	   4.1281258e-01	   2.4110100e-01	
   8.0355000e+01	   4.0787371e-01	   2.4004942e-01	
   8.0410000e+01	   4.0251307e-01	   2.3863299e-01	
   8.0465000e+01	   3.9676494e-01	   2.3682224e-01	
   8.0520000e+01	   3.9065831e-01	   2.3458713e-01	
   8.0575000e+01	   3.8422579e-01	   2.3190250e-01	
   8.0630000e+01	   3.7751269e-01	   2.2875473e-01	
   8.0685000e+01	   3.7058317e-01	   2.2514802e-01	
   8.0740000e+01	   3.6352230e-01	   2.2110928e-01	
   8.0795000e+01	   3.5643451e-01	   2.1669065e-01	
   8.0850000e+01	   3.4943959e-01	   2.1196931e-01	
   8.0905000e+01	   3.4266681e-01	   2.0704398e-01	
   8.0960000e+01	   3.3624636e-01	   2.0202775e-01	
   8.1015000e+01	   3.3029807e-01	   1.9703750e-01	
   8.1070000e+01	   3.2491925e-01	   1.9218193e-01	
   8.1125000e+01	   3.2017423e-01	   1.8755032e-01	
   8.1180000e+01	   3.1608675e-01	   1.8320313e-01	
   8.1235000e+01	   3.1263529e-01	   1.7916502e-01	
   8.1290000e+01	   3.0975297e-01	   1.7542226e-01	
   8.1345000e+01	   3.0733396e-01	   1.7192551e-01	
   8.1400000e+01	   3.0524630e-01	   1.6859772e-01	
   8.1455000e+01	   3.0334839e-01	   1.6534547e-01	
   8.1510000e+01	   3.0150625e-01	   1.6207231e-01	
   8.1565000e+01	   2.9960855e-01	   1.5869206e-01	
   8.1620000e+01	   2.9757680e-01	   1.5513975e-01	
   8.1675000e+01	   2.9536926e-01	   1.5137889e-01	
   8.1730000e+01	   2.9297923e-01	   1.4740464e-01	
   8.1785000e+01	   2.9042937e-01	   1.4324281e-01	
   8.1840000e+01	   2.8776347e-01	   1.3894434e-01	
   8.1895000e+01	   2.8503690e-01	   1.3457664e-01	
   8.1950000e+01	   2.8230725e-01	   1.3021334e-01	
   8.2005000e+01	   2.7962550e-01	   1.2592364e-01	
   8.2060000e+01	   2.7702809e-01	   1.2176264e-01	
   8.2115000e+01	   2.7453122e-01	   1.1776402e-01	
   8.2170000e+01	   2.7212943e-01	   1.1393727e-01	
   8.2225000e+01	   2.6979983e-01	   1.1027040e-01	
   8.2280000e+01	   2.6751128e-01	   1.0673764e-01	
   8.2335000e+01	   2.6523587e-01	   1.0330986e-01	
   8.2390000e+01	   2.6295941e-01	   9.9965120e-02	
   8.2445000e+01	   2.6068837e-01	   9.6696863e-02	
   8.2500000e+01	   2.5845143e-01	   9.3518115e-02	
   8.2555000e+01	   2.5629571e-01	   9.0461137e-02	
   8.2610000e+01	   2.5427922e-01	   8.7573294e-02	
   8.2665000e+01	   2.5246186e-01	   8.4910444e-02	
   8.2720000e+01	   2.5089638e-01	   8.2528644e-02	
   8.2775000e+01	   2.4962023e-01	   8.0475007e-02	
   8.2830000e+01	   2.4864939e-01	   7.8779193e-02	
   8.2885000e+01	   2.4797491e-01	   7.7447313e-02	
   8.2940000e+01	   2.4756366e-01	   7.6459836e-02	
   8.2995000e+01	   2.4736391e-01	   7.5774656e-02	
   8.3050000e+01	   2.4731477e-01	   7.5335258e-02	
   8.3105000e+01	   2.4735734e-01	   7.5081999e-02	
   8.3160000e+01	   2.4744496e-01	   7.4963199e-02	
   8.3215000e+01	   2.4755114e-01	   7.4943220e-02	
   8.3270000e+01	   2.4767415e-01	   7.5006084e-02	
   8.3325000e+01	   2.4783837e-01	   7.5154539e-02	
   8.3380000e+01	   2.4809148e-01	   7.5405395e-02	
   8.3435000e+01	   2.4849716e-01	   7.5782518e-02	
   8.3490000e+01	   2.4912385e-01	   7.6308841e-02	
   8.3545000e+01	   2.5003140e-01	   7.6998188e-02	
   8.3600000e+01	   2.5125782e-01	   7.7847361e-02	
   8.3655000e+01	   2.5280835e-01	   7.8829188e-02	
   8.3710000e+01	   2.5464867e-01	   7.9888137e-02	
   8.3765000e+01	   2.5670484e-01	   8.0940593e-02	
   8.3820000e+01	   2.5887126e-01	   8.1880961e-02	
   8.3875000e+01	   2.6102491e-01	   8.2592617e-02	
   8.3930000e+01	   2.6304202e-01	   8.2960983e-02	
   8.3985000e+01	   2.6481307e-01	   8.2885543e-02	
   8.4040000e+01	   2.6625331e-01	   8.2288523e-02	
   8.4095000e+01	   2.6730773e-01	   8.1119483e-02	
   8.4150000e+01	   2.6795084e-01	   7.9356195e-02	
   8.4205000e+01	   2.6818203e-01	   7.7002288e-02	
   8.4260000e+01	   2.6801748e-01	   7.4082027e-02	
   8.4315000e+01	   2.6748002e-01	   7.0632967e-02	
   8.4370000e+01	   2.6658785e-01	   6.6697465e-02	
   8.4425000e+01	   2.6534264e-01	   6.2313793e-02	
   8.4480000e+01	   2.6371741e-01	   5.7507419e-02	
   8.4535000e+01	   2.6164678e-01	   5.2283626e-02	
   8.4590000e+01	   2.5902379e-01	   4.6623501e-02	
   8.4645000e+01	   2.5570628e-01	   4.0485134e-02	
   8.4700000e+01	   2.5153198e-01	   3.3810427e-02	
   8.4755000e+01	   2.4633951e-01	   2.6536254e-02	
   8.4810000e+01	   2.3999153e-01	   1.8607506e-02	
   8.4865000e+01	   2.3239599e-01	   9.9890554e-03	
   8.4920000e+01	   2.2352091e-01	   6.7446120e-04	
   8.4975000e+01	   2.1340129e-01	  -9.3092098e-03	
   8.5030000e+01	   2.0213804e-01	  -1.9900329e-02	
   8.5085000e+01	   1.8988954e-01	  -3.1005705e-02	
   8.5140000e+01	   1.7685679e-01	  -4.2507843e-02	
   8.5195000e+01	   1.6326461e-01	  -5.4275417e-02	
   8.5250000e+01	   1.4934134e-01	  -6.6174805e-02	
   8.5305000e+01	   1.3529905e-01	  -7.8080898e-02	
   8.5360000e+01	   1.2131579e-01	  -8.9886226e-02	
   8.5415000e+01	   1.0752215e-01	  -1.0150765e-01	
   8.5470000e+01	   9.3994354e-02	  -1.1288986e-01	
   8.5525000e+01	   8.0755169e-02	  -1.2400485e-01	
   8.5580000e+01	   6.7783038e-02	  -1.3484695e-01	
   8.5635000e+01	   5.5027572e-02	  -1.4542388e-01	
   8.5690000e+01	   4.2427246e-02	  -1.5574646e-01	
   8.5745000e+01	   2.9924362e-02	  -1.6582009e-01	
   8.5800000e+01	   1.7474346e-02	  -1.7563965e-01	
   8.5855000e+01	   5.0493186e-03	  -1.8518754e-01	
   8.5910000e+01	  -7.3627343e-03	  -1.9443477e-01	
   8.5965000e+01	  -1.9762121e-02	  -2.0334476e-01	
   8.6020000e+01	  -3.2144090e-02	  -2.1187921e-01	
   8.6075000e+01	  -4.4506772e-02	  -2.2000501e-01	
   8.6130000e+01	  -5.6858688e-02	  -2.2770075e-01	
   8.6185000e+01	  -6.9223965e-02	  -2.3496151e-01	
   8.6240000e+01	  -8.1644058e-02	  -2.4180079e-01	
   8.6295000e+01	  -9.4175567e-02	  -2.4824868e-01	
   8.6350000e+01	  -1.0688384e-01	  -2.5434630e-01	
   8.6405000e+01	  -1.1983258e-01	  -2.6013733e-01	
   8.6460000e+01	  -1.3307105e-01	  -2.6565854e-01	
   8.6515000e+01	  -1.4662192e-01	  -2.7093119e-01	
   8.6570000e+01	  -1.6047294e-01	  -2.7595544e-01	
   8.6625000e+01	  -1.7457434e-01	  -2.8070901e-01	
   8.6680000e+01	  -1.8884203e-01	  -2.8515010e-01	
   8.6735000e+01	  -2.0316506e-01	  -2.8922384e-01	
   8.6790000e+01	  -2.1741582e-01	  -2.9287142e-01	
   8.6845000e+01	  -2.3146229e-01	  -2.9604119e-01	
   8.6900000e+01	  -2.4518100e-01	  -2.9869965e-01	
   8.6955000e+01	  -2.5846932e-01	  -3.0084043e-01	
   8.7010000e+01	  -2.7125550e-01	  -3.0249007e-01	
   8.7065000e+01	  -2.8350451e-01	  -3.0370961e-01	
   8.7120000e+01	  -2.9521703e-01	  -3.0459048e-01	
   8.7175000e+01	  -3.0642009e-01	  -3.0524370e-01	
   8.7230000e+01	  -3.1715162e-01	  -3.0578453e-01	
   8.7285000e+01	  -3.2744287e-01	  -3.0631596e-01	
   8.7340000e+01	  -3.3730229e-01	  -3.0691450e-01	
   8.7395000e+01	  -3.4670343e-01	  -3.0762011e-01	
   8.7450000e+01	  -3.5557880e-01	  -3.0843144e-01	
   8.7505000e+01	  -3.6382076e-01	  -3.0930659e-01	
   8.7560000e+01	  -3.7128962e-01	  -3.1016849e-01	
   8.7615000e+01	  -3.7782775e-01	  -3.1091420e-01	
   8.7670000e+01	  -3.8327770e-01	  -3.1142705e-01	
   8.7725000e+01	  -3.8750198e-01	  -3.1159058e-01	
   8.7780000e+01	  -3.9040239e-01	  -3.1130252e-01	
   8.7835000e+01	  -3.9193643e-01	  -3.1048708e-01	
   8.7890000e+01	  -3.9212769e-01	  -3.0910375e-01	
   8.7945000e+01	  -3.9106781e-01	  -3.0715164e-01	
   8.8000000e+01	  -3.8890887e-01	  -3.0466819e-01	
   8.8055000e+01	  -3.8584700e-01	  -3.0172195e-01	
   8.8110000e+01	  -3.8210035e-01	  -2.9840083e-01	
   8.8165000e+01	  -3.7788602e-01	  -2.9479866e-01	
   8.8220000e+01	  -3.7340016e-01	  -2.9100270e-01	
   8.8275000e+01	  -3.6880338e-01	  -2.8708350e-01	
   8.8330000e+01	  -3.6421215e-01	  -2.8308831e-01	
   8.8385000e+01	  -3.5969651e-01	  -2.7903837e-01	
   8.8440000e+01	  -3.5528375e-01	  -2.7493043e-01	
   8.8495000e+01	  -3.5096713e-01	  -2.7074163e-01	
   8.8550000e+01	  -3.4671805e-01	  -2.6643696e-01	
   8.8605000e+01	  -3.4250000e-01	  -2.6197884e-01	
   8.8660000e+01	  -3.3828195e-01	  -2.5733731e-01	
   8.8715000e+01	  -3.3404911e-01	  -2.5249888e-01	
   8.8770000e+01	  -3.2980927e-01	  -2.4747219e-01	
   8.8825000e+01	  -3.2559423e-01	  -2.4228978e-01	
   8.8880000e+01	  -3.2145524e-01	  -2.3700501e-01	
   8.8935000e+01	  -3.1745331e-01	  -2.3168451e-01	
   8.8990000e+01	  -3.1364701e-01	  -2.2639783e-01	
   8.9045000e+01	  -3.1008084e-01	  -2.2120693e-01	
   8.9100000e+01	  -3.0677684e-01	  -2.1615754e-01	
   8.9155000e+01	  -3.0373079e-01	  -2.1127353e-01	
   8.9210000e+01	  -3.0091387e-01	  -2.0655539e-01	
   8.9265000e+01	  -2.9827897e-01	  -2.0198279e-01	
   8.9320000e+01	  -2.9576920e-01	  -1.9751984e-01	
   8.9375000e+01	  -2.9332599e-01	  -1.9312125e-01	
   8.9430000e+01	  -2.9089617e-01	  -1.8873870e-01	
   8.9485000e+01	  -2.8843831e-01	  -1.8432730e-01	
   8.9540000e+01	  -2.8592733e-01	  -1.7985139e-01	
   8.9595000e+01	  -2.8335582e-01	  -1.7528794e-01	
   8.9650000e+01	  -2.8073067e-01	  -1.7062645e-01	
   8.9705000e+01	  -2.7806565e-01	  -1.6586485e-01	
   8.9760000e+01	  -2.7537149e-01	  -1.6100263e-01	
   8.9815000e+01	  -2.7264659e-01	  -1.5603347e-01	
   8.9870000e+01	  -2.6987106e-01	  -1.5094058e-01	
   8.9925000e+01	  -2.6700560e-01	  -1.4569562e-01	
   8.9980000e+01	  -2.6399450e-01	  -1.4026101e-01	
   9.0035000e+01	  -2.6077207e-01	  -1.3459459e-01	
   9.0090000e+01	  -2.5727147e-01	  -1.2865623e-01	
   9.0145000e+01	  -2.5343448e-01	  -1.2241518e-01	
   9.0200000e+01	  -2.4922066e-01	  -1.1585641e-01	
   9.0255000e+01	  -2.4461456e-01	  -1.0898548e-01	
   9.0310000e+01	  -2.3963061e-01	  -1.0183219e-01	
   9.0365000e+01	  -2.3431557e-01	  -9.4452826e-02	
   9.0420000e+01	  -2.2874711e-01	  -8.6929778e-02	
   9.0475000e+01	  -2.2302710e-01	  -7.9366841e-02	
   9.0530000e+01	  -2.1727004e-01	  -7.1880415e-02	
   9.0585000e+01	  -2.1158851e-01	  -6.4587700e-02	
   9.0640000e+01	  -2.0607846e-01	  -5.7593653e-02	
   9.0695000e+01	  -2.0080713e-01	  -5.0979035e-02	
   9.0750000e+01	  -1.9580587e-01	  -4.4791984e-02	
   9.0805000e+01	  -1.9106899e-01	  -3.9044532e-02	
   9.0860000e+01	  -1.8655863e-01	  -3.3714029e-02	
   9.0915000e+01	  -1.8221395e-01	  -2.8748779e-02	
   9.0970000e+01	  -1.7796306e-01	  -2.4076856e-02	
   9.1025000e+01	  -1.7373544e-01	  -1.9616588e-02	
   9.1080000e+01	  -1.6947325e-01	  -1.5287360e-02	
   9.1135000e+01	  -1.6514126e-01	  -1.1020141e-02	
   9.1190000e+01	  -1.6073517e-01	  -6.7671489e-03	
   9.1245000e+01	  -1.5628658e-01	  -2.5088806e-03	
   9.1300000e+01	  -1.5186199e-01	   1.7438133e-03	
   9.1355000e+01	  -1.4755456e-01	   5.9535376e-03	
   9.1410000e+01	  -1.4347011e-01	   1.0064917e-02	
   9.1465000e+01	  -1.3970996e-01	   1.4015716e-02	
   9.1520000e+01	  -1.3635350e-01	   1.7748080e-02	
   9.1575000e+01	  -1.3344327e-01	   2.1217662e-02	
   9.1630000e+01	  -1.3097485e-01	   2.4399477e-02	
   9.1685000e+01	  -1.2889306e-01	   2.7290621e-02	
   9.1740000e+01	  -1.2709509e-01	   2.9910107e-02	
   9.1795000e+01	  -1.2544095e-01	   3.2295265e-02	
   9.1850000e+01	  -1.2377058e-01	   3.4494216e-02	
   9.1905000e+01	  -1.2192551e-01	   3.6555238e-02	
   9.1960000e+01	  -1.1977224e-01	   3.8515149e-02	
   9.2015000e+01	  -1.1722361e-01	   4.0388815e-02	
   9.2070000e+01	  -1.1425553e-01	   4.2161066e-02	
   9.2125000e+01	  -1.1091644e-01	   4.3782194e-02	
   9.2180000e+01	  -1.0732755e-01	   4.5168354e-02	
   9.2235000e+01	  -1.0367255e-01	   4.6207580e-02	
   9.2290000e+01	  -1.0017872e-01	   4.6770815e-02	
   9.2345000e+01	  -9.7092957e-02	   4.6726260e-02	
   9.2400000e+01	  -9.4657204e-02	   4.5954658e-02	
   9.2455000e+01	  -9.3086490e-02	   4.4362921e-02	
   9.2510000e+01	  -9.2551810e-02	   4.1894093e-02	
   9.2565000e+01	  -9.3168247e-02	   3.8532992e-02	
   9.2620000e+01	  -9.4988536e-02	   3.4307632e-02	
   9.2675000e+01	  -9.8002940e-02	   2.9286135e-02	
   9.2730000e+01	  -1.0214603e-01	   2.3569161e-02	
   9.2785000e+01	  -1.0730909e-01	   1.7279212e-02	
   9.2840000e+01	  -1.1335579e-01	   1.0548824e-02	
   9.2895000e+01	  -1.2013916e-01	   3.5087638e-03	
   9.2950000e+01	  -1.2751821e-01	  -3.7230471e-03	
   9.3005000e+01	  -1.3537166e-01	  -1.1050208e-02	
   9.3060000e+01	  -1.4360564e-01	  -1.8401995e-02	
   9.3115000e+01	  -1.5215344e-01	  -2.5732166e-02	
   9.3170000e+01	  -1.6096828e-01	  -3.3013301e-02	
   9.3225000e+01	  -1.7001189e-01	  -4.0228462e-02	
   9.3280000e+01	  -1.7924190e-01	  -4.7362272e-02	
   9.3335000e+01	  -1.8860108e-01	  -5.4393539e-02	
   9.3390000e+01	  -1.9801136e-01	  -6.1290837e-02	
   9.3445000e+01	  -2.0737374e-01	  -6.8011330e-02	
   9.3500000e+01	  -2.1657314e-01	  -7.4502632e-02	
   9.3555000e+01	  -2.2548694e-01	  -8.0707578e-02	
   9.3610000e+01	  -2.3399561e-01	  -8.6571150e-02	
   9.3665000e+01	  -2.4199334e-01	  -9.2047643e-02	
   9.3720000e+01	  -2.4939581e-01	  -9.7106250e-02	
   9.3775000e+01	  -2.5614384e-01	  -1.0173446e-01	
   9.3830000e+01	  -2.6220271e-01	  -1.0593875e-01	
   9.3885000e+01	  -2.6755706e-01	  -1.0974102e-01	
   9.3940000e+01	  -2.7220180e-01	  -1.1317061e-01	
   9.3995000e+01	  -2.7613139e-01	  -1.1625397e-01	
   9.4050000e+01	  -2.7933090e-01	  -1.1900544e-01	
   9.4105000e+01	  -2.8177156e-01	  -1.2142144e-01	
   9.4160000e+01	  -2.8341161e-01	  -1.2347903e-01	
   9.4215000e+01	  -2.8420289e-01	  -1.2513929e-01	
   9.4270000e+01	  -2.8410106e-01	  -1.2635420e-01	
   9.4325000e+01	  -2.8307653e-01	  -1.2707516e-01	
   9.4380000e+01	  -2.8112336e-01	  -1.2726142e-01	
   9.4435000e+01	  -2.7826519e-01	  -1.2688805e-01	
   9.4490000e+01	  -2.7455927e-01	  -1.2595282e-01	
   9.4545000e+01	  -2.7009784e-01	  -1.2448079e-01	
   9.4600000e+01	  -2.6500501e-01	  -1.2252483e-01	
   9.4655000e+01	  -2.5942680e-01	  -1.2016094e-01	
   9.4710000e+01	  -2.5351561e-01	  -1.1747909e-01	
   9.4765000e+01	  -2.4741230e-01	  -1.1457179e-01	
   9.4820000e+01	  -2.4123001e-01	  -1.1152250e-01	
   9.4875000e+01	  -2.3504278e-01	  -1.0839614e-01	
   9.4930000e+01	  -2.2888012e-01	  -1.0523297e-01	
   9.4985000e+01	  -2.2272697e-01	  -1.0204662e-01	
   9.5040000e+01	  -2.1652903e-01	  -9.8826763e-02	
   9.5095000e+01	  -2.1020390e-01	  -9.5546084e-02	
   9.5150000e+01	  -2.0365696e-01	  -9.2170300e-02	
   9.5205000e+01	  -1.9679910e-01	  -8.8669034e-02	
   9.5260000e+01	  -1.8956355e-01	  -8.5026149e-02	
   9.5315000e+01	  -1.8191973e-01	  -8.1248675e-02	
   9.5370000e+01	  -1.7388274e-01	  -7.7372907e-02	
   9.5425000e+01	  -1.6551637e-01	  -7.3465675e-02	
   9.5480000e+01	  -1.5692831e-01	  -6.9619715e-02	
   9.5535000e+01	  -1.4825771e-01	  -6.5943756e-02	
   9.5590000e+01	  -1.3965807e-01	  -6.2549311e-02	
   9.5645000e+01	  -1.3127952e-01	  -5.9536711e-02	
   9.5700000e+01	  -1.2325461e-01	  -5.6982778e-02	
   9.5755000e+01	  -1.1568971e-01	  -5.4931936e-02	
   9.5810000e+01	  -1.0866114e-01	  -5.3391730e-02	
   9.5865000e+01	  -1.0221423e-01	  -5.2332824e-02	
   9.5920000e+01	  -9.6364489e-02	  -5.1693133e-02	
   9.5975000e+01	  -9.1101493e-02	  -5.1385708e-02	
   9.6030000e+01	  -8.6396665e-02	  -5.1309547e-02	
   9.6085000e+01	  -8.2214115e-02	  -5.1361855e-02	
   9.6140000e+01	  -7.8522381e-02	  -5.1450101e-02	
   9.6195000e+01	  -7.5305213e-02	  -5.1502791e-02	
   9.6250000e+01	  -7.2569848e-02	  -5.1478044e-02	
   9.6305000e+01	  -7.0350760e-02	  -5.1368665e-02	
   9.6360000e+01	  -6.8707392e-02	  -5.1202325e-02	
   9.6415000e+01	  -6.7716067e-02	  -5.1036489e-02	
   9.6470000e+01	  -6.7457651e-02	  -5.0948919e-02	
   9.6525000e+01	  -6.8002999e-02	  -5.1025196e-02	
   9.6580000e+01	  -6.9398544e-02	  -5.1345295e-02	
   9.6635000e+01	  -7.1654722e-02	  -5.1971700e-02	
   9.6690000e+01	  -7.4739279e-02	  -5.2940968e-02	
   9.6745000e+01	  -7.8576079e-02	  -5.4259761e-02	
   9.6800000e+01	  -8.3049382e-02	  -5.5905863e-02	
   9.6855000e+01	  -8.8013195e-02	  -5.7834050e-02	
   9.6910000e+01	  -9.3304223e-02	  -5.9985349e-02	
   9.6965000e+01	  -9.8756019e-02	  -6.2297361e-02	
   9.7020000e+01	  -1.0421238e-01	  -6.4713605e-02	
   9.7075000e+01	  -1.0953851e-01	  -6.7190397e-02	
   9.7130000e+01	  -1.1462821e-01	  -6.9700001e-02	
   9.7185000e+01	  -1.1940501e-01	  -7.2229257e-02	
   9.7240000e+01	  -1.2381740e-01	  -7.4774198e-02	
   9.7295000e+01	  -1.2783000e-01	  -7.7332162e-02	
   9.7350000e+01	  -1.3141363e-01	  -7.9893047e-02	
   9.7405000e+01	  -1.3453595e-01	  -8.2431330e-02	
   9.7460000e+01	  -1.3715456e-01	  -8.4900858e-02	
   9.7515000e+01	  -1.3921422e-01	  -8.7234000e-02	
   9.7570000e+01	  -1.4064860e-01	  -8.9345083e-02	
   9.7625000e+01	  -1.4138510e-01	  -9.1136751e-02	
   9.7680000e+01	  -1.4135162e-01	  -9.2508044e-02	
   9.7735000e+01	  -1.4048399e-01	  -9.3363298e-02	
   9.7790000e+01	  -1.3873258e-01	  -9.3620814e-02	
   9.7845000e+01	  -1.3606623e-01	  -9.3220235e-02	
   9.7900000e+01	  -1.3247314e-01	  -9.2127561e-02	
   9.7955000e+01	  -1.2795818e-01	  -9.0336301e-02	
   9.8010000e+01	  -1.2253612e-01	  -8.7863455e-02	
   9.8065000e+01	  -1.1622099e-01	  -8.4740938e-02	
   9.8120000e+01	  -1.0901451e-01	  -8.1005191e-02	
   9.8175000e+01	  -1.0089729e-01	  -7.6688038e-02	
   9.8230000e+01	  -9.1825120e-02	  -7.1810638e-02	
   9.8285000e+01	  -8.1730974e-02	  -6.6381310e-02	
   9.8340000e+01	  -7.0532423e-02	  -6.0397316e-02	
   9.8395000e+01	  -5.8143128e-02	  -5.3849798e-02	
   9.8450000e+01	  -4.4486412e-02	  -4.6730386e-02	
   9.8505000e+01	  -2.9509101e-02	  -3.9038264e-02	
   9.8560000e+01	  -1.3194352e-02	  -3.0787034e-02	
   9.8615000e+01	   4.4282001e-03	  -2.2010576e-02	
   9.8670000e+01	   2.3277528e-02	  -1.2766357e-02	
   9.8725000e+01	   4.3223997e-02	  -3.1342936e-03	
   9.8780000e+01	   6.4100017e-02	   6.7895371e-03	
   9.8835000e+01	   8.5715884e-02	   1.6903050e-02	
   9.8890000e+01	   1.0787686e-01	   2.7109549e-02	
   9.8945000e+01	   1.3039747e-01	   3.7327564e-02	
   9.9000000e+01	   1.5311040e-01	   4.7497041e-02	
   9.9055000e+01	   1.7586940e-01	   5.7581234e-02	
   9.9110000e+01	   1.9854790e-01	   6.7565014e-02	
   9.9165000e+01	   2.2103478e-01	   7.7450645e-02	
   9.9220000e+01	   2.4322873e-01	   8.7251691e-02	
   9.9275000e+01	   2.6503239e-01	   9.6985491e-02	
   9.9330000e+01	   2.8634695e-01	   1.0666485e-01	
   9.9385000e+01	   3.0706796e-01	   1.1628995e-01	
   9.9440000e+01	   3.2708274e-01	   1.2584189e-01	
   9.9495000e+01	   3.4627126e-01	   1.3527965e-01	
   9.9550000e+01	   3.6451293e-01	   1.4454232e-01	
   9.9605000e+01	   3.8169840e-01	   1.5355693e-01	
   9.9660000e+01	   3.9774342e-01	   1.6224999e-01	
   9.9715000e+01	   4.1260126e-01	   1.7055987e-01	
   9.9770000e+01	   4.2627191e-01	   1.7844779e-01	
   9.9825000e+01	   4.3880595e-01	   1.8590562e-01	
   9.9880000e+01	   4.5030265e-01	   1.9295904e-01	
   9.9935000e+01	   4.6090213e-01	   1.9966571e-01	
   9.9990000e+01	   4.7077318e-01	   2.0610891e-01	
   1.0004500e+02	   4.8009820e-01	   2.1238755e-01	
   1.0010000e+02	   4.8905707e-01	   2.1860397e-01	
   1.0015500e+02	   4.9781195e-01	   2.2485058e-01	
   1.0021000e+02	   5.0649511e-01	   2.3119767e-01	
   1.0026500e+02	   5.1520267e-01	   2.3768486e-01	
   1.0032000e+02	   5.2399510e-01	   2.4431799e-01	
   1.0037500e+02	   5.3290426e-01	   2.5107215e-01	
   1.0043000e+02	   5.4194465e-01	   2.5789969e-01	
   1.0048500e+02	   5.5112567e-01	   2.6474058e-01	
   1.0054000e+02	   5.6046124e-01	   2.7153211e-01	
   1.0059500e+02	   5.6997467e-01	   2.7821639e-01	
   1.0065000e+02	   5.7969934e-01	   2.8474529e-01	
   1.0070500e+02	   5.8967568e-01	   2.9108302e-01	
   1.0076000e+02	   5.9994552e-01	   2.9720619e-01	
   1.0081500e+02	   6.1054520e-01	   3.0310179e-01	
   1.0087000e+02	   6.2149858e-01	   3.0876374e-01	
   1.0092500e+02	   6.3281095e-01	   3.1418889e-01	
   1.0098000e+02	   6.4446467e-01	   3.1937309e-01	
   1.0103500e+02	   6.5641895e-01	   3.2430937e-01	
   1.0109000e+02	   6.6861641e-01	   3.2898968e-01	
   1.0114500e+02	   6.8099590e-01	   3.3341000e-01	
   1.0120000e+02	   6.9350746e-01	   3.3757713e-01	
   1.0125500e+02	   7.0612452e-01	   3.4151481e-01	
   1.0131000e+02	   7.1885049e-01	   3.4526781e-01	
   1.0136500e+02	   7.3171853e-01	   3.4890269e-01	
   1.0142000e+02	   7.4478438e-01	   3.5250491e-01	
   1.0147500e+02	   7.5811319e-01	   3.5617216e-01	
   1.0153000e+02	   7.7176276e-01	   3.6000456e-01	
   1.0158500e+02	   7.8576575e-01	   3.6409238e-01	
   1.0164000e+02	   8.0011358e-01	   3.6850351e-01	
   1.0169500e+02	   8.1474522e-01	   3.7327289e-01	
   1.0175000e+02	   8.2954297e-01	   3.7839588e-01	
   1.0180500e+02	   8.4433642e-01	   3.8382656e-01	
   1.0186000e+02	   8.5891401e-01	   3.8948151e-01	
   1.0191500e+02	   8.7304098e-01	   3.9524899e-01	
   1.0197000e+02	   8.8648014e-01	   4.0100109e-01	
   1.0202500e+02	   8.9901128e-01	   4.0660575e-01	
   1.0208000e+02	   9.1044596e-01	   4.1193710e-01	
   1.0213500e+02	   9.2063766e-01	   4.1688360e-01	
   1.0219000e+02	   9.2948738e-01	   4.2135424e-01	
   1.0224500e+02	   9.3694420e-01	   4.2528141e-01	
   1.0230000e+02	   9.4300101e-01	   4.2862036e-01	
   1.0235500e+02	   9.4768674e-01	   4.3134557e-01	
   1.0241000e+02	   9.5105600e-01	   4.3344528e-01	
   1.0246500e+02	   9.5317637e-01	   4.3491467e-01	
   1.0252000e+02	   9.5411450e-01	   4.3574875e-01	
   1.0257500e+02	   9.5392406e-01	   4.3593693e-01	
   1.0263000e+02	   9.5263902e-01	   4.3546071e-01	
   1.0268500e+02	   9.5027425e-01	   4.3429563e-01	
   1.0274000e+02	   9.4683398e-01	   4.3241761e-01	
   1.0279500e+02	   9.4232552e-01	   4.2981205e-01	
   1.0285000e+02	   9.3677334e-01	   4.2648300e-01	
   1.0290500e+02	   9.3023013e-01	   4.2246004e-01	
   1.0296000e+02	   9.2278420e-01	   4.1780235e-01	
   1.0301500e+02	   9.1456338e-01	   4.1259975e-01	
   1.0307000e+02	   9.0573473e-01	   4.0697024e-01	
   1.0312500e+02	   8.9649833e-01	   4.0105369e-01	
   1.0318000e+02	   8.8707551e-01	   3.9500190e-01	
   1.0323500e+02	   8.7769385e-01	   3.8896662e-01	
   1.0329000e+02	   8.6857105e-01	   3.8308688e-01	
   1.0334500e+02	   8.5989985e-01	   3.7747715e-01	
   1.0340000e+02	   8.5183565e-01	   3.7221784e-01	
   1.0345500e+02	   8.4448856e-01	   3.6734974e-01	
   1.0351000e+02	   8.3792077e-01	   3.6287352e-01	
   1.0356500e+02	   8.3214927e-01	   3.5875472e-01	
   1.0362000e+02	   8.2715307e-01	   3.5493302e-01	
   1.0367500e+02	   8.2288339e-01	   3.5133375e-01	
   1.0373000e+02	   8.1927505e-01	   3.4787875e-01	
   1.0378500e+02	   8.1625691e-01	   3.4449522e-01	
   1.0384000e+02	   8.1375965e-01	   3.4112186e-01	
   1.0389500e+02	   8.1171962e-01	   3.3771255e-01	
   1.0395000e+02	   8.1007841e-01	   3.3423744e-01	
   1.0400500e+02	   8.0877891e-01	   3.3068140e-01	
   1.0406000e+02	   8.0775951e-01	   3.2704034e-01	
   1.0411500e+02	   8.0694856e-01	   3.2331646e-01	
   1.0417000e+02	   8.0626091e-01	   3.1951402e-01	
   1.0422500e+02	   8.0559792e-01	   3.1563689e-01	
   1.0428000e+02	   8.0485230e-01	   3.1168930e-01	
   1.0433500e+02	   8.0391845e-01	   3.0767981e-01	
   1.0439000e+02	   8.0270639e-01	   3.0362719e-01	
   1.0444500e+02	   8.0115454e-01	   2.9956565e-01	
   1.0450000e+02	   7.9923637e-01	   2.9554751e-01	
   1.0455500e+02	   7.9695986e-01	   2.9164264e-01	
   1.0461000e+02	   7.9436077e-01	   2.8793437e-01	
   1.0466500e+02	   7.9149170e-01	   2.8451216e-01	
   1.0472000e+02	   7.8840952e-01	   2.8146219e-01	
   1.0477500e+02	   7.8516423e-01	   2.7885759e-01	
   1.0483000e+02	   7.8179152e-01	   2.7674968e-01	
   1.0488500e+02	   7.7830885e-01	   2.7516083e-01	
   1.0494000e+02	   7.7471434e-01	   2.7408014e-01	
   1.0499500e+02	   7.7098905e-01	   2.7346322e-01	
   1.0505000e+02	   7.6710371e-01	   2.7323669e-01	
   1.0510500e+02	   7.6303030e-01	   2.7330736e-01	
   1.0516000e+02	   7.5875596e-01	   2.7357481e-01	
   1.0521500e+02	   7.5429500e-01	   2.7394476e-01	
   1.0527000e+02	   7.4969554e-01	   2.7434000e-01	
   1.0532500e+02	   7.4503950e-01	   2.7470684e-01	
   1.0538000e+02	   7.4043666e-01	   2.7501711e-01	
   1.0543500e+02	   7.3601444e-01	   2.7526665e-01	
   1.0549000e+02	   7.3190458e-01	   2.7547083e-01	
   1.0554500e+02	   7.2822856e-01	   2.7565769e-01	
   1.0560000e+02	   7.2508383e-01	   2.7585945e-01	
   1.0565500e+02	   7.2253309e-01	   2.7610354e-01	
   1.0571000e+02	   7.2059708e-01	   2.7640377e-01	
   1.0576500e+02	   7.1925041e-01	   2.7675308e-01	
   1.0582000e+02	   7.1842099e-01	   2.7711926e-01	
   1.0587500e+02	   7.1799502e-01	   2.7744539e-01	
   1.0593000e+02	   7.1782944e-01	   2.7765513e-01	
   1.0598500e+02	   7.1777037e-01	   2.7766212e-01	
   1.0604000e+02	   7.1767368e-01	   2.7738138e-01	
   1.0609500e+02	   7.1742332e-01	   2.7674056e-01	
   1.0615000e+02	   7.1694394e-01	   2.7568903e-01	
   1.0620500e+02	   7.1620632e-01	   2.7420338e-01	
   1.0626000e+02	   7.1522586e-01	   2.7228920e-01	
   1.0631500e+02	   7.1405504e-01	   2.6997861e-01	
   1.0637000e+02	   7.1276997e-01	   2.6732353e-01	
   1.0642500e+02	   7.1145158e-01	   2.6438540e-01	
   1.0648000e+02	   7.1016331e-01	   2.6122281e-01	
   1.0653500e+02	   7.0892899e-01	   2.5787848e-01	
   1.0659000e+02	   7.0771457e-01	   2.5436710e-01	
   1.0664500e+02	   7.0641688e-01	   2.5066622e-01	
   1.0670000e+02	   7.0486159e-01	   2.4671243e-01	
   1.0675500e+02	   7.0281084e-01	   2.4240379e-01	
   1.0681000e+02	   6.9997958e-01	   2.3760833e-01	
   1.0686500e+02	   6.9605880e-01	   2.3217779e-01	
   1.0692000e+02	   6.9074250e-01	   2.2596441e-01	
   1.0697500e+02	   6.8375439e-01	   2.1883773e-01	
   1.0703000e+02	   6.7487045e-01	   2.1069876e-01	
   1.0708500e+02	   6.6393554e-01	   2.0149054e-01	
   1.0714000e+02	   6.5087316e-01	   1.9120421e-01	
   1.0719500e+02	   6.3568842e-01	   1.7988023e-01	
   1.0725000e+02	   6.1846408e-01	   1.6760422e-01	
   1.0730500e+02	   5.9935014e-01	   1.5449819e-01	
   1.0736000e+02	   5.7854761e-01	   1.4070893e-01	
   1.0741500e+02	   5.5628870e-01	   1.2639510e-01	
   1.0747000e+02	   5.3281612e-01	   1.1171401e-01	
   1.0752500e+02	   5.0836387e-01	   9.6808984e-02	
   1.0758000e+02	   4.8314164e-01	   8.1798740e-02	
   1.0763500e+02	   4.5732454e-01	   6.6770376e-02	
   1.0769000e+02	   4.3104901e-01	   5.1777469e-02	
   1.0774500e+02	   4.0441573e-01	   3.6843997e-02	
   1.0780000e+02	   3.7749873e-01	   2.1973372e-02	
   1.0785500e+02	   3.5035786e-01	   7.1602010e-03	
   1.0791000e+02	   3.2305140e-01	  -7.5978024e-03	
   1.0796500e+02	   2.9564633e-01	  -2.2289592e-02	
   1.0802000e+02	   2.6822527e-01	  -3.6883786e-02	
   1.0807500e+02	   2.4088827e-01	  -5.1326451e-02	
   1.0813000e+02	   2.1374893e-01	  -6.5544228e-02	
   1.0818500e+02	   1.8692612e-01	  -7.9451487e-02	
   1.0824000e+02	   1.6053417e-01	  -9.2959288e-02	
   1.0829500e+02	   1.3467311e-01	  -1.0598449e-01	
   1.0835000e+02	   1.0941982e-01	  -1.1845820e-01	
   1.0840500e+02	   8.4821241e-02	  -1.3033247e-01	
   1.0846000e+02	   6.0891766e-02	  -1.4158374e-01	
   1.0851500e+02	   3.7617133e-02	  -1.5221173e-01	
   1.0857000e+02	   1.4965010e-02	  -1.6223332e-01	
   1.0862500e+02	  -7.1000472e-03	  -1.7167216e-01	
   1.0868000e+02	  -2.8601386e-02	  -1.8054667e-01	
   1.0873500e+02	  -4.9539176e-02	  -1.8886012e-01	
   1.0879000e+02	  -6.9886211e-02	  -1.9659600e-01	
   1.0884500e+02	  -8.9590371e-02	  -2.0371880e-01	
   1.0890000e+02	  -1.0858137e-01	  -2.1017888e-01	
   1.0895500e+02	  -1.2677980e-01	  -2.1591979e-01	
   1.0901000e+02	  -1.4410755e-01	  -2.2088726e-01	
   1.0906500e+02	  -1.6049821e-01	  -2.2503890e-01	
   1.0912000e+02	  -1.7590618e-01	  -2.2835324e-01	
   1.0917500e+02	  -1.9031341e-01	  -2.3083756e-01	
   1.0923000e+02	  -2.0373283e-01	  -2.3253307e-01	
   1.0928500e+02	  -2.1620666e-01	  -2.3351573e-01	
   1.0934000e+02	  -2.2779854e-01	  -2.3389126e-01	
   1.0939500e+02	  -2.3858052e-01	  -2.3378509e-01	
   1.0945000e+02	  -2.4861747e-01	  -2.3332871e-01	
   1.0950500e+02	  -2.5795202e-01	  -2.3264489e-01	
   1.0956000e+02	  -2.6659373e-01	  -2.3183459e-01	
   1.0961500e+02	  -2.7451510e-01	  -2.3096806e-01	
   1.0967000e+02	  -2.8165450e-01	  -2.3008085e-01	
   1.0972500e+02	  -2.8792431e-01	  -2.2917432e-01	
   1.0978000e+02	  -2.9322292e-01	  -2.2821999e-01	
   1.0983500e+02	  -2.9744984e-01	  -2.2716781e-01	
   1.0989000e+02	  -3.0052233e-01	  -2.2595706e-01	
   1.0994500e+02	  -3.0239099e-01	  -2.2452824e-01	
   1.1000000e+02	  -3.0305234e-01	  -2.2283411e-01	
   1.1005500e+02	  -3.0255742e-01	  -2.2084884e-01	
   1.1011000e+02	  -3.0101500e-01	  -2.1857370e-01	
   1.1016500e+02	  -2.9858738e-01	  -2.1603764e-01	
   1.1022000e+02	  -2.9547748e-01	  -2.1329248e-01	
   1.1027500e+02	  -2.9190960e-01	  -2.1040467e-01	
   1.1033000e+02	  -2.8810837e-01	  -2.0744600e-01	
   1.1038500e+02	  -2.8427960e-01	  -2.0448452e-01	
   1.1044000e+02	  -2.8059586e-01	  -2.0157671e-01	
   1.1049500e+02	  -2.7718805e-01	  -1.9876218e-01	
   1.1055000e+02	  -2.7414263e-01	  -1.9606128e-01	
   1.1060500e+02	  -2.7150360e-01	  -1.9347527e-01	
   1.1066000e+02	  -2.6927907e-01	  -1.9098913e-01	
   1.1071500e+02	  -2.6745246e-01	  -1.8857786e-01	
   1.1077000e+02	  -2.6599685e-01	  -1.8621580e-01	
   1.1082500e+02	  -2.6488966e-01	  -1.8388711e-01	
   1.1088000e+02	  -2.6412562e-01	  -1.8159514e-01	
   1.1093500e+02	  -2.6372624e-01	  -1.7936899e-01	
   1.1099000e+02	  -2.6374438e-01	  -1.7726603e-01	
   1.1104500e+02	  -2.6426242e-01	  -1.7536926e-01	
   1.1110000e+02	  -2.6538476e-01	  -1.7377967e-01	
   1.1115500e+02	  -2.6722686e-01	  -1.7260475e-01	
   1.1121000e+02	  -2.6990317e-01	  -1.7194554e-01	
   1.1126500e+02	  -2.7351584e-01	  -1.7188472e-01	
   1.1132000e+02	  -2.7814565e-01	  -1.7247810e-01	
   1.1137500e+02	  -2.8384668e-01	  -1.7375026e-01	
   1.1143000e+02	  -2.9064555e-01	  -1.7569435e-01	
   1.1148500e+02	  -2.9854452e-01	  -1.7827498e-01	
   1.1154000e+02	  -3.0752724e-01	  -1.8143371e-01	
   1.1159500e+02	  -3.1756531e-01	  -1.8509617e-01	
   1.1165000e+02	  -3.2862437e-01	  -1.8917978e-01	
   1.1170500e+02	  -3.4066834e-01	  -1.9360092e-01	
   1.1176000e+02	  -3.5366055e-01	  -1.9828052e-01	
   1.1181500e+02	  -3.6756029e-01	  -2.0314684e-01	
   1.1187000e+02	  -3.8231452e-01	  -2.0813441e-01	
   1.1192500e+02	  -3.9784648e-01	  -2.1317939e-01	
   1.1198000e+02	  -4.1404548e-01	  -2.1821334e-01	
   1.1203500e+02	  -4.3076161e-01	  -2.2315846e-01	
   1.1209000e+02	  -4.4780620e-01	  -2.2792552e-01	
   1.1214500e+02	  -4.6495677e-01	  -2.3241444e-01	
   1.1220000e+02	  -4.8196507e-01	  -2.3651696e-01	
   1.1225500e+02	  -4.9856722e-01	  -2.4012176e-01	
   1.1231000e+02	  -5.1449559e-01	  -2.4312159e-01	
   1.1236500e+02	  -5.2949191e-01	  -2.4542185e-01	
   1.1242000e+02	  -5.4332138e-01	  -2.4694947e-01	
   1.1247500e+02	  -5.5578716e-01	  -2.4766117e-01	
   1.1253000e+02	  -5.6674188e-01	  -2.4754885e-01	
   1.1258500e+02	  -5.7609250e-01	  -2.4663950e-01	
   1.1264000e+02	  -5.8379615e-01	  -2.4498896e-01	
   1.1269500e+02	  -5.8984915e-01	  -2.4267104e-01	
   1.1275000e+02	  -5.9427296e-01	  -2.3976509e-01	
   1.1280500e+02	  -5.9710089e-01	  -2.3634529e-01	
   1.1286000e+02	  -5.9836906e-01	  -2.3247369e-01	
   1.1291500e+02	  -5.9811393e-01	  -2.2819809e-01	
   1.1297000e+02	  -5.9637643e-01	  -2.2355429e-01	
   1.1302500e+02	  -5.9320972e-01	  -2.1857086e-01	
   1.1308000e+02	  -5.8868699e-01	  -2.1327526e-01	
   1.1313500e+02	  -5.8290784e-01	  -2.0770048e-01	
   1.1319000e+02	  -5.7600288e-01	  -2.0189161e-01	
   1.1324500e+02	  -5.6813609e-01	  -1.9591092e-01	
   1.1330000e+02	  -5.5950324e-01	  -1.8984040e-01	
   1.1335500e+02	  -5.5032444e-01	  -1.8378073e-01	
   1.1341000e+02	  -5.4083014e-01	  -1.7784610e-01	
   1.1346500e+02	  -5.3124247e-01	  -1.7215490e-01	
   1.1352000e+02	  -5.2175640e-01	  -1.6681812e-01	
   1.1357500e+02	  -5.1252425e-01	  -1.6192747e-01	
   1.1363000e+02	  -5.0364570e-01	  -1.5754519e-01	
   1.1368500e+02	  -4.9516408e-01	  -1.5369718e-01	
   1.1374000e+02	  -4.8707036e-01	  -1.5037145e-01	
   1.1379500e+02	  -4.7931512e-01	  -1.4752264e-01	
   1.1385000e+02	  -4.7182616e-01	  -1.4508161e-01	
   1.1390500e+02	  -4.6452752e-01	  -1.4296799e-01	
   1.1396000e+02	  -4.5735691e-01	  -1.4110355e-01	
   1.1401500e+02	  -4.5028010e-01	  -1.3942490e-01	
   1.1407000e+02	  -4.4330123e-01	  -1.3789318e-01	
   1.1412500e+02	  -4.3646656e-01	  -1.3649897e-01	
   1.1418000e+02	  -4.2986008e-01	  -1.3526088e-01	
   1.1423500e+02	  -4.2359165e-01	  -1.3421814e-01	
   1.1429000e+02	  -4.1778049e-01	  -1.3341856e-01	
   1.1434500e+02	  -4.1253852e-01	  -1.3290487e-01	
   1.1440000e+02	  -4.0795678e-01	  -1.3270262e-01	
   1.1445500e+02	  -4.0409636e-01	  -1.3281196e-01	
   1.1451000e+02	  -4.0098324e-01	  -1.3320335e-01	
   1.1456500e+02	  -3.9860619e-01	  -1.3381708e-01	
   1.1462000e+02	  -3.9691758e-01	  -1.3456648e-01	
   1.1467500e+02	  -3.9583722e-01	  -1.3534440e-01	
   1.1473000e+02	  -3.9526011e-01	  -1.3603210e-01	
   1.1478500e+02	  -3.9506774e-01	  -1.3650975e-01	
   1.1484000e+02	  -3.9514183e-01	  -1.3666771e-01	
   1.1489500e+02	  -3.9537761e-01	  -1.3641782e-01	
   1.1495000e+02	  -3.9569467e-01	  -1.3570338e-01	
   1.1500500e+02	  -3.9604359e-01	  -1.3450658e-01	
   1.1506000e+02	  -3.9640741e-01	  -1.3285170e-01	
   1.1511500e+02	  -3.9679677e-01	  -1.3080318e-01	
   1.1517000e+02	  -3.9723969e-01	  -1.2845808e-01	
   1.1522500e+02	  -3.9776939e-01	  -1.2593527e-01	
   1.1528000e+02	  -3.9841410e-01	  -1.2336378e-01	
   1.1533500e+02	  -3.9919071e-01	  -1.2087211e-01	
   1.1539000e+02	  -4.0010176e-01	  -1.1857888e-01	
   1.1544500e+02	  -4.0113507e-01	  -1.1658548e-01	
   1.1550000e+02	  -4.0226656e-01	  -1.1497156e-01	
   1.1555500e+02	  -4.0346669e-01	  -1.1379416e-01	
   1.1561000e+02	  -4.0471028e-01	  -1.1308970e-01	
   1.1566500e+02	  -4.0598796e-01	  -1.1287807e-01	
   1.1572000e+02	  -4.0731784e-01	  -1.1316859e-01	
   1.1577500e+02	  -4.0875563e-01	  -1.1396714e-01	
   1.1583000e+02	  -4.1040137e-01	  -1.1528351e-01	
   1.1588500e+02	  -4.1240081e-01	  -1.1713731e-01	
   1.1594000e+02	  -4.1493997e-01	  -1.1956117e-01	
   1.1599500e+02	  -4.1823200e-01	  -1.2259919e-01	
   1.1605000e+02	  -4.2249744e-01	  -1.2629998e-01	
   1.1610500e+02	  -4.2794101e-01	  -1.3070553e-01	
   1.1616000e+02	  -4.3472969e-01	  -1.3583953e-01	
   1.1621500e+02	  -4.4297555e-01	  -1.4169778e-01	
   1.1627000e+02	  -4.5272453e-01	  -1.4824183e-01	
   1.1632500e+02	  -4.6395160e-01	  -1.5539646e-01	
   1.1638000e+02	  -4.7656268e-01	  -1.6305190e-01	
   1.1643500e+02	  -4.9040308e-01	  -1.7107069e-01	
   1.1649000e+02	  -5.0527023e-01	  -1.7929770e-01	
   1.1654500e+02	  -5.2092799e-01	  -1.8757103e-01	
   1.1660000e+02	  -5.3712108e-01	  -1.9573260e-01	
   1.1665500e+02	  -5.5358901e-01	  -2.0363800e-01	
   1.1671000e+02	  -5.7007872e-01	  -2.1116459e-01	
   1.1676500e+02	  -5.8635469e-01	  -2.1821670e-01	
   1.1682000e+02	  -6.0220590e-01	  -2.2472648e-01	
   1.1687500e+02	  -6.1744818e-01	  -2.3065036e-01	
   1.1693000e+02	  -6.3192227e-01	  -2.3596171e-01	
   1.1698500e+02	  -6.4548952e-01	  -2.4064252e-01	
   1.1704000e+02	  -6.5802818e-01	  -2.4467638e-01	
   1.1709500e+02	  -6.6943129e-01	  -2.4804432e-01	
   1.1715000e+02	  -6.7960593e-01	  -2.5072302e-01	
   1.1720500e+02	  -6.8847447e-01	  -2.5268562e-01	
   1.1726000e+02	  -6.9597853e-01	  -2.5390531e-01	
   1.1731500e+02	  -7.0208528e-01	  -2.5436148e-01	
   1.1737000e+02	  -7.0679477e-01	  -2.5404725e-01	
   1.1742500e+02	  -7.1014601e-01	  -2.5297658e-01	
   1.1748000e+02	  -7.1221947e-01	  -2.5118907e-01	
   1.1753500e+02	  -7.1313333e-01	  -2.4875000e-01	
   1.1759000e+02	  -7.1303268e-01	  -2.4574433e-01	
   1.1764500e+02	  -7.1207369e-01	  -2.4226601e-01	
   1.1770000e+02	  -7.1040653e-01	  -2.3840602e-01	
   1.1775500e+02	  -7.0816057e-01	  -2.3424180e-01	
   1.1781000e+02	  -7.0543348e-01	  -2.2982987e-01	
   1.1786500e+02	  -7.0228575e-01	  -2.2520273e-01	
   1.1792000e+02	  -6.9874110e-01	  -2.2037033e-01	
   1.1797500e+02	  -6.9479219e-01	  -2.1532496e-01	
   1.1803000e+02	  -6.9040998e-01	  -2.1004823e-01	
   1.1808500e+02	  -6.8555591e-01	  -2.0451920e-01	
   1.1814000e+02	  -6.8019568e-01	  -1.9872310e-01	
   1.1819500e+02	  -6.7431210e-01	  -1.9265973e-01	
   1.1825000e+02	  -6.6791396e-01	  -1.8634999e-01	
   1.1830500e+02	  -6.6103828e-01	  -1.7983895e-01	
   1.1836000e+02	  -6.5374484e-01	  -1.7319403e-01	
   1.1841500e+02	  -6.4610417e-01	  -1.6649786e-01	
   1.1847000e+02	  -6.3818284e-01	  -1.5983723e-01	
   1.1852500e+02	  -6.3003114e-01	  -1.5329131e-01	
   1.1858000e+02	  -6.2167697e-01	  -1.4692212e-01	
   1.1863500e+02	  -6.1312649e-01	  -1.4076874e-01	
   1.1869000e+02	  -6.0436989e-01	  -1.3484569e-01	
   1.1874500e+02	  -5.9539054e-01	  -1.2914581e-01	
   1.1880000e+02	  -5.8617604e-01	  -1.2364753e-01	
   1.1885500e+02	  -5.7672929e-01	  -1.1832512e-01	
   1.1891000e+02	  -5.6707717e-01	  -1.1315907e-01	
   1.1896500e+02	  -5.5727601e-01	  -1.0814408e-01	
   1.1902000e+02	  -5.4741327e-01	  -1.0329383e-01	
   1.1907500e+02	  -5.3760424e-01	  -9.8641918e-02	
   1.1913000e+02	  -5.2798273e-01	  -9.4238258e-02	
   1.1918500e+02	  -5.1868624e-01	  -9.0140964e-02	
   1.1924000e+02	  -5.0983822e-01	  -8.6405516e-02	
   1.1929500e+02	  -5.0153114e-01	  -8.3073970e-02	
   1.1935000e+02	  -4.9381326e-01	  -8.0166567e-02	
   1.1940500e+02	  -4.8668160e-01	  -7.7677177e-02	
   1.1946000e+02	  -4.8008298e-01	  -7.5572895e-02	
   1.1951500e+02	  -4.7392244e-01	  -7.3797065e-02	
   1.1957000e+02	  -4.6807638e-01	  -7.2274861e-02	
   1.1962500e+02	  -4.6240794e-01	  -7.0921224e-02	
   1.1968000e+02	  -4.5678315e-01	  -6.9651105e-02	
   1.1973500e+02	  -4.5108664e-01	  -6.8390859e-02	
   1.1979000e+02	  -4.4523499e-01	  -6.7088691e-02	
   1.1984500e+02	  -4.3918709e-01	  -6.5722702e-02	
   1.1990000e+02	  -4.3295043e-01	  -6.4305819e-02	
   1.1995500e+02	  -4.2658220e-01	  -6.2886736e-02	
   1.2001000e+02	  -4.2018373e-01	  -6.1545887e-02	
   1.2006500e+02	  -4.1388853e-01	  -6.0386445e-02	
   1.2012000e+02	  -4.0784592e-01	  -5.9521558e-02	
   1.2017500e+02	  -4.0220319e-01	  -5.9060048e-02	
   1.2023000e+02	  -3.9708909e-01	  -5.9093295e-02	
   1.2028500e+02	  -3.9260150e-01	  -5.9685689e-02	
   1.2034000e+02	  -3.8880059e-01	  -6.0869857e-02	
   1.2039500e+02	  -3.8570814e-01	  -6.2646728e-02	
   1.2045000e+02	  -3.8331255e-01	  -6.4990005e-02	
   1.2050500e+02	  -3.8157875e-01	  -6.7854149e-02	
   1.2056000e+02	  -3.8046107e-01	  -7.1184150e-02	
   1.2061500e+02	  -3.7991657e-01	  -7.4925032e-02	
   1.2067000e+02	  -3.7991642e-01	  -7.9029646e-02	
   1.2072500e+02	  -3.8045389e-01	  -8.3464121e-02	
   1.2078000e+02	  -3.8154726e-01	  -8.8210414e-02	
   1.2083500e+02	  -3.8323629e-01	  -9.3265016e-02	
   1.2089000e+02	  -3.8557205e-01	  -9.8633359e-02	
   1.2094500e+02	  -3.8860220e-01	  -1.0432121e-01	
   1.2100000e+02	  -3.9235556e-01	  -1.1032536e-01	
   1.2105500e+02	  -3.9682998e-01	  -1.1662548e-01	
   1.2111000e+02	  -4.0198613e-01	  -1.2317858e-01	
   1.2116500e+02	  -4.0774751e-01	  -1.2991747e-01	
   1.2122000e+02	  -4.1400533e-01	  -1.3675328e-01	
   1.2127500e+02	  -4.2062635e-01	  -1.4358130e-01	
   1.2133000e+02	  -4.2746222e-01	  -1.5028885e-01	
   1.2138500e+02	  -4.3435988e-01	  -1.5676416e-01	
   1.2144000e+02	  -4.4117266e-01	  -1.6290545e-01	
   1.2149500e+02	  -4.4777087e-01	  -1.6862906e-01	
   1.2155000e+02	  -4.5404981e-01	  -1.7387575e-01	
   1.2160500e+02	  -4.5993347e-01	  -1.7861402e-01	
   1.2166000e+02	  -4.6537202e-01	  -1.8283877e-01	
   1.2171500e+02	  -4.7033296e-01	  -1.8656458e-01	
   1.2177000e+02	  -4.7478823e-01	  -1.8981542e-01	
   1.2182500e+02	  -4.7870210e-01	  -1.9261403e-01	
   1.2188000e+02	  -4.8202397e-01	  -1.9497412e-01	
   1.2193500e+02	  -4.8468691e-01	  -1.9689645e-01	
   1.2199000e+02	  -4.8661117e-01	  -1.9836850e-01	
   1.2204500e+02	  -4.8771087e-01	  -1.9936735e-01	
   1.2210000e+02	  -4.8790229e-01	  -1.9986516e-01	
   1.2215500e+02	  -4.8711268e-01	  -1.9983629e-01	
   1.2221000e+02	  -4.8528903e-01	  -1.9926449e-01	
   1.2226500e+02	  -4.8240562e-01	  -1.9814935e-01	
   1.2232000e+02	  -4.7846831e-01	  -1.9651073e-01	
   1.2237500e+02	  -4.7351339e-01	  -1.9438972e-01	
   1.2243000e+02	  -4.6760038e-01	  -1.9184506e-01	
   1.2248500e+02	  -4.6080047e-01	  -1.8894572e-01	
   1.2254000e+02	  -4.5318441e-01	  -1.8576129e-01	
   1.2259500e+02	  -4.4481358e-01	  -1.8235282e-01	
   1.2265000e+02	  -4.3573623e-01	  -1.7876593e-01	
   1.2270500e+02	  -4.2598926e-01	  -1.7502790e-01	
   1.2276000e+02	  -4.1560425e-01	  -1.7114870e-01	
   1.2281500e+02	  -4.0461570e-01	  -1.6712496e-01	
   1.2287000e+02	  -3.9306962e-01	  -1.6294586e-01	
   1.2292500e+02	  -3.8103086e-01	  -1.5860014e-01	
   1.2298000e+02	  -3.6858867e-01	  -1.5408360e-01	
   1.2303500e+02	  -3.5585885e-01	  -1.4940573e-01	
   1.2309000e+02	  -3.4298045e-01	  -1.4459400e-01	
   1.2314500e+02	  -3.3010540e-01	  -1.3969412e-01	
   1.2320000e+02	  -3.1738182e-01	  -1.3476544e-01	
   1.2325500e+02	  -3.0493447e-01	  -1.2987187e-01	
   1.2331000e+02	  -2.9284737e-01	  -1.2507063e-01	
   1.2336500e+02	  -2.8115312e-01	  -1.2040200e-01	
   1.2342000e+02	  -2.6983093e-01	  -1.1588243e-01	
   1.2347500e+02	  -2.5881175e-01	  -1.1150163e-01	
   1.2353000e+02	  -2.4798775e-01	  -1.0722291e-01	
   1.2358500e+02	  -2.3722492e-01	  -1.0298691e-01	
   1.2364000e+02	  -2.2637881e-01	  -9.8719278e-02	
   1.2369500e+02	  -2.1531333e-01	  -9.4341979e-02	
   1.2375000e+02	  -2.0392066e-01	  -8.9786844e-02	
   1.2380500e+02	  -1.9213966e-01	  -8.5009218e-02	
   1.2386000e+02	  -1.7996955e-01	  -7.9999664e-02	
   1.2391500e+02	  -1.6747607e-01	  -7.4791628e-02	
   1.2397000e+02	  -1.5478827e-01	  -6.9463088e-02	
   1.2402500e+02	  -1.4208629e-01	  -6.4131082e-02	
   1.2408000e+02	  -1.2958254e-01	  -5.8939784e-02	
   1.2413500e+02	  -1.1750025e-01	  -5.4044757e-02	
   1.2419000e+02	  -1.0605271e-01	  -4.9596496e-02	
   1.2424500e+02	  -9.5426309e-02	  -4.5725950e-02	
   1.2430000e+02	  -8.5769471e-02	  -4.2533759e-02	
   1.2435500e+02	  -7.7188024e-02	  -4.0083968e-02	
   1.2441000e+02	  -6.9745789e-02	  -3.8402369e-02	
   1.2446500e+02	  -6.3468988e-02	  -3.7479137e-02	
   1.2452000e+02	  -5.8353510e-02	  -3.7274863e-02	
   1.2457500e+02	  -5.4374042e-02	  -3.7729036e-02	
   1.2463000e+02	  -5.1494101e-02	  -3.8770385e-02	
   1.2468500e+02	  -4.9676061e-02	  -4.0328083e-02	
   1.2474000e+02	  -4.8889278e-02	  -4.2341684e-02	
   1.2479500e+02	  -4.9113326e-02	  -4.4767266e-02	
   1.2485000e+02	  -5.0334563e-02	  -4.7578322e-02	
   1.2490500e+02	  -5.2537136e-02	  -5.0761633e-02	
   1.2496000e+02	  -5.5691441e-02	  -5.4309674e-02	
   1.2501500e+02	  -5.9743057e-02	  -5.8211721e-02	
   1.2507000e+02	  -6.4604795e-02	  -6.2445817e-02	
   1.2512500e+02	  -7.0153801e-02	  -6.6973123e-02	
   1.2518000e+02	  -7.6233891e-02	  -7.1735027e-02	
   1.2523500e+02	  -8.2661924e-02	  -7.6652998e-02	
   1.2529000e+02	  -8.9237507e-02	  -8.1631615e-02	
   1.2534500e+02	  -9.5755591e-02	  -8.6564920e-02	
   1.2540000e+02	  -1.0202031e-01	  -9.1344878e-02	
   1.2545500e+02	  -1.0785748e-01	  -9.5870153e-02	
   1.2551000e+02	  -1.1312368e-01	  -1.0005395e-01	
   1.2556500e+02	  -1.1771060e-01	  -1.0382995e-01	
   1.2562000e+02	  -1.2154434e-01	  -1.0715496e-01	
   1.2567500e+02	  -1.2457968e-01	  -1.1000756e-01	
   1.2573000e+02	  -1.2679125e-01	  -1.1238327e-01	
   1.2578500e+02	  -1.2816413e-01	  -1.1428890e-01	
   1.2584000e+02	  -1.2868643e-01	  -1.1573730e-01	
   1.2589500e+02	  -1.2834523e-01	  -1.1674316e-01	
   1.2595000e+02	  -1.2712627e-01	  -1.1732004e-01	
   1.2600500e+02	  -1.2501766e-01	  -1.1747946e-01	
   1.2606000e+02	  -1.2201631e-01	  -1.1723248e-01	
   1.2611500e+02	  -1.1813455e-01	  -1.1659301e-01	
   1.2617000e+02	  -1.1340433e-01	  -1.1558146e-01	
   1.2622500e+02	  -1.0787875e-01	  -1.1422746e-01	
   1.2628000e+02	  -1.0163066e-01	  -1.1257086e-01	
   1.2633500e+02	  -9.4747306e-02	  -1.1066017e-01	
   1.2639000e+02	  -8.7320162e-02	  -1.0854783e-01	
   1.2644500e+02	  -7.9431548e-02	  -1.0628321e-01	
   1.2650000e+02	  -7.1141537e-02	  -1.0390487e-01	
   1.2655500e+02	  -6.2478806e-02	  -1.0143420e-01	
   1.2661000e+02	  -5.3437550e-02	  -9.8871659e-02	
   1.2666500e+02	  -4.3980767e-02	  -9.6196695e-02	
   1.2672000e+02	  -3.4048757e-02	  -9.3370949e-02	
   1.2677500e+02	  -2.3571077e-02	  -9.0344023e-02	
   1.2683000e+02	  -1.2480548e-02	  -8.7060682e-02	
