	
0   3   6
   0.0000000e+00	  -4.5906304e-01	   5.0436191e-02	
   5.5000000e-02	  -4.5173809e-01	   1.2413261e-02	
   1.1000000e-01	  -4.4541766e-01	  -2.4663664e-02	
   1.6500000e-01	  -4.3979333e-01	  -6.0203812e-02	
   2.2000000e-01	  -4.3456471e-01	  -9.3669709e-02	
   2.7500000e-01	  -4.2945811e-01	  -1.2459676e-01	
   3.3000000e-01	  -4.2423940e-01	  -1.5260797e-01	
   3.8500000e-01	  -4.1872032e-01	  -1.7742349e-01	
   4.4000000e-01	  -4.1275991e-01	  -1.9886513e-01	
   4.9500000e-01	  -4.0626294e-01	  -2.1685523e-01	
   5.5000000e-01	  -3.9917732e-01	  -2.3141003e-01	
   6.0500000e-01	  -3.9149217e-01	  -2.4262842e-01	
   6.6000000e-01	  -3.8323702e-01	  -2.5067741e-01	
   7.1500000e-01	  -3.7448010e-01	  -2.5577570e-01	
   7.7000000e-01	  -3.6532343e-01	  -2.5817668e-01	
   8.2500000e-01	  -3.5589620e-01	  -2.5815340e-01	
   8.8000000e-01	  -3.4634950e-01	  -2.5598713e-01	
   9.3500000e-01	  -3.3685382e-01	  -2.5196022e-01	
   9.9000000e-01	  -3.2759962e-01	  -2.4635252e-01	
   1.0450000e+00	  -3.1879944e-01	  -2.3944045e-01	
   1.1000000e+00	  -3.1068793e-01	  -2.3149703e-01	
   1.1550000e+00	  -3.0351510e-01	  -2.2279065e-01	
   1.2100000e+00	  -2.9753120e-01	  -2.1358114e-01	
   1.2650000e+00	  -2.9296721e-01	  -2.0411301e-01	
   1.3200000e+00	  -2.9001531e-01	  -1.9460650e-01	
   1.3750000e+00	  -2.8881209e-01	  -1.8524781e-01	
   1.4300000e+00	  -2.8942615e-01	  -1.7618069e-01	
   1.4850000e+00	  -2.9185203e-01	  -1.6750171e-01	
   1.5400000e+00	  -2.9601125e-01	  -1.5926065e-01	
   1.5950000e+00	  -3.0175974e-01	  -1.5146605e-01	
   1.6500000e+00	  -3.0890138e-01	  -1.4409523e-01	
   1.7050000e+00	  -3.1720596e-01	  -1.3710677e-01	
   1.7600000e+00	  -3.2642828e-01	  -1.3045390e-01	
   1.8150000e+00	  -3.3632451e-01	  -1.2409677e-01	
   1.8700000e+00	  -3.4666346e-01	  -1.1801159e-01	
   1.9250000e+00	  -3.5723118e-01	  -1.1219524e-01	
   1.9800000e+00	  -3.6782917e-01	  -1.0666347e-01	
   2.0350000e+00	  -3.7826748e-01	  -1.0144282e-01	
   2.0900000e+00	  -3.8835630e-01	  -9.6558472e-02	
   2.1450000e+00	  -3.9789993e-01	  -9.2022560e-02	
   2.2000000e+00	  -4.0669531e-01	  -8.7826185e-02	
   2.2550000e+00	  -4.1453517e-01	  -8.3936166e-02	
   2.3100000e+00	  -4.2121522e-01	  -8.0296311e-02	
   2.3650000e+00	  -4.2654566e-01	  -7.6832637e-02	
   2.4200000e+00	  -4.3036626e-01	  -7.3461551e-02	
   2.4750000e+00	  -4.3256307e-01	  -7.0099415e-02	
   2.5300000e+00	  -4.3308429e-01	  -6.6672503e-02	
   2.5850000e+00	  -4.3195430e-01	  -6.3127220e-02	
   2.6400000e+00	  -4.2928357e-01	  -5.9439918e-02	
   2.6950000e+00	  -4.2527000e-01	  -5.5623441e-02	
   2.7500000e+00	  -4.2018743e-01	  -5.1727001e-02	
   2.8050000e+00	  -4.1436287e-01	  -4.7828846e-02	
   2.8600000e+00	  -4.0814848e-01	  -4.4024439e-02	
   2.9150000e+00	  -4.0189482e-01	  -4.0413123e-02	
   2.9700000e+00	  -3.9592937e-01	  -3.7085338e-02	
   3.0250000e+00	  -3.9054243e-01	  -3.4112556e-02	
   3.0800000e+00	  -3.8598057e-01	  -3.1541754e-02	
   3.1350000e+00	  -3.8244596e-01	  -2.9394421e-02	
   3.1900000e+00	  -3.8009859e-01	  -2.7668978e-02	
   3.2450000e+00	  -3.7905966e-01	  -2.6346063e-02	
   3.3000000e+00	  -3.7941560e-01	  -2.5396175e-02	
   3.3550000e+00	  -3.8122302e-01	  -2.4788018e-02	
   3.4100000e+00	  -3.8451513e-01	  -2.4495801e-02	
   3.4650000e+00	  -3.8930866e-01	  -2.4504481e-02	
   3.5200000e+00	  -3.9560802e-01	  -2.4811745e-02	
   3.5750000e+00	  -4.0340313e-01	  -2.5425113e-02	
   3.6300000e+00	  -4.1266128e-01	  -2.6354363e-02	
   3.6850000e+00	  -4.2331603e-01	  -2.7602064e-02	
   3.7400000e+00	  -4.3525673e-01	  -2.9155503e-02	
   3.7950000e+00	  -4.4832179e-01	  -3.0981977e-02	
   3.8500000e+00	  -4.6229802e-01	  -3.3028259e-02	
   3.9050000e+00	  -4.7692717e-01	  -3.5224460e-02	
   3.9600000e+00	  -4.9191857e-01	  -3.7491526e-02	
   4.0150000e+00	  -5.0696544e-01	  -3.9750465e-02	
   4.0700000e+00	  -5.2176196e-01	  -4.1931202e-02	
   4.1250000e+00	  -5.3601874e-01	  -4.3979617e-02	
   4.1800000e+00	  -5.4947487e-01	  -4.5861865e-02	
   4.2350000e+00	  -5.6190451e-01	  -4.7565292e-02	
   4.2900000e+00	  -5.7311813e-01	  -4.9095803e-02	
   4.3450000e+00	  -5.8296023e-01	  -5.0472224e-02	
   4.4000000e+00	  -5.9130615e-01	  -5.1718657e-02	
   4.4550000e+00	  -5.9805959e-01	  -5.2855973e-02	
   4.5100000e+00	  -6.0315198e-01	  -5.3894377e-02	
   4.5650000e+00	  -6.0654410e-01	  -5.4829390e-02	
   4.6200000e+00	  -6.0822937e-01	  -5.5642336e-02	
   4.6750000e+00	  -6.0823758e-01	  -5.6304503e-02	
   4.7300000e+00	  -6.0663845e-01	  -5.6783535e-02	
   4.7850000e+00	  -6.0354483e-01	  -5.7050838e-02	
   4.8400000e+00	  -5.9911522e-01	  -5.7088849e-02	
   4.8950000e+00	  -5.9355434e-01	  -5.6897142e-02	
   4.9500000e+00	  -5.8711031e-01	  -5.6496413e-02	
   5.0050000e+00	  -5.8006785e-01	  -5.5928956e-02	
   5.0600000e+00	  -5.7273685e-01	  -5.5254056e-02	
   5.1150000e+00	  -5.6543503e-01	  -5.4538378e-02	
   5.1700000e+00	  -5.5846475e-01	  -5.3844045e-02	
   5.2250000e+00	  -5.5208768e-01	  -5.3218157e-02	
   5.2800000e+00	  -5.4650331e-01	  -5.2686242e-02	
   5.3350000e+00	  -5.4183776e-01	  -5.2250173e-02	
   5.3900000e+00	  -5.3814520e-01	  -5.1890221e-02	
   5.4450000e+00	  -5.3542033e-01	  -5.1571122e-02	
   5.5000000e+00	  -5.3361718e-01	  -5.1251651e-02	
   5.5550000e+00	  -5.3266947e-01	  -5.0896110e-02	
   5.6100000e+00	  -5.3250943e-01	  -5.0485855e-02	
   5.6650000e+00	  -5.3308304e-01	  -5.0029388e-02	
   5.7200000e+00	  -5.3436016e-01	  -4.9569466e-02	
   5.7750000e+00	  -5.3633797e-01	  -4.9185071e-02	
   5.8300000e+00	  -5.3903655e-01	  -4.8986244e-02	
   5.8850000e+00	  -5.4248806e-01	  -4.9101503e-02	
   5.9400000e+00	  -5.4672379e-01	  -4.9660304e-02	
   5.9950000e+00	  -5.5176237e-01	  -5.0774853e-02	
   6.0500000e+00	  -5.5760085e-01	  -5.2525172e-02	
   6.1050000e+00	  -5.6420910e-01	  -5.4949239e-02	
   6.1600000e+00	  -5.7152771e-01	  -5.8038498e-02	
   6.2150000e+00	  -5.7946919e-01	  -6.1738727e-02	
   6.2700000e+00	  -5.8792359e-01	  -6.5956611e-02	
   6.3250000e+00	  -5.9676967e-01	  -7.0571711e-02	
   6.3800000e+00	  -6.0588995e-01	  -7.5452084e-02	
   6.4350000e+00	  -6.1518537e-01	  -8.0470936e-02	
   6.4900000e+00	  -6.2458625e-01	  -8.5522231e-02	
   6.5450000e+00	  -6.3405856e-01	  -9.0533909e-02	
   6.6000000e+00	  -6.4360429e-01	  -9.5476997e-02	
   6.6550000e+00	  -6.5325440e-01	  -1.0036803e-01	
   6.7100000e+00	  -6.6305479e-01	  -1.0526301e-01	
   6.7650000e+00	  -6.7304822e-01	  -1.1024381e-01	
   6.8200000e+00	  -6.8325598e-01	  -1.1539996e-01	
   6.8750000e+00	  -6.9366267e-01	  -1.2081027e-01	
   6.9300000e+00	  -7.0420629e-01	  -1.2652807e-01	
   6.9850000e+00	  -7.1477488e-01	  -1.3257267e-01	
   7.0400000e+00	  -7.2520858e-01	  -1.3892724e-01	
   7.0950000e+00	  -7.3530593e-01	  -1.4554121e-01	
   7.1500000e+00	  -7.4483545e-01	  -1.5233639e-01	
   7.2050000e+00	  -7.5355487e-01	  -1.5921626e-01	
   7.2600000e+00	  -7.6123625e-01	  -1.6607754e-01	
   7.3150000e+00	  -7.6769134e-01	  -1.7282180e-01	
   7.3700000e+00	  -7.7279121e-01	  -1.7936561e-01	
   7.4250000e+00	  -7.7647785e-01	  -1.8564803e-01	
   7.4800000e+00	  -7.7876743e-01	  -1.9163340e-01	
   7.5350000e+00	  -7.7974528e-01	  -1.9730751e-01	
   7.5900000e+00	  -7.7955416e-01	  -2.0266779e-01	
   7.6450000e+00	  -7.7837949e-01	  -2.0771122e-01	
   7.7000000e+00	  -7.7643379e-01	  -2.1242413e-01	
   7.7550000e+00	  -7.7394160e-01	  -2.1677654e-01	
   7.8100000e+00	  -7.7112661e-01	  -2.2072194e-01	
   7.8650000e+00	  -7.6820327e-01	  -2.2420157e-01	
   7.9200000e+00	  -7.6537285e-01	  -2.2715112e-01	
   7.9750000e+00	  -7.6282148e-01	  -2.2950827e-01	
   8.0300000e+00	  -7.6071803e-01	  -2.3121968e-01	
   8.0850000e+00	  -7.5921121e-01	  -2.3224655e-01	
   8.1400000e+00	  -7.5842582e-01	  -2.3256777e-01	
   8.1950000e+00	  -7.5845783e-01	  -2.3217920e-01	
   8.2500000e+00	  -7.5936734e-01	  -2.3108870e-01	
   8.3050000e+00	  -7.6117049e-01	  -2.2930872e-01	
   8.3600000e+00	  -7.6383388e-01	  -2.2684889e-01	
   8.4150000e+00	  -7.6727487e-01	  -2.2371087e-01	
   8.4700000e+00	  -7.7136711e-01	  -2.1988637e-01	
   8.5250000e+00	  -7.7594790e-01	  -2.1535923e-01	
   8.5800000e+00	  -7.8082406e-01	  -2.1011057e-01	
   8.6350000e+00	  -7.8577618e-01	  -2.0412562e-01	
   8.6900000e+00	  -7.9056381e-01	  -1.9740054e-01	
   8.7450000e+00	  -7.9493432e-01	  -1.8994913e-01	
   8.8000000e+00	  -7.9863547e-01	  -1.8180857e-01	
   8.8550000e+00	  -8.0142933e-01	  -1.7304188e-01	
   8.9100000e+00	  -8.0310325e-01	  -1.6373489e-01	
   8.9650000e+00	  -8.0347434e-01	  -1.5398737e-01	
   9.0200000e+00	  -8.0238649e-01	  -1.4390047e-01	
   9.0750000e+00	  -7.9970318e-01	  -1.3356399e-01	
   9.1300000e+00	  -7.9530130e-01	  -1.2304672e-01	
   9.1850000e+00	  -7.8907127e-01	  -1.1239224e-01	
   9.2400000e+00	  -7.8092510e-01	  -1.0162131e-01	
   9.2950000e+00	  -7.7081056e-01	  -9.0739525e-02	
   9.3500000e+00	  -7.5872871e-01	  -7.9747971e-02	
   9.4050000e+00	  -7.4475204e-01	  -6.8655044e-02	
   9.4600000e+00	  -7.2903957e-01	  -5.7488071e-02	
   9.5150000e+00	  -7.1184401e-01	  -4.6302805e-02	
   9.5700000e+00	  -6.9350860e-01	  -3.5188840e-02	
   9.6250000e+00	  -6.7445524e-01	  -2.4269390e-02	
   9.6800000e+00	  -6.5516641e-01	  -1.3694391e-02	
   9.7350000e+00	  -6.3616259e-01	  -3.6273309e-03	
   9.7900000e+00	  -6.1797541e-01	   5.7716777e-03	
   9.8450000e+00	  -6.0111830e-01	   1.4362834e-02	
   9.9000000e+00	  -5.8605746e-01	   2.2040237e-02	
   9.9550000e+00	  -5.7318715e-01	   2.8739792e-02	
   1.0010000e+01	  -5.6281256e-01	   3.4440465e-02	
   1.0065000e+01	  -5.5514163e-01	   3.9159603e-02	
   1.0120000e+01	  -5.5028611e-01	   4.2944561e-02	
   1.0175000e+01	  -5.4827057e-01	   4.5863117e-02	
   1.0230000e+01	  -5.4904667e-01	   4.7994073e-02	
   1.0285000e+01	  -5.5250980e-01	   4.9418175e-02	
   1.0340000e+01	  -5.5851475e-01	   5.0209565e-02	
   1.0395000e+01	  -5.6688589e-01	   5.0429281e-02	
   1.0450000e+01	  -5.7741947e-01	   5.0122985e-02	
   1.0505000e+01	  -5.8987969e-01	   4.9324103e-02	
   1.0560000e+01	  -6.0399347e-01	   4.8061638e-02	
   1.0615000e+01	  -6.1944760e-01	   4.6370025e-02	
   1.0670000e+01	  -6.3588915e-01	   4.4297416e-02	
   1.0725000e+01	  -6.5292947e-01	   4.1909455e-02	
   1.0780000e+01	  -6.7015281e-01	   3.9287874e-02	
   1.0835000e+01	  -6.8712939e-01	   3.6525396e-02	
   1.0890000e+01	  -7.0343118e-01	   3.3718706e-02	
   1.0945000e+01	  -7.1864905e-01	   3.0960156e-02	
   1.1000000e+01	  -7.3240974e-01	   2.8328644e-02	
   1.1055000e+01	  -7.4439069e-01	   2.5880560e-02	
   1.1110000e+01	  -7.5433222e-01	   2.3641854e-02	
   1.1165000e+01	  -7.6204737e-01	   2.1602166e-02	
   1.1220000e+01	  -7.6742915e-01	   1.9712321e-02	
   1.1275000e+01	  -7.7045222e-01	   1.7886672e-02	
   1.1330000e+01	  -7.7116715e-01	   1.6011045e-02	
   1.1385000e+01	  -7.6968758e-01	   1.3955418e-02	
   1.1440000e+01	  -7.6617348e-01	   1.1589011e-02	
   1.1495000e+01	  -7.6081470e-01	   8.7952095e-03	
   1.1550000e+01	  -7.5381833e-01	   5.4842519e-03	
   1.1605000e+01	  -7.4540162e-01	   1.6020847e-03	
   1.1660000e+01	  -7.3579035e-01	  -2.8654819e-03	
   1.1715000e+01	  -7.2522130e-01	  -7.8929607e-03	
   1.1770000e+01	  -7.1394675e-01	  -1.3418837e-02	
   1.1825000e+01	  -7.0223796e-01	  -1.9352536e-02	
   1.1880000e+01	  -6.9038523e-01	  -2.5584794e-02	
   1.1935000e+01	  -6.7869386e-01	  -3.2000083e-02	
   1.1990000e+01	  -6.6747722e-01	  -3.8488327e-02	
   1.2045000e+01	  -6.5704959e-01	  -4.4953338e-02	
   1.2100000e+01	  -6.4771891e-01	  -5.1316127e-02	
   1.2155000e+01	  -6.3977626e-01	  -5.7511934e-02	
   1.2210000e+01	  -6.3348000e-01	  -6.3482034e-02	
   1.2265000e+01	  -6.2903760e-01	  -6.9164261e-02	
   1.2320000e+01	  -6.2659024e-01	  -7.4486729e-02	
   1.2375000e+01	  -6.2620262e-01	  -7.9366318e-02	
   1.2430000e+01	  -6.2785812e-01	  -8.3710748e-02	
   1.2485000e+01	  -6.3145896e-01	  -8.7422892e-02	
   1.2540000e+01	  -6.3683190e-01	  -9.0407059e-02	
   1.2595000e+01	  -6.4373932e-01	  -9.2576896e-02	
   1.2650000e+01	  -6.5189481e-01	  -9.3863825e-02	
   1.2705000e+01	  -6.6098110e-01	  -9.4224595e-02	
   1.2760000e+01	  -6.7066773e-01	  -9.3646472e-02	
   1.2815000e+01	  -6.8062628e-01	  -9.2148571e-02	
   1.2870000e+01	  -6.9054105e-01	  -8.9778405e-02	
   1.2925000e+01	  -7.0011461e-01	  -8.6604244e-02	
   1.2980000e+01	  -7.0906870e-01	  -8.2705136e-02	
   1.3035000e+01	  -7.1714333e-01	  -7.8160569e-02	
   1.3090000e+01	  -7.2409625e-01	  -7.3041305e-02	
   1.3145000e+01	  -7.2970336e-01	  -6.7403273e-02	
   1.3200000e+01	  -7.3375984e-01	  -6.1286202e-02	
   1.3255000e+01	  -7.3608279e-01	  -5.4716965e-02	
   1.3310000e+01	  -7.3651682e-01	  -4.7716089e-02	
   1.3365000e+01	  -7.3494309e-01	  -4.0305795e-02	
   1.3420000e+01	  -7.3129018e-01	  -3.2518275e-02	
   1.3475000e+01	  -7.2554415e-01	  -2.4402862e-02	
   1.3530000e+01	  -7.1775519e-01	  -1.6030945e-02	
   1.3585000e+01	  -7.0803917e-01	  -7.4977839e-03	
   1.3640000e+01	  -6.9657335e-01	   1.0799253e-03	
   1.3695000e+01	  -6.8358593e-01	   9.5717263e-03	
   1.3750000e+01	  -6.6934087e-01	   1.7845604e-02	
   1.3805000e+01	  -6.5412151e-01	   2.5782105e-02	
   1.3860000e+01	  -6.3821683e-01	   3.3287411e-02	
   1.3915000e+01	  -6.2191097e-01	   4.0303201e-02	
   1.3970000e+01	  -6.0547624e-01	   4.6811836e-02	
   1.4025000e+01	  -5.8917142e-01	   5.2835466e-02	
   1.4080000e+01	  -5.7324741e-01	   5.8427987e-02	
   1.4135000e+01	  -5.5795910e-01	   6.3660583e-02	
   1.4190000e+01	  -5.4357944e-01	   6.8603692e-02	
   1.4245000e+01	  -5.3041239e-01	   7.3308895e-02	
   1.4300000e+01	  -5.1880292e-01	   7.7793796e-02	
   1.4355000e+01	  -5.0914236e-01	   8.2032185e-02	
   1.4410000e+01	  -5.0186689e-01	   8.5951002e-02	
   1.4465000e+01	  -4.9744692e-01	   8.9434919e-02	
   1.4520000e+01	  -4.9636713e-01	   9.2338567e-02	
   1.4575000e+01	  -4.9909901e-01	   9.4504879e-02	
   1.4630000e+01	  -5.0607055e-01	   9.5786167e-02	
   1.4685000e+01	  -5.1763699e-01	   9.6063841e-02	
   1.4740000e+01	  -5.3405475e-01	   9.5263634e-02	
   1.4795000e+01	  -5.5545691e-01	   9.3364827e-02	
   1.4850000e+01	  -5.8182891e-01	   9.0402952e-02	
   1.4905000e+01	  -6.1298602e-01	   8.6465591e-02	
   1.4960000e+01	  -6.4855551e-01	   8.1681695e-02	
   1.5015000e+01	  -6.8796401e-01	   7.6206592e-02	
   1.5070000e+01	  -7.3042782e-01	   7.0205689e-02	
   1.5125000e+01	  -7.7494468e-01	   6.3839160e-02	
   1.5180000e+01	  -8.2028584e-01	   5.7249223e-02	
   1.5235000e+01	  -8.6498794e-01	   5.0552094e-02	
   1.5290000e+01	  -9.0734411e-01	   4.3836678e-02	
   1.5345000e+01	  -9.4539583e-01	   3.7170486e-02	
   1.5400000e+01	  -9.7692968e-01	   3.0611232e-02	
   1.5455000e+01	  -9.9948335e-01	   2.4221508e-02	
   1.5510000e+01	  -1.0103644e+00	   1.8083235e-02	
   1.5565000e+01	  -1.0066847e+00	   1.2307976e-02	
   1.5620000e+01	  -9.8541353e-01	   7.0400370e-03	
   1.5675000e+01	  -9.4344756e-01	   2.4519689e-03	
   1.5730000e+01	  -8.7769725e-01	  -1.2658169e-03	
   1.5785000e+01	  -7.8518667e-01	  -3.9193921e-03	
   1.5840000e+01	  -6.6316785e-01	  -5.3279295e-03	
   1.5895000e+01	  -5.0924799e-01	  -5.3406727e-03	
   1.5950000e+01	  -3.2152407e-01	  -3.8524274e-03	
   1.6005000e+01	  -9.8716720e-02	  -8.1643111e-04	
   1.6060000e+01	   1.5970482e-01	   3.7465183e-03	
   1.6115000e+01	   4.5341531e-01	   9.7447870e-03	
   1.6170000e+01	   7.8115159e-01	   1.7020529e-02	
   1.6225000e+01	   1.1406615e+00	   2.5361588e-02	
   1.6280000e+01	   1.5286869e+00	   3.4517040e-02	
   1.6335000e+01	   1.9409883e+00	   4.4212534e-02	
   1.6390000e+01	   2.3724204e+00	   5.4163591e-02	
   1.6445000e+01	   2.8170691e+00	   6.4086563e-02	
   1.6500000e+01	   3.2684580e+00	   7.3707690e-02	
   1.6555000e+01	   3.7198205e+00	   8.2770855e-02	
   1.6610000e+01	   4.1644166e+00	   9.1044045e-02	
   1.6665000e+01	   4.5958448e+00	   9.8323607e-02	
   1.6720000e+01	   5.0083016e+00	   1.0443563e-01	
   1.6775000e+01	   5.3967697e+00	   1.0923523e-01	
   1.6830000e+01	   5.7571365e+00	   1.1260556e-01	
   1.6885000e+01	   6.0862563e+00	   1.1445812e-01	
   1.6940000e+01	   6.3819673e+00	   1.1473565e-01	
   1.6995000e+01	   6.6430707e+00	   1.1341755e-01	
   1.7050000e+01	   6.8692810e+00	   1.1052617e-01	
   1.7105000e+01	   7.0611473e+00	   1.0613113e-01	
   1.7160000e+01	   7.2199561e+00	   1.0034996e-01	
   1.7215000e+01	   7.3476203e+00	   9.3344927e-02	
   1.7270000e+01	   7.4465590e+00	   8.5316252e-02	
   1.7325000e+01	   7.5195722e+00	   7.6491244e-02	
   1.7380000e+01	   7.5697114e+00	   6.7109028e-02	
   1.7435000e+01	   7.6001528e+00	   5.7402657e-02	
   1.7490000e+01	   7.6140770e+00	   4.7581987e-02	
   1.7545000e+01	   7.6145634e+00	   3.7820490e-02	
   1.7600000e+01	   7.6045066e+00	   2.8247844e-02	
   1.7655000e+01	   7.5865575e+00	   1.8949131e-02	
   1.7710000e+01	   7.5630903e+00	   9.9703640e-03	
   1.7765000e+01	   7.5361869e+00	   1.3284636e-03	
   1.7820000e+01	   7.5076343e+00	  -6.9770155e-03	
   1.7875000e+01	   7.4789294e+00	  -1.4952772e-02	
   1.7930000e+01	   7.4512894e+00	  -2.2603044e-02	
   1.7985000e+01	   7.4256645e+00	  -2.9924593e-02	
   1.8040000e+01	   7.4027480e+00	  -3.6905612e-02	
   1.8095000e+01	   7.3829833e+00	  -4.3527841e-02	
   1.8150000e+01	   7.3665706e+00	  -4.9771198e-02	
   1.8205000e+01	   7.3534718e+00	  -5.5620385e-02	
   1.8260000e+01	   7.3434177e+00	  -6.1072608e-02	
   1.8315000e+01	   7.3359163e+00	  -6.6144868e-02	
   1.8370000e+01	   7.3302656e+00	  -7.0879073e-02	
   1.8425000e+01	   7.3255741e+00	  -7.5343444e-02	
   1.8480000e+01	   7.3207887e+00	  -7.9628956e-02	
   1.8535000e+01	   7.3147318e+00	  -8.3839986e-02	
   1.8590000e+01	   7.3061451e+00	  -8.8080334e-02	
   1.8645000e+01	   7.2937358e+00	  -9.2438490e-02	
   1.8700000e+01	   7.2762212e+00	  -9.6976083e-02	
   1.8755000e+01	   7.2523696e+00	  -1.0172093e-01	
   1.8810000e+01	   7.2210385e+00	  -1.0666436e-01	
   1.8865000e+01	   7.1812119e+00	  -1.1176266e-01	
   1.8920000e+01	   7.1320326e+00	  -1.1694278e-01	
   1.8975000e+01	   7.0728352e+00	  -1.2211102e-01	
   1.9030000e+01	   7.0031774e+00	  -1.2716340e-01	
   1.9085000e+01	   6.9228704e+00	  -1.3199679e-01	
   1.9140000e+01	   6.8320059e+00	  -1.3652136e-01	
   1.9195000e+01	   6.7309803e+00	  -1.4067324e-01	
   1.9250000e+01	   6.6205156e+00	  -1.4442491e-01	
   1.9305000e+01	   6.5016801e+00	  -1.4778951e-01	
   1.9360000e+01	   6.3759095e+00	  -1.5081683e-01	
   1.9415000e+01	   6.2450251e+00	  -1.5358028e-01	
   1.9470000e+01	   6.1112421e+00	  -1.5615772e-01	
   1.9525000e+01	   5.9771572e+00	  -1.5861162e-01	
   1.9580000e+01	   5.8457051e+00	  -1.6097361e-01	
   1.9635000e+01	   5.7200768e+00	  -1.6323582e-01	
   1.9690000e+01	   5.6035982e+00	  -1.6534869e-01	
   1.9745000e+01	   5.4995668e+00	  -1.6722572e-01	
   1.9800000e+01	   5.4110446e+00	  -1.6875561e-01	
   1.9855000e+01	   5.3406088e+00	  -1.6982091e-01	
   1.9910000e+01	   5.2900786e+00	  -1.7032048e-01	
   1.9965000e+01	   5.2602690e+00	  -1.7019179e-01	
   2.0020000e+01	   5.2508430e+00	  -1.6942859e-01	
   2.0075000e+01	   5.2603095e+00	  -1.6809049e-01	
   2.0130000e+01	   5.2861731e+00	  -1.6630269e-01	
   2.0185000e+01	   5.3251879e+00	  -1.6424648e-01	
   2.0240000e+01	   5.3736522e+00	  -1.6214234e-01	
   2.0295000e+01	   5.4276914e+00	  -1.6022785e-01	
   2.0350000e+01	   5.4835074e+00	  -1.5873361e-01	
   2.0405000e+01	   5.5375874e+00	  -1.5786147e-01	
   2.0460000e+01	   5.5868669e+00	  -1.5776812e-01	
   2.0515000e+01	   5.6288475e+00	  -1.5855515e-01	
   2.0570000e+01	   5.6616660e+00	  -1.6026485e-01	
   2.0625000e+01	   5.6841200e+00	  -1.6288073e-01	
   2.0680000e+01	   5.6956498e+00	  -1.6633224e-01	
   2.0735000e+01	   5.6962787e+00	  -1.7050395e-01	
   2.0790000e+01	   5.6865135e+00	  -1.7524849e-01	
   2.0845000e+01	   5.6672109e+00	  -1.8040173e-01	
   2.0900000e+01	   5.6394296e+00	  -1.8579818e-01	
   2.0955000e+01	   5.6043179e+00	  -1.9128350e-01	
   2.1010000e+01	   5.5630814e+00	  -1.9672099e-01	
   2.1065000e+01	   5.5170370e+00	  -2.0199079e-01	
   2.1120000e+01	   5.4677015e+00	  -2.0698422e-01	
   2.1175000e+01	   5.4168607e+00	  -2.1159667e-01	
   2.1230000e+01	   5.3665945e+00	  -2.1572186e-01	
   2.1285000e+01	   5.3192498e+00	  -2.1924924e-01	
   2.1340000e+01	   5.2773626e+00	  -2.2206503e-01	
   2.1395000e+01	   5.2435337e+00	  -2.2405696e-01	
   2.1450000e+01	   5.2202575e+00	  -2.2512259e-01	
   2.1505000e+01	   5.2097044e+00	  -2.2518123e-01	
   2.1560000e+01	   5.2134566e+00	  -2.2418953e-01	
   2.1615000e+01	   5.2322176e+00	  -2.2215806e-01	
   2.1670000e+01	   5.2655526e+00	  -2.1916422e-01	
   2.1725000e+01	   5.3117352e+00	  -2.1535681e-01	
   2.1780000e+01	   5.3677522e+00	  -2.1094949e-01	
   2.1835000e+01	   5.4294659e+00	  -2.0620403e-01	
   2.1890000e+01	   5.4918914e+00	  -2.0140689e-01	
   2.1945000e+01	   5.5495178e+00	  -1.9684448e-01	
   2.2000000e+01	   5.5966200e+00	  -1.9278139e-01	
   2.2055000e+01	   5.6275330e+00	  -1.8944348e-01	
   2.2110000e+01	   5.6368867e+00	  -1.8700658e-01	
   2.2165000e+01	   5.6198004e+00	  -1.8559074e-01	
   2.2220000e+01	   5.5720373e+00	  -1.8526098e-01	
   2.2275000e+01	   5.4901139e+00	  -1.8603419e-01	
   2.2330000e+01	   5.3713693e+00	  -1.8789070e-01	
   2.2385000e+01	   5.2140070e+00	  -1.9078808e-01	
   2.2440000e+01	   5.0171413e+00	  -1.9467410e-01	
   2.2495000e+01	   4.7808687e+00	  -1.9949587e-01	
   2.2550000e+01	   4.5063528e+00	  -2.0520361e-01	
   2.2605000e+01	   4.1958906e+00	  -2.1174879e-01	
   2.2660000e+01	   3.8529379e+00	  -2.1907718e-01	
   2.2715000e+01	   3.4820781e+00	  -2.2711832e-01	
   2.2770000e+01	   3.0889208e+00	  -2.3577474e-01	
   2.2825000e+01	   2.6799124e+00	  -2.4491504e-01	
   2.2880000e+01	   2.2620579e+00	  -2.5437339e-01	
   2.2935000e+01	   1.8425809e+00	  -2.6395509e-01	
   2.2990000e+01	   1.4285723e+00	  -2.7344565e-01	
   2.3045000e+01	   1.0266810e+00	  -2.8262221e-01	
   2.3100000e+01	   6.4287260e-01	  -2.9126650e-01	
   2.3155000e+01	   2.8225750e-01	  -2.9917846e-01	
   2.3210000e+01	  -5.1017437e-02	  -3.0618927e-01	
   2.3265000e+01	  -3.5382160e-01	  -3.1217291e-01	
   2.3320000e+01	  -6.2404591e-01	  -3.1705538e-01	
   2.3375000e+01	  -8.6056854e-01	  -3.2081974e-01	
   2.3430000e+01	  -1.0631868e+00	  -3.2350421e-01	
   2.3485000e+01	  -1.2325203e+00	  -3.2519297e-01	
   2.3540000e+01	  -1.3698930e+00	  -3.2600196e-01	
   2.3595000e+01	  -1.4772025e+00	  -3.2606322e-01	
   2.3650000e+01	  -1.5567859e+00	  -3.2551061e-01	
   2.3705000e+01	  -1.6112905e+00	  -3.2446836e-01	
   2.3760000e+01	  -1.6435545e+00	  -3.2304352e-01	
   2.3815000e+01	  -1.6565038e+00	  -3.2132290e-01	
   2.3870000e+01	  -1.6530634e+00	  -3.1937401e-01	
   2.3925000e+01	  -1.6360843e+00	  -3.1724964e-01	
   2.3980000e+01	  -1.6082845e+00	  -3.1499524e-01	
   2.4035000e+01	  -1.5722007e+00	  -3.1265777e-01	
   2.4090000e+01	  -1.5301508e+00	  -3.1029396e-01	
   2.4145000e+01	  -1.4842083e+00	  -3.0797665e-01	
   2.4200000e+01	  -1.4361877e+00	  -3.0579867e-01	
   2.4255000e+01	  -1.3876409e+00	  -3.0387364e-01	
   2.4310000e+01	  -1.3398597e+00	  -3.0233135e-01	
   2.4365000e+01	  -1.2938812e+00	  -3.0130668e-01	
   2.4420000e+01	  -1.2504967e+00	  -3.0092330e-01	
   2.4475000e+01	  -1.2102628e+00	  -3.0127599e-01	
   2.4530000e+01	  -1.1735188e+00	  -3.0241562e-01	
   2.4585000e+01	  -1.1404095e+00	  -3.0434017e-01	
   2.4640000e+01	  -1.1109165e+00	  -3.0699350e-01	
   2.4695000e+01	  -1.0848972e+00	  -3.1027120e-01	
   2.4750000e+01	  -1.0621236e+00	  -3.1403113e-01	
   2.4805000e+01	  -1.0423178e+00	  -3.1810695e-01	
   2.4860000e+01	  -1.0251833e+00	  -3.2232380e-01	
   2.4915000e+01	  -1.0104327e+00	  -3.2651493e-01	
   2.4970000e+01	  -9.9780962e-01	  -3.3053805e-01	
   2.5025000e+01	  -9.8710556e-01	  -3.3428997e-01	
   2.5080000e+01	  -9.7816898e-01	  -3.3771760e-01	
   2.5135000e+01	  -9.7090859e-01	  -3.4082272e-01	
   2.5190000e+01	  -9.6528926e-01	  -3.4365770e-01	
   2.5245000e+01	  -9.6132016e-01	  -3.4631176e-01	
   2.5300000e+01	  -9.5903635e-01	  -3.4889063e-01	
   2.5355000e+01	  -9.5847600e-01	  -3.5149448e-01	
   2.5410000e+01	  -9.5965594e-01	  -3.5419874e-01	
   2.5465000e+01	  -9.6254990e-01	  -3.5704077e-01	
   2.5520000e+01	  -9.6707464e-01	  -3.6001401e-01	
   2.5575000e+01	  -9.7308697e-01	  -3.6306960e-01	
   2.5630000e+01	  -9.8039060e-01	  -3.6612443e-01	
   2.5685000e+01	  -9.8875051e-01	  -3.6907372e-01	
   2.5740000e+01	  -9.9791159e-01	  -3.7180633e-01	
   2.5795000e+01	  -1.0076180e+00	  -3.7422047e-01	
   2.5850000e+01	  -1.0176292e+00	  -3.7623774e-01	
   2.5905000e+01	  -1.0277318e+00	  -3.7781337e-01	
   2.5960000e+01	  -1.0377465e+00	  -3.7894162e-01	
   2.6015000e+01	  -1.0475301e+00	  -3.7965552e-01	
   2.6070000e+01	  -1.0569708e+00	  -3.8002055e-01	
   2.6125000e+01	  -1.0659807e+00	  -3.8012317e-01	
   2.6180000e+01	  -1.0744902e+00	  -3.8005666e-01	
   2.6235000e+01	  -1.0824463e+00	  -3.7990710e-01	
   2.6290000e+01	  -1.0898152e+00	  -3.7974225e-01	
   2.6345000e+01	  -1.0965851e+00	  -3.7960489e-01	
   2.6400000e+01	  -1.1027671e+00	  -3.7951174e-01	
   2.6455000e+01	  -1.1083961e+00	  -3.7945735e-01	
   2.6510000e+01	  -1.1135295e+00	  -3.7942159e-01	
   2.6565000e+01	  -1.1182446e+00	  -3.7937877e-01	
   2.6620000e+01	  -1.1226360e+00	  -3.7930702e-01	
   2.6675000e+01	  -1.1268155e+00	  -3.7919684e-01	
   2.6730000e+01	  -1.1309122e+00	  -3.7905759e-01	
   2.6785000e+01	  -1.1350685e+00	  -3.7892054e-01	
   2.6840000e+01	  -1.1394294e+00	  -3.7883773e-01	
   2.6895000e+01	  -1.1441259e+00	  -3.7887605e-01	
   2.6950000e+01	  -1.1492556e+00	  -3.7910690e-01	
   2.7005000e+01	  -1.1548628e+00	  -3.7959374e-01	
   2.7060000e+01	  -1.1609213e+00	  -3.8038100e-01	
   2.7115000e+01	  -1.1673239e+00	  -3.8148689e-01	
   2.7170000e+01	  -1.1738785e+00	  -3.8290067e-01	
   2.7225000e+01	  -1.1803140e+00	  -3.8458395e-01	
   2.7280000e+01	  -1.1862950e+00	  -3.8647540e-01	
   2.7335000e+01	  -1.1914444e+00	  -3.8849838e-01	
   2.7390000e+01	  -1.1953710e+00	  -3.9057031e-01	
   2.7445000e+01	  -1.1976993e+00	  -3.9261269e-01	
   2.7500000e+01	  -1.1980974e+00	  -3.9456149e-01	
   2.7555000e+01	  -1.1963041e+00	  -3.9637712e-01	
   2.7610000e+01	  -1.1921528e+00	  -3.9805236e-01	
   2.7665000e+01	  -1.1855905e+00	  -3.9961600e-01	
   2.7720000e+01	  -1.1766873e+00	  -4.0112990e-01	
   2.7775000e+01	  -1.1656307e+00	  -4.0267879e-01	
   2.7830000e+01	  -1.1527065e+00	  -4.0435431e-01	
   2.7885000e+01	  -1.1382717e+00	  -4.0623705e-01	
   2.7940000e+01	  -1.1227246e+00	  -4.0838110e-01	
   2.7995000e+01	  -1.1064795e+00	  -4.1080340e-01	
   2.8050000e+01	  -1.0899460e+00	  -4.1347791e-01	
   2.8105000e+01	  -1.0735145e+00	  -4.1633441e-01	
   2.8160000e+01	  -1.0575449e+00	  -4.1926266e-01	
   2.8215000e+01	  -1.0423609e+00	  -4.2212218e-01	
   2.8270000e+01	  -1.0282472e+00	  -4.2475654e-01	
   2.8325000e+01	  -1.0154508e+00	  -4.2700959e-01	
   2.8380000e+01	  -1.0041852e+00	  -4.2874182e-01	
   2.8435000e+01	  -9.9463750e-01	  -4.2984578e-01	
   2.8490000e+01	  -9.8697435e-01	  -4.3025881e-01	
   2.8545000e+01	  -9.8134300e-01	  -4.2997106e-01	
   2.8600000e+01	  -9.7786608e-01	  -4.2902646e-01	
   2.8655000e+01	  -9.7663034e-01	  -4.2751493e-01	
   2.8710000e+01	  -9.7767102e-01	  -4.2555675e-01	
   2.8765000e+01	  -9.8095507e-01	  -4.2328247e-01	
   2.8820000e+01	  -9.8636809e-01	  -4.2081386e-01	
   2.8875000e+01	  -9.9370837e-01	  -4.1824906e-01	
   2.8930000e+01	  -1.0026895e+00	  -4.1565340e-01	
   2.8985000e+01	  -1.0129512e+00	  -4.1305621e-01	
   2.9040000e+01	  -1.0240777e+00	  -4.1045365e-01	
   2.9095000e+01	  -1.0356238e+00	  -4.0781672e-01	
   2.9150000e+01	  -1.0471439e+00	  -4.0510246e-01	
   2.9205000e+01	  -1.0582208e+00	  -4.0226616e-01	
   2.9260000e+01	  -1.0684882e+00	  -3.9927237e-01	
   2.9315000e+01	  -1.0776457e+00	  -3.9610314e-01	
   2.9370000e+01	  -1.0854693e+00	  -3.9276280e-01	
   2.9425000e+01	  -1.0918158e+00	  -3.8927915e-01	
   2.9480000e+01	  -1.0966200e+00	  -3.8570101e-01	
   2.9535000e+01	  -1.0998857e+00	  -3.8209193e-01	
   2.9590000e+01	  -1.1016712e+00	  -3.7852051e-01	
   2.9645000e+01	  -1.1020750e+00	  -3.7504924e-01	
   2.9700000e+01	  -1.1012207e+00	  -3.7172452e-01	
   2.9755000e+01	  -1.0992442e+00	  -3.6857013e-01	
   2.9810000e+01	  -1.0962846e+00	  -3.6558534e-01	
   2.9865000e+01	  -1.0924775e+00	  -3.6274771e-01	
   2.9920000e+01	  -1.0879518e+00	  -3.6001961e-01	
   2.9975000e+01	  -1.0828287e+00	  -3.5735625e-01	
   3.0030000e+01	  -1.0772210e+00	  -3.5471287e-01	
   3.0085000e+01	  -1.0712323e+00	  -3.5205020e-01	
   3.0140000e+01	  -1.0649552e+00	  -3.4933871e-01	
   3.0195000e+01	  -1.0584677e+00	  -3.4656184e-01	
   3.0250000e+01	  -1.0518296e+00	  -3.4371718e-01	
   3.0305000e+01	  -1.0450791e+00	  -3.4081369e-01	
   3.0360000e+01	  -1.0382295e+00	  -3.3786457e-01	
   3.0415000e+01	  -1.0312652e+00	  -3.3487810e-01	
   3.0470000e+01	  -1.0241370e+00	  -3.3184923e-01	
   3.0525000e+01	  -1.0167592e+00	  -3.2875412e-01	
   3.0580000e+01	  -1.0090140e+00	  -3.2554887e-01	
   3.0635000e+01	  -1.0007643e+00	  -3.2217266e-01	
   3.0690000e+01	  -9.9187391e-01	  -3.1855464e-01	
   3.0745000e+01	  -9.8222970e-01	  -3.1462229e-01	
   3.0800000e+01	  -9.7176164e-01	  -3.1031038e-01	
   3.0855000e+01	  -9.6045909e-01	  -3.0556952e-01	
   3.0910000e+01	  -9.4838095e-01	  -3.0037397e-01	
   3.0965000e+01	  -9.3565666e-01	  -2.9472741e-01	
   3.1020000e+01	  -9.2247717e-01	  -2.8866569e-01	
   3.1075000e+01	  -9.0907886e-01	  -2.8225551e-01	
   3.1130000e+01	  -8.9572477e-01	  -2.7558777e-01	
   3.1185000e+01	  -8.8268582e-01	  -2.6876657e-01	
   3.1240000e+01	  -8.7022315e-01	  -2.6189654e-01	
   3.1295000e+01	  -8.5857253e-01	  -2.5507208e-01	
   3.1350000e+01	  -8.4793093e-01	  -2.4837037e-01	
   3.1405000e+01	  -8.3844559e-01	  -2.4184793e-01	
   3.1460000e+01	  -8.3020677e-01	  -2.3554044e-01	
   3.1515000e+01	  -8.2324429e-01	  -2.2946489e-01	
   3.1570000e+01	  -8.1752760e-01	  -2.2362366e-01	
   3.1625000e+01	  -8.1297034e-01	  -2.1801033e-01	
   3.1680000e+01	  -8.0944094e-01	  -2.1261721e-01	
   3.1735000e+01	  -8.0677875e-01	  -2.0744384e-01	
   3.1790000e+01	  -8.0481263e-01	  -2.0250489e-01	
   3.1845000e+01	  -8.0337878e-01	  -1.9783482e-01	
   3.1900000e+01	  -8.0233447e-01	  -1.9348754e-01	
   3.1955000e+01	  -8.0156496e-01	  -1.8953029e-01	
   3.2010000e+01	  -8.0098269e-01	  -1.8603283e-01	
   3.2065000e+01	  -8.0052106e-01	  -1.8305464e-01	
   3.2120000e+01	  -8.0012668e-01	  -1.8063346e-01	
   3.2175000e+01	  -7.9975262e-01	  -1.7877752e-01	
   3.2230000e+01	  -7.9935195e-01	  -1.7746167e-01	
   3.2285000e+01	  -7.9887070e-01	  -1.7662717e-01	
   3.2340000e+01	  -7.9824151e-01	  -1.7618545e-01	
   3.2395000e+01	  -7.9737981e-01	  -1.7602588e-01	
   3.2450000e+01	  -7.9618316e-01	  -1.7602664e-01	
   3.2505000e+01	  -7.9453424e-01	  -1.7606717e-01	
   3.2560000e+01	  -7.9230864e-01	  -1.7604133e-01	
   3.2615000e+01	  -7.8938687e-01	  -1.7587011e-01	
   3.2670000e+01	  -7.8566867e-01	  -1.7551130e-01	
   3.2725000e+01	  -7.8108735e-01	  -1.7496365e-01	
   3.2780000e+01	  -7.7562189e-01	  -1.7426433e-01	
   3.2835000e+01	  -7.6930453e-01	  -1.7347999e-01	
   3.2890000e+01	  -7.6222234e-01	  -1.7269262e-01	
   3.2945000e+01	  -7.5451168e-01	  -1.7198335e-01	
   3.3000000e+01	  -7.4634645e-01	  -1.7141798e-01	
   3.3055000e+01	  -7.3792382e-01	  -1.7103709e-01	
   3.3110000e+01	  -7.2945072e-01	  -1.7085153e-01	
   3.3165000e+01	  -7.2113294e-01	  -1.7084305e-01	
   3.3220000e+01	  -7.1316756e-01	  -1.7096932e-01	
   3.3275000e+01	  -7.0573903e-01	  -1.7117284e-01	
   3.3330000e+01	  -6.9901795e-01	  -1.7139187e-01	
   3.3385000e+01	  -6.9316120e-01	  -1.7157116e-01	
   3.3440000e+01	  -6.8831268e-01	  -1.7167076e-01	
   3.3495000e+01	  -6.8460411e-01	  -1.7167237e-01	
   3.3550000e+01	  -6.8215542e-01	  -1.7158314e-01	
   3.3605000e+01	  -6.8107241e-01	  -1.7143592e-01	
   3.3660000e+01	  -6.8143953e-01	  -1.7128526e-01	
   3.3715000e+01	  -6.8330749e-01	  -1.7119947e-01	
   3.3770000e+01	  -6.8667855e-01	  -1.7125039e-01	
   3.3825000e+01	  -6.9149425e-01	  -1.7150325e-01	
   3.3880000e+01	  -6.9763016e-01	  -1.7200783e-01	
   3.3935000e+01	  -7.0489908e-01	  -1.7279222e-01	
   3.3990000e+01	  -7.1306157e-01	  -1.7385969e-01	
   3.4045000e+01	  -7.2184027e-01	  -1.7518870e-01	
   3.4100000e+01	  -7.3093384e-01	  -1.7673578e-01	
   3.4155000e+01	  -7.4002734e-01	  -1.7844114e-01	
   3.4210000e+01	  -7.4879969e-01	  -1.8023607e-01	
   3.4265000e+01	  -7.5693133e-01	  -1.8205030e-01	
   3.4320000e+01	  -7.6411394e-01	  -1.8381789e-01	
   3.4375000e+01	  -7.7006119e-01	  -1.8548056e-01	
   3.4430000e+01	  -7.7451840e-01	  -1.8698673e-01	
   3.4485000e+01	  -7.7726937e-01	  -1.8828496e-01	
   3.4540000e+01	  -7.7814009e-01	  -1.8931374e-01	
   3.4595000e+01	  -7.7699987e-01	  -1.8999215e-01	
   3.4650000e+01	  -7.7376054e-01	  -1.9021522e-01	
   3.4705000e+01	  -7.6837477e-01	  -1.8985515e-01	
   3.4760000e+01	  -7.6083530e-01	  -1.8876798e-01	
   3.4815000e+01	  -7.5117634e-01	  -1.8680428e-01	
   3.4870000e+01	  -7.3947567e-01	  -1.8382241e-01	
   3.4925000e+01	  -7.2585588e-01	  -1.7970262e-01	
   3.4980000e+01	  -7.1048475e-01	  -1.7436015e-01	
   3.5035000e+01	  -6.9357656e-01	  -1.6775570e-01	
   3.5090000e+01	  -6.7539329e-01	  -1.5990133e-01	
   3.5145000e+01	  -6.5624238e-01	  -1.5086104e-01	
   3.5200000e+01	  -6.3646764e-01	  -1.4074572e-01	
   3.5255000e+01	  -6.1643210e-01	  -1.2970277e-01	
   3.5310000e+01	  -5.9649423e-01	  -1.1790104e-01	
   3.5365000e+01	  -5.7698144e-01	  -1.0551382e-01	
   3.5420000e+01	  -5.5816686e-01	  -9.2703687e-02	
   3.5475000e+01	  -5.4025430e-01	  -7.9612329e-02	
   3.5530000e+01	  -5.2337281e-01	  -6.6356384e-02	
   3.5585000e+01	  -5.0757949e-01	  -5.3028323e-02	
   3.5640000e+01	  -4.9286941e-01	  -3.9700951e-02	
   3.5695000e+01	  -4.7919201e-01	  -2.6434472e-02	
   3.5750000e+01	  -4.6647088e-01	  -1.3284850e-02	
   3.5805000e+01	  -4.5462195e-01	  -3.1167340e-04	
   3.5860000e+01	  -4.4356666e-01	   1.2415968e-02	
   3.5915000e+01	  -4.3323952e-01	   2.4816590e-02	
   3.5970000e+01	  -4.2358926e-01	   3.6797649e-02	
   3.6025000e+01	  -4.1457222e-01	   4.8262080e-02	
   3.6080000e+01	  -4.0613903e-01	   5.9118931e-02	
   3.6135000e+01	  -3.9821930e-01	   6.9294895e-02	
   3.6190000e+01	  -3.9071021e-01	   7.8743822e-02	
   3.6245000e+01	  -3.8347251e-01	   8.7452540e-02	
   3.6300000e+01	  -3.7633517e-01	   9.5441926e-02	
   3.6355000e+01	  -3.6910781e-01	   1.0276320e-01	
   3.6410000e+01	  -3.6159805e-01	   1.0949092e-01	
   3.6465000e+01	  -3.5363025e-01	   1.1571448e-01	
   3.6520000e+01	  -3.4506275e-01	   1.2152895e-01	
   3.6575000e+01	  -3.3580298e-01	   1.2702505e-01	
   3.6630000e+01	  -3.2581980e-01	   1.3227830e-01	
   3.6685000e+01	  -3.1515237e-01	   1.3733873e-01	
   3.6740000e+01	  -3.0391409e-01	   1.4222320e-01	
   3.6795000e+01	  -2.9229024e-01	   1.4691274e-01	
   3.6850000e+01	  -2.8052803e-01	   1.5135654e-01	
   3.6905000e+01	  -2.6891818e-01	   1.5548262e-01	
   3.6960000e+01	  -2.5777059e-01	   1.5921233e-01	
   3.7015000e+01	  -2.4738878e-01	   1.6247482e-01	
   3.7070000e+01	  -2.3804724e-01	   1.6521858e-01	
   3.7125000e+01	  -2.2997427e-01	   1.6741925e-01	
   3.7180000e+01	  -2.2334343e-01	   1.6908309e-01	
   3.7235000e+01	  -2.1827518e-01	   1.7024484e-01	
   3.7290000e+01	  -2.1484588e-01	   1.7096060e-01	
   3.7345000e+01	  -2.1309842e-01	   1.7129755e-01	
   3.7400000e+01	  -2.1305034e-01	   1.7132261e-01	
   3.7455000e+01	  -2.1469899e-01	   1.7109152e-01	
   3.7510000e+01	  -2.1802541e-01	   1.7064126e-01	
   3.7565000e+01	  -2.2299771e-01	   1.6998856e-01	
   3.7620000e+01	  -2.2957350e-01	   1.6913515e-01	
   3.7675000e+01	  -2.3769988e-01	   1.6807713e-01	
   3.7730000e+01	  -2.4731007e-01	   1.6681525e-01	
   3.7785000e+01	  -2.5831763e-01	   1.6536369e-01	
   3.7840000e+01	  -2.7061049e-01	   1.6375550e-01	
   3.7895000e+01	  -2.8404745e-01	   1.6204383e-01	
   3.7950000e+01	  -2.9845865e-01	   1.6029854e-01	
   3.8005000e+01	  -3.1365078e-01	   1.5859929e-01	
   3.8060000e+01	  -3.2941627e-01	   1.5702580e-01	
   3.8115000e+01	  -3.4554554e-01	   1.5564626e-01	
   3.8170000e+01	  -3.6184026e-01	   1.5450574e-01	
   3.8225000e+01	  -3.7812602e-01	   1.5361727e-01	
   3.8280000e+01	  -3.9426267e-01	   1.5295685e-01	
   3.8335000e+01	  -4.1015115e-01	   1.5246254e-01	
   3.8390000e+01	  -4.2573439e-01	   1.5203861e-01	
   3.8445000e+01	  -4.4099032e-01	   1.5156550e-01	
   3.8500000e+01	  -4.5591806e-01	   1.5091456e-01	
   3.8555000e+01	  -4.7052178e-01	   1.4996410e-01	
   3.8610000e+01	  -4.8479632e-01	   1.4861387e-01	
   3.8665000e+01	  -4.9871649e-01	   1.4679574e-01	
   3.8720000e+01	  -5.1223139e-01	   1.4447918e-01	
   3.8775000e+01	  -5.2526469e-01	   1.4167098e-01	
   3.8830000e+01	  -5.3772061e-01	   1.3841049e-01	
   3.8885000e+01	  -5.4949356e-01	   1.3476190e-01	
   3.8940000e+01	  -5.6047997e-01	   1.3080421e-01	
   3.8995000e+01	  -5.7059215e-01	   1.2661875e-01	
   3.9050000e+01	  -5.7977137e-01	   1.2227535e-01	
   3.9105000e+01	  -5.8799651e-01	   1.1781964e-01	
   3.9160000e+01	  -5.9528606e-01	   1.1326369e-01	
   3.9215000e+01	  -6.0169424e-01	   1.0858168e-01	
   3.9270000e+01	  -6.0730202e-01	   1.0371231e-01	
   3.9325000e+01	  -6.1220296e-01	   9.8568934e-02	
   3.9380000e+01	  -6.1648543e-01	   9.3056175e-02	
   3.9435000e+01	  -6.2021469e-01	   8.7089054e-02	
   3.9490000e+01	  -6.2341946e-01	   8.0610312e-02	
   3.9545000e+01	  -6.2608544e-01	   7.3602995e-02	
   3.9600000e+01	  -6.2815612e-01	   6.6096870e-02	
   3.9655000e+01	  -6.2954009e-01	   5.8168182e-02	
   3.9710000e+01	  -6.3012316e-01	   4.9933400e-02	
   3.9765000e+01	  -6.2978366e-01	   4.1538473e-02	
   3.9820000e+01	  -6.2841048e-01	   3.3145239e-02	
   3.9875000e+01	  -6.2592386e-01	   2.4916314e-02	
   3.9930000e+01	  -6.2229751e-01	   1.6999940e-02	
   3.9985000e+01	  -6.1757839e-01	   9.5161543e-03	
   4.0040000e+01	  -6.1189995e-01	   2.5451967e-03	
   4.0095000e+01	  -6.0548589e-01	  -3.8805177e-03	
   4.0150000e+01	  -5.9864400e-01	  -9.7786602e-03	
   4.0205000e+01	  -5.9175003e-01	  -1.5211696e-02	
   4.0260000e+01	  -5.8522346e-01	  -2.0274435e-02	
   4.0315000e+01	  -5.7949871e-01	  -2.5077468e-02	
   4.0370000e+01	  -5.7499564e-01	  -2.9730583e-02	
   4.0425000e+01	  -5.7209136e-01	  -3.4329053e-02	
   4.0480000e+01	  -5.7109528e-01	  -3.8943824e-02	
   4.0535000e+01	  -5.7223064e-01	  -4.3615868e-02	
   4.0590000e+01	  -5.7562561e-01	  -4.8354905e-02	
   4.0645000e+01	  -5.8131375e-01	  -5.3142247e-02	
   4.0700000e+01	  -5.8924180e-01	  -5.7937176e-02	
   4.0755000e+01	  -5.9928305e-01	  -6.2686191e-02	
   4.0810000e+01	  -6.1125452e-01	  -6.7333954e-02	
   4.0865000e+01	  -6.2493556e-01	  -7.1833850e-02	
   4.0920000e+01	  -6.4008532e-01	  -7.6155715e-02	
   4.0975000e+01	  -6.5645571e-01	  -8.0288881e-02	
   4.1030000e+01	  -6.7379799e-01	  -8.4239377e-02	
   4.1085000e+01	  -6.9186393e-01	  -8.8021784e-02	
   4.1140000e+01	  -7.1040658e-01	  -9.1648695e-02	
   4.1195000e+01	  -7.2918402e-01	  -9.5121592e-02	
   4.1250000e+01	  -7.4796472e-01	  -9.8425013e-02	
   4.1305000e+01	  -7.6653063e-01	  -1.0152403e-01	
   4.1360000e+01	  -7.8467643e-01	  -1.0436529e-01	
   4.1415000e+01	  -8.0220643e-01	  -1.0688237e-01	
   4.1470000e+01	  -8.1893140e-01	  -1.0900514e-01	
   4.1525000e+01	  -8.3466736e-01	  -1.1067110e-01	
   4.1580000e+01	  -8.4923720e-01	  -1.1183630e-01	
   4.1635000e+01	  -8.6247453e-01	  -1.1248362e-01	
   4.1690000e+01	  -8.7422661e-01	  -1.1262652e-01	
   4.1745000e+01	  -8.8435328e-01	  -1.1230621e-01	
   4.1800000e+01	  -8.9272162e-01	  -1.1158219e-01	
   4.1855000e+01	  -8.9919959e-01	  -1.1051847e-01	
   4.1910000e+01	  -9.0365160e-01	  -1.0916894e-01	
   4.1965000e+01	  -9.0593703e-01	  -1.0756496e-01	
   4.2020000e+01	  -9.0591200e-01	  -1.0570751e-01	
   4.2075000e+01	  -9.0343570e-01	  -1.0356542e-01	
   4.2130000e+01	  -8.9838213e-01	  -1.0108025e-01	
   4.2185000e+01	  -8.9065699e-01	  -9.8176595e-02	
   4.2240000e+01	  -8.8021742e-01	  -9.4776148e-02	
   4.2295000e+01	  -8.6709114e-01	  -9.0813737e-02	
   4.2350000e+01	  -8.5139123e-01	  -8.6252800e-02	
   4.2405000e+01	  -8.3332434e-01	  -8.1097614e-02	
   4.2460000e+01	  -8.1319247e-01	  -7.5400248e-02	
   4.2515000e+01	  -7.9138863e-01	  -6.9260898e-02	
   4.2570000e+01	  -7.6838477e-01	  -6.2820577e-02	
   4.2625000e+01	  -7.4471006e-01	  -5.6246291e-02	
   4.2680000e+01	  -7.2092201e-01	  -4.9711304e-02	
   4.2735000e+01	  -6.9757670e-01	  -4.3375103e-02	
   4.2790000e+01	  -6.7520386e-01	  -3.7366932e-02	
   4.2845000e+01	  -6.5428912e-01	  -3.1774656e-02	
   4.2900000e+01	  -6.3526217e-01	  -2.6639527e-02	
   4.2955000e+01	  -6.1848998e-01	  -2.1956991e-02	
   4.3010000e+01	  -6.0427483e-01	  -1.7683296e-02	
   4.3065000e+01	  -5.9285475e-01	  -1.3746985e-02	
   4.3120000e+01	  -5.8440342e-01	  -1.0063838e-02	
   4.3175000e+01	  -5.7902881e-01	  -6.5531478e-03	
   4.3230000e+01	  -5.7677247e-01	  -3.1524120e-03	
   4.3285000e+01	  -5.7761122e-01	   1.7269032e-04	
   4.3340000e+01	  -5.8145957e-01	   3.4251149e-03	
   4.3395000e+01	  -5.8817136e-01	   6.5802957e-03	
   4.3450000e+01	  -5.9754018e-01	   9.5956064e-03	
   4.3505000e+01	  -6.0930032e-01	   1.2422818e-02	
   4.3560000e+01	  -6.2313002e-01	   1.5020199e-02	
   4.3615000e+01	  -6.3865993e-01	   1.7361438e-02	
   4.3670000e+01	  -6.5548769e-01	   1.9440293e-02	
   4.3725000e+01	  -6.7319543e-01	   2.1271131e-02	
   4.3780000e+01	  -6.9136698e-01	   2.2885459e-02	
   4.3835000e+01	  -7.0960343e-01	   2.4324720e-02	
   4.3890000e+01	  -7.2753763e-01	   2.5630660e-02	
   4.3945000e+01	  -7.4484804e-01	   2.6835350e-02	
   4.4000000e+01	  -7.6127135e-01	   2.7952858e-02	
   4.4055000e+01	  -7.7661285e-01	   2.8974198e-02	
   4.4110000e+01	  -7.9075256e-01	   2.9867297e-02	
   4.4165000e+01	  -8.0364535e-01	   3.0582800e-02	
   4.4220000e+01	  -8.1531483e-01	   3.1064230e-02	
   4.4275000e+01	  -8.2584180e-01	   3.1259238e-02	
   4.4330000e+01	  -8.3534971e-01	   3.1129412e-02	
   4.4385000e+01	  -8.4398992e-01	   3.0657427e-02	
   4.4440000e+01	  -8.5193027e-01	   2.9850646e-02	
   4.4495000e+01	  -8.5934813e-01	   2.8740531e-02	
   4.4550000e+01	  -8.6642624e-01	   2.7378477e-02	
   4.4605000e+01	  -8.7334754e-01	   2.5829637e-02	
   4.4660000e+01	  -8.8028793e-01	   2.4165868e-02	
   4.4715000e+01	  -8.8740885e-01	   2.2458232e-02	
   4.4770000e+01	  -8.9485166e-01	   2.0770252e-02	
   4.4825000e+01	  -9.0273310e-01	   1.9154394e-02	
   4.4880000e+01	  -9.1114191e-01	   1.7653254e-02	
   4.4935000e+01	  -9.2013626e-01	   1.6304173e-02	
   4.4990000e+01	  -9.2974064e-01	   1.5144926e-02	
   4.5045000e+01	  -9.3994135e-01	   1.4218864e-02	
   4.5100000e+01	  -9.5068242e-01	   1.3578256e-02	
   4.5155000e+01	  -9.6186484e-01	   1.3284570e-02	
   4.5210000e+01	  -9.7335026e-01	   1.3405351e-02	
   4.5265000e+01	  -9.8496912e-01	   1.4008021e-02	
   4.5320000e+01	  -9.9653225e-01	   1.5151086e-02	
   4.5375000e+01	  -1.0078452e+00	   1.6873754e-02	
   4.5430000e+01	  -1.0187236e+00	   1.9186358e-02	
   4.5485000e+01	  -1.0290062e+00	   2.2064880e-02	
   4.5540000e+01	  -1.0385623e+00	   2.5452073e-02	
   4.5595000e+01	  -1.0472930e+00	   2.9265196e-02	
   4.5650000e+01	  -1.0551274e+00	   3.3408156e-02	
   4.5705000e+01	  -1.0620154e+00	   3.7785049e-02	
   4.5760000e+01	  -1.0679195e+00	   4.2312138e-02	
   4.5815000e+01	  -1.0728068e+00	   4.6925848e-02	
   4.5870000e+01	  -1.0766449e+00	   5.1585779e-02	
   4.5925000e+01	  -1.0794005e+00	   5.6273395e-02	
   4.5980000e+01	  -1.0810418e+00	   6.0987391e-02	
   4.6035000e+01	  -1.0815427e+00	   6.5736681e-02	
   4.6090000e+01	  -1.0808880e+00	   7.0532261e-02	
   4.6145000e+01	  -1.0790780e+00	   7.5379425e-02	
   4.6200000e+01	  -1.0761292e+00	   8.0271215e-02	
   4.6255000e+01	  -1.0720723e+00	   8.5183771e-02	
   4.6310000e+01	  -1.0669459e+00	   9.0074971e-02	
   4.6365000e+01	  -1.0607849e+00	   9.4888035e-02	
   4.6420000e+01	  -1.0536055e+00	   9.9560227e-02	
   4.6475000e+01	  -1.0453905e+00	   1.0403456e-01	
   4.6530000e+01	  -1.0360808e+00	   1.0827120e-01	
   4.6585000e+01	  -1.0255758e+00	   1.1225558e-01	
   4.6640000e+01	  -1.0137415e+00	   1.1600144e-01	
   4.6695000e+01	  -1.0004273e+00	   1.1954775e-01	
   4.6750000e+01	  -9.8549028e-01	   1.2295013e-01	
   4.6805000e+01	  -9.6882252e-01	   1.2626934e-01	
   4.6860000e+01	  -9.5037662e-01	   1.2955944e-01	
   4.6915000e+01	  -9.3018547e-01	   1.3285667e-01	
   4.6970000e+01	  -9.0837528e-01	   1.3617005e-01	
   4.7025000e+01	  -8.8517187e-01	   1.3947534e-01	
   4.7080000e+01	  -8.6089942e-01	   1.4271446e-01	
   4.7135000e+01	  -8.3597113e-01	   1.4580115e-01	
   4.7190000e+01	  -8.1087124e-01	   1.4863222e-01	
   4.7245000e+01	  -7.8612816e-01	   1.5110223e-01	
   4.7300000e+01	  -7.6228160e-01	   1.5311847e-01	
   4.7355000e+01	  -7.3984837e-01	   1.5461322e-01	
   4.7410000e+01	  -7.1929124e-01	   1.5555138e-01	
   4.7465000e+01	  -7.0099360e-01	   1.5593348e-01	
   4.7520000e+01	  -6.8524151e-01	   1.5579469e-01	
   4.7575000e+01	  -6.7221448e-01	   1.5519986e-01	
   4.7630000e+01	  -6.6198526e-01	   1.5423508e-01	
   4.7685000e+01	  -6.5452782e-01	   1.5299753e-01	
   4.7740000e+01	  -6.4973182e-01	   1.5158515e-01	
   4.7795000e+01	  -6.4742208e-01	   1.5008734e-01	
   4.7850000e+01	  -6.4738056e-01	   1.4857807e-01	
   4.7905000e+01	  -6.4936629e-01	   1.4711342e-01	
   4.7960000e+01	  -6.5312831e-01	   1.4573415e-01	
   4.8015000e+01	  -6.5841138e-01	   1.4447161e-01	
   4.8070000e+01	  -6.6495765e-01	   1.4335427e-01	
   4.8125000e+01	  -6.7250768e-01	   1.4241272e-01	
   4.8180000e+01	  -6.8080184e-01	   1.4168154e-01	
   4.8235000e+01	  -6.8958339e-01	   1.4119706e-01	
   4.8290000e+01	  -6.9860382e-01	   1.4099161e-01	
   4.8345000e+01	  -7.0762993e-01	   1.4108599e-01	
   4.8400000e+01	  -7.1645220e-01	   1.4148211e-01	
   4.8455000e+01	  -7.2489345e-01	   1.4215703e-01	
   4.8510000e+01	  -7.3281543e-01	   1.4305988e-01	
   4.8565000e+01	  -7.4012157e-01	   1.4411322e-01	
   4.8620000e+01	  -7.4675539e-01	   1.4522007e-01	
   4.8675000e+01	  -7.5269576e-01	   1.4627567e-01	
   4.8730000e+01	  -7.5795056e-01	   1.4718162e-01	
   4.8785000e+01	  -7.6254996e-01	   1.4785905e-01	
   4.8840000e+01	  -7.6654003e-01	   1.4825868e-01	
   4.8895000e+01	  -7.6997647e-01	   1.4836660e-01	
   4.8950000e+01	  -7.7291815e-01	   1.4820535e-01	
   4.9005000e+01	  -7.7542115e-01	   1.4783039e-01	
   4.9060000e+01	  -7.7753490e-01	   1.4732179e-01	
   4.9115000e+01	  -7.7930150e-01	   1.4677199e-01	
   4.9170000e+01	  -7.8075778e-01	   1.4627110e-01	
   4.9225000e+01	  -7.8193881e-01	   1.4589250e-01	
   4.9280000e+01	  -7.8288161e-01	   1.4568109e-01	
   4.9335000e+01	  -7.8362924e-01	   1.4564618e-01	
   4.9390000e+01	  -7.8423340e-01	   1.4576039e-01	
   4.9445000e+01	  -7.8475306e-01	   1.4596520e-01	
   4.9500000e+01	  -7.8524692e-01	   1.4618240e-01	
   4.9555000e+01	  -7.8576173e-01	   1.4632874e-01	
   4.9610000e+01	  -7.8632071e-01	   1.4633014e-01	
   4.9665000e+01	  -7.8691585e-01	   1.4613237e-01	
   4.9720000e+01	  -7.8750566e-01	   1.4570675e-01	
   4.9775000e+01	  -7.8801942e-01	   1.4505083e-01	
   4.9830000e+01	  -7.8836836e-01	   1.4418497e-01	
   4.9885000e+01	  -7.8846177e-01	   1.4314586e-01	
   4.9940000e+01	  -7.8822437e-01	   1.4197793e-01	
   4.9995000e+01	  -7.8761136e-01	   1.4072261e-01	
   5.0050000e+01	  -7.8661937e-01	   1.3940642e-01	
   5.0105000e+01	  -7.8529279e-01	   1.3803026e-01	
   5.0160000e+01	  -7.8372506e-01	   1.3656241e-01	
   5.0215000e+01	  -7.8205508e-01	   1.3493741e-01	
   5.0270000e+01	  -7.8045895e-01	   1.3306209e-01	
   5.0325000e+01	  -7.7913687e-01	   1.3082832e-01	
   5.0380000e+01	  -7.7829689e-01	   1.2812914e-01	
   5.0435000e+01	  -7.7813851e-01	   1.2487410e-01	
   5.0490000e+01	  -7.7883869e-01	   1.2100109e-01	
   5.0545000e+01	  -7.8054073e-01	   1.1648412e-01	
   5.0600000e+01	  -7.8334643e-01	   1.1133678e-01	
   5.0655000e+01	  -7.8731315e-01	   1.0561060e-01	
   5.0710000e+01	  -7.9245612e-01	   9.9388302e-02	
   5.0765000e+01	  -7.9875439e-01	   9.2773413e-02	
   5.0820000e+01	  -8.0615848e-01	   8.5877744e-02	
   5.0875000e+01	  -8.1459997e-01	   7.8808050e-02	
   5.0930000e+01	  -8.2400256e-01	   7.1653522e-02	
   5.0985000e+01	  -8.3429229e-01	   6.4477136e-02	
   5.1040000e+01	  -8.4540308e-01	   5.7313621e-02	
   5.1095000e+01	  -8.5727608e-01	   5.0174892e-02	
   5.1150000e+01	  -8.6985238e-01	   4.3061391e-02	
   5.1205000e+01	  -8.8306081e-01	   3.5975923e-02	
   5.1260000e+01	  -8.9680424e-01	   2.8936071e-02	
   5.1315000e+01	  -9.1094865e-01	   2.1982205e-02	
   5.1370000e+01	  -9.2531758e-01	   1.5180017e-02	
   5.1425000e+01	  -9.3969264e-01	   8.6180174e-03	
   5.1480000e+01	  -9.5382096e-01	   2.4008100e-03	
   5.1535000e+01	  -9.6742967e-01	  -3.3609193e-03	
   5.1590000e+01	  -9.8024566e-01	  -8.5620898e-03	
   5.1645000e+01	  -9.9201672e-01	  -1.3114457e-02	
   5.1700000e+01	  -1.0025302e+00	  -1.6955519e-02	
   5.1755000e+01	  -1.0116270e+00	  -2.0053629e-02	
   5.1810000e+01	  -1.0192103e+00	  -2.2408024e-02	
   5.1865000e+01	  -1.0252485e+00	  -2.4043364e-02	
   5.1920000e+01	  -1.0297715e+00	  -2.5000260e-02	
   5.1975000e+01	  -1.0328631e+00	  -2.5324899e-02	
   5.2030000e+01	  -1.0346501e+00	  -2.5060571e-02	
   5.2085000e+01	  -1.0352894e+00	  -2.4242470e-02	
   5.2140000e+01	  -1.0349546e+00	  -2.2896249e-02	
   5.2195000e+01	  -1.0338256e+00	  -2.1040407e-02	
   5.2250000e+01	  -1.0320825e+00	  -1.8691867e-02	
   5.2305000e+01	  -1.0299033e+00	  -1.5873347e-02	
   5.2360000e+01	  -1.0274648e+00	  -1.2620722e-02	
   5.2415000e+01	  -1.0249457e+00	  -8.9890429e-03	
   5.2470000e+01	  -1.0225306e+00	  -5.0563237e-03	
   5.2525000e+01	  -1.0204121e+00	  -9.2409766e-04	
   5.2580000e+01	  -1.0187871e+00	   3.2867686e-03	
   5.2635000e+01	  -1.0178484e+00	   7.4457016e-03	
   5.2690000e+01	  -1.0177692e+00	   1.1426133e-02	
   5.2745000e+01	  -1.0186872e+00	   1.5120329e-02	
   5.2800000e+01	  -1.0206915e+00	   1.8452206e-02	
   5.2855000e+01	  -1.0238154e+00	   2.1385603e-02	
   5.2910000e+01	  -1.0280380e+00	   2.3926374e-02	
   5.2965000e+01	  -1.0332890e+00	   2.6117812e-02	
   5.3020000e+01	  -1.0394572e+00	   2.8030337e-02	
   5.3075000e+01	  -1.0464019e+00	   2.9747282e-02	
   5.3130000e+01	  -1.0539686e+00	   3.1349136e-02	
   5.3185000e+01	  -1.0620047e+00	   3.2898919e-02	
   5.3240000e+01	  -1.0703741e+00	   3.4431003e-02	
   5.3295000e+01	  -1.0789651e+00	   3.5944662e-02	
   5.3350000e+01	  -1.0876924e+00	   3.7403043e-02	
   5.3405000e+01	  -1.0964911e+00	   3.8738598e-02	
   5.3460000e+01	  -1.1053034e+00	   3.9865353e-02	
   5.3515000e+01	  -1.1140609e+00	   4.0695843e-02	
   5.3570000e+01	  -1.1226683e+00	   4.1158420e-02	
   5.3625000e+01	  -1.1309909e+00	   4.1211305e-02	
   5.3680000e+01	  -1.1388520e+00	   4.0851527e-02	
   5.3735000e+01	  -1.1460390e+00	   4.0117737e-02	
   5.3790000e+01	  -1.1523201e+00	   3.9086713e-02	
   5.3845000e+01	  -1.1574682e+00	   3.7864547e-02	
   5.3900000e+01	  -1.1612839e+00	   3.6574246e-02	
   5.3955000e+01	  -1.1636152e+00	   3.5341555e-02	
   5.4010000e+01	  -1.1643712e+00	   3.4280924e-02	
   5.4065000e+01	  -1.1635280e+00	   3.3483243e-02	
   5.4120000e+01	  -1.1611290e+00	   3.3006363e-02	
   5.4175000e+01	  -1.1572800e+00	   3.2869540e-02	
   5.4230000e+01	  -1.1521401e+00	   3.3053606e-02	
   5.4285000e+01	  -1.1459116e+00	   3.3507647e-02	
   5.4340000e+01	  -1.1388272e+00	   3.4160252e-02	
   5.4395000e+01	  -1.1311376e+00	   3.4931714e-02	
   5.4450000e+01	  -1.1231015e+00	   3.5744274e-02	
   5.4505000e+01	  -1.1149766e+00	   3.6529442e-02	
   5.4560000e+01	  -1.1070118e+00	   3.7232272e-02	
   5.4615000e+01	  -1.0994406e+00	   3.7812187e-02	
   5.4670000e+01	  -1.0924746e+00	   3.8239708e-02	
   5.4725000e+01	  -1.0862992e+00	   3.8489440e-02	
   5.4780000e+01	  -1.0810736e+00	   3.8530881e-02	
   5.4835000e+01	  -1.0769355e+00	   3.8319270e-02	
   5.4890000e+01	  -1.0740076e+00	   3.7788896e-02	
   5.4945000e+01	  -1.0724027e+00	   3.6850939e-02	
   5.5000000e+01	  -1.0722224e+00	   3.5397101e-02	
   5.5055000e+01	  -1.0735497e+00	   3.3309361e-02	
   5.5110000e+01	  -1.0764374e+00	   3.0474694e-02	
   5.5165000e+01	  -1.0808965e+00	   2.6801827e-02	
   5.5220000e+01	  -1.0868874e+00	   2.2235959e-02	
   5.5275000e+01	  -1.0943157e+00	   1.6768167e-02	
   5.5330000e+01	  -1.1030323e+00	   1.0438276e-02	
   5.5385000e+01	  -1.1128375e+00	   3.3321923e-03	
   5.5440000e+01	  -1.1234886e+00	  -4.4244309e-03	
   5.5495000e+01	  -1.1347107e+00	  -1.2674999e-02	
   5.5550000e+01	  -1.1462118e+00	  -2.1243053e-02	
   5.5605000e+01	  -1.1577013e+00	  -2.9945319e-02	
   5.5660000e+01	  -1.1689082e+00	  -3.8605538e-02	
   5.5715000e+01	  -1.1795985e+00	  -4.7067187e-02	
   5.5770000e+01	  -1.1895865e+00	  -5.5202896e-02	
   5.5825000e+01	  -1.1987398e+00	  -6.2918558e-02	
   5.5880000e+01	  -1.2069773e+00	  -7.0151045e-02	
   5.5935000e+01	  -1.2142600e+00	  -7.6860493e-02	
   5.5990000e+01	  -1.2205790e+00	  -8.3020075e-02	
   5.6045000e+01	  -1.2259423e+00	  -8.8606670e-02	
   5.6100000e+01	  -1.2303646e+00	  -9.3594625e-02	
   5.6155000e+01	  -1.2338596e+00	  -9.7953157e-02	
   5.6210000e+01	  -1.2364345e+00	  -1.0164650e-01	
   5.6265000e+01	  -1.2380842e+00	  -1.0463532e-01	
   5.6320000e+01	  -1.2387847e+00	  -1.0687885e-01	
   5.6375000e+01	  -1.2384892e+00	  -1.0833842e-01	
   5.6430000e+01	  -1.2371267e+00	  -1.0898207e-01	
   5.6485000e+01	  -1.2346022e+00	  -1.0878871e-01	
   5.6540000e+01	  -1.2307982e+00	  -1.0775025e-01	
   5.6595000e+01	  -1.2255792e+00	  -1.0587037e-01	
   5.6650000e+01	  -1.2187987e+00	  -1.0315951e-01	
   5.6705000e+01	  -1.2103080e+00	  -9.9626752e-02	
   5.6760000e+01	  -1.1999665e+00	  -9.5271471e-02	
   5.6815000e+01	  -1.1876523e+00	  -9.0078333e-02	
   5.6870000e+01	  -1.1732741e+00	  -8.4017352e-02	
   5.6925000e+01	  -1.1567796e+00	  -7.7048051e-02	
   5.6980000e+01	  -1.1381616e+00	  -6.9125983e-02	
   5.7035000e+01	  -1.1174601e+00	  -6.0210842e-02	
   5.7090000e+01	  -1.0947636e+00	  -5.0275327e-02	
   5.7145000e+01	  -1.0702082e+00	  -3.9312774e-02	
   5.7200000e+01	  -1.0439733e+00	  -2.7341396e-02	
   5.7255000e+01	  -1.0162736e+00	  -1.4403814e-02	
   5.7310000e+01	  -9.8734561e-01	  -5.6109218e-04	
   5.7365000e+01	  -9.5743039e-01	   1.4118288e-02	
   5.7420000e+01	  -9.2675692e-01	   2.9571206e-02	
   5.7475000e+01	  -8.9552926e-01	   4.5749546e-02	
   5.7530000e+01	  -8.6392039e-01	   6.2623728e-02	
   5.7585000e+01	  -8.3207074e-01	   8.0180401e-02	
   5.7640000e+01	  -8.0009036e-01	   9.8416117e-02	
   5.7695000e+01	  -7.6806604e-01	   1.1732852e-01	
   5.7750000e+01	  -7.3607353e-01	   1.3690611e-01	
   5.7805000e+01	  -7.0419116e-01	   1.5711765e-01	
   5.7860000e+01	  -6.7251074e-01	   1.7790288e-01	
   5.7915000e+01	  -6.4114361e-01	   1.9916586e-01	
   5.7970000e+01	  -6.1022183e-01	   2.2077258e-01	
   5.8025000e+01	  -5.7989376e-01	   2.4255437e-01	
   5.8080000e+01	  -5.5031488e-01	   2.6431781e-01	
   5.8135000e+01	  -5.2163599e-01	   2.8585991e-01	
   5.8190000e+01	  -4.9399035e-01	   3.0698517e-01	
   5.8245000e+01	  -4.6748072e-01	   3.2752166e-01	
   5.8300000e+01	  -4.4216834e-01	   3.4733344e-01	
   5.8355000e+01	  -4.1806729e-01	   3.6632779e-01	
   5.8410000e+01	  -3.9514661e-01	   3.8445650e-01	
   5.8465000e+01	  -3.7333861e-01	   4.0171187e-01	
   5.8520000e+01	  -3.5255064e-01	   4.1811870e-01	
   5.8575000e+01	  -3.3267856e-01	   4.3372336e-01	
   5.8630000e+01	  -3.1362134e-01	   4.4858154e-01	
   5.8685000e+01	  -2.9529423e-01	   4.6274716e-01	
   5.8740000e+01	  -2.7763719e-01	   4.7626485e-01	
   5.8795000e+01	  -2.6061582e-01	   4.8916718e-01	
   5.8850000e+01	  -2.4421460e-01	   5.0147718e-01	
   5.8905000e+01	  -2.2842395e-01	   5.1321511e-01	
   5.8960000e+01	  -2.1322545e-01	   5.2440770e-01	
   5.9015000e+01	  -1.9858051e-01	   5.3509676e-01	
   5.9070000e+01	  -1.8442507e-01	   5.4534437e-01	
   5.9125000e+01	  -1.7066917e-01	   5.5523364e-01	
   5.9180000e+01	  -1.5719906e-01	   5.6486539e-01	
   5.9235000e+01	  -1.4388146e-01	   5.7435150e-01	
   5.9290000e+01	  -1.3057166e-01	   5.8380527e-01	
   5.9345000e+01	  -1.1712614e-01	   5.9333005e-01	
   5.9400000e+01	  -1.0341833e-01	   6.0300721e-01	
   5.9455000e+01	  -8.9354830e-02	   6.1288493e-01	
   5.9510000e+01	  -7.4888534e-02	   6.2296857e-01	
   5.9565000e+01	  -6.0026456e-02	   6.3321440e-01	
   5.9620000e+01	  -4.4830312e-02	   6.4352875e-01	
   5.9675000e+01	  -2.9408605e-02	   6.5377386e-01	
   5.9730000e+01	  -1.3900969e-02	   6.6378039e-01	
   5.9785000e+01	   1.5413543e-03	   6.7336425e-01	
   5.9840000e+01	   1.6773924e-02	   6.8234391e-01	
   5.9895000e+01	   3.1672171e-02	   6.9055395e-01	
   5.9950000e+01	   4.6137047e-02	   6.9785298e-01	
   6.0005000e+01	   6.0094856e-02	   7.0412737e-01	
   6.0060000e+01	   7.3494940e-02	   7.0929271e-01	
   6.0115000e+01	   8.6306683e-02	   7.1329366e-01	
   6.0170000e+01	   9.8514690e-02	   7.1610177e-01	
   6.0225000e+01	   1.1011131e-01	   7.1771126e-01	
   6.0280000e+01	   1.2108645e-01	   7.1813257e-01	
   6.0335000e+01	   1.3141473e-01	   7.1738458e-01	
   6.0390000e+01	   1.4104157e-01	   7.1548662e-01	
   6.0445000e+01	   1.4987362e-01	   7.1245288e-01	
   6.0500000e+01	   1.5777960e-01	   7.0829146e-01	
   6.0555000e+01	   1.6460305e-01	   7.0300866e-01	
   6.0610000e+01	   1.7018228e-01	   6.9661704e-01	
   6.0665000e+01	   1.7437044e-01	   6.8914428e-01	
   6.0720000e+01	   1.7705022e-01	   6.8064025e-01	
   6.0775000e+01	   1.7814106e-01	   6.7118132e-01	
   6.0830000e+01	   1.7759945e-01	   6.6087182e-01	
   6.0885000e+01	   1.7541526e-01	   6.4984284e-01	
   6.0940000e+01	   1.7160672e-01	   6.3824831e-01	
   6.0995000e+01	   1.6621423e-01	   6.2625776e-01	
   6.1050000e+01	   1.5929202e-01	   6.1404589e-01	
   6.1105000e+01	   1.5089818e-01	   6.0178034e-01	
   6.1160000e+01	   1.4108567e-01	   5.8960929e-01	
   6.1215000e+01	   1.2989661e-01	   5.7765091e-01	
   6.1270000e+01	   1.1736247e-01	   5.6598685e-01	
   6.1325000e+01	   1.0351222e-01	   5.5466229e-01	
   6.1380000e+01	   8.8387871e-02	   5.4369264e-01	
   6.1435000e+01	   7.2063701e-02	   5.3307446e-01	
   6.1490000e+01	   5.4664611e-02	   5.2279725e-01	
   6.1545000e+01	   3.6379877e-02	   5.1285387e-01	
   6.1600000e+01	   1.7469434e-02	   5.0324809e-01	
   6.1655000e+01	  -1.7396169e-03	   4.9399826e-01	
   6.1710000e+01	  -2.0866391e-02	   4.8513585e-01	
   6.1765000e+01	  -3.9496811e-02	   4.7669931e-01	
   6.1820000e+01	  -5.7207761e-02	   4.6872460e-01	
   6.1875000e+01	  -7.3592615e-02	   4.6123366e-01	
   6.1930000e+01	  -8.8287699e-02	   4.5422265e-01	
   6.1985000e+01	  -1.0099913e-01	   4.4765291e-01	
   6.2040000e+01	  -1.1152798e-01	   4.4144697e-01	
   6.2095000e+01	  -1.1978950e-01	   4.3549083e-01	
   6.2150000e+01	  -1.2582116e-01	   4.2964195e-01	
   6.2205000e+01	  -1.2977596e-01	   4.2374222e-01	
   6.2260000e+01	  -1.3190288e-01	   4.1763391e-01	
   6.2315000e+01	  -1.3251919e-01	   4.1117609e-01	
   6.2370000e+01	  -1.3197952e-01	   4.0425877e-01	
   6.2425000e+01	  -1.3064554e-01	   3.9681369e-01	
   6.2480000e+01	  -1.2885968e-01	   3.8882048e-01	
   6.2535000e+01	  -1.2692687e-01	   3.8030689e-01	
   6.2590000e+01	  -1.2510509e-01	   3.7134209e-01	
   6.2645000e+01	  -1.2360279e-01	   3.6202482e-01	
   6.2700000e+01	  -1.2257980e-01	   3.5246900e-01	
   6.2755000e+01	  -1.2215093e-01	   3.4278844e-01	
   6.2810000e+01	  -1.2239271e-01	   3.3308156e-01	
   6.2865000e+01	  -1.2335259e-01	   3.2341825e-01	
   6.2920000e+01	  -1.2505778e-01	   3.1383210e-01	
   6.2975000e+01	  -1.2752084e-01	   3.0431999e-01	
   6.3030000e+01	  -1.3074012e-01	   2.9484955e-01	
   6.3085000e+01	  -1.3469473e-01	   2.8537266e-01	
   6.3140000e+01	  -1.3933636e-01	   2.7584168e-01	
   6.3195000e+01	  -1.4458137e-01	   2.6622429e-01	
   6.3250000e+01	  -1.5030492e-01	   2.5651349e-01	
   6.3305000e+01	  -1.5633883e-01	   2.4673167e-01	
   6.3360000e+01	  -1.6247618e-01	   2.3692943e-01	
   6.3415000e+01	  -1.6848609e-01	   2.2718047e-01	
   6.3470000e+01	  -1.7413932e-01	   2.1757336e-01	
   6.3525000e+01	  -1.7924054e-01	   2.0820052e-01	
   6.3580000e+01	  -1.8365983e-01	   1.9914513e-01	
   6.3635000e+01	  -1.8735696e-01	   1.9046743e-01	
   6.3690000e+01	  -1.9039548e-01	   1.8219232e-01	
   6.3745000e+01	  -1.9294628e-01	   1.7430091e-01	
   6.3800000e+01	  -1.9528102e-01	   1.6672823e-01	
   6.3855000e+01	  -1.9775595e-01	   1.5936790e-01	
   6.3910000e+01	  -2.0078608e-01	   1.5208348e-01	
   6.3965000e+01	  -2.0481148e-01	   1.4472486e-01	
   6.4020000e+01	  -2.1026053e-01	   1.3714589e-01	
   6.4075000e+01	  -2.1751627e-01	   1.2921880e-01	
   6.4130000e+01	  -2.2689042e-01	   1.2084366e-01	
   6.4185000e+01	  -2.3860688e-01	   1.1195328e-01	
   6.4240000e+01	  -2.5279347e-01	   1.0251508e-01	
   6.4295000e+01	  -2.6947896e-01	   9.2529728e-02	
   6.4350000e+01	  -2.8859426e-01	   8.2026513e-02	
   6.4405000e+01	  -3.0997864e-01	   7.1055240e-02	
   6.4460000e+01	  -3.3339162e-01	   5.9675729e-02	
   6.4515000e+01	  -3.5852829e-01	   4.7946811e-02	
   6.4570000e+01	  -3.8503539e-01	   3.5917507e-02	
   6.4625000e+01	  -4.1252663e-01	   2.3622603e-02	
   6.4680000e+01	  -4.4059677e-01	   1.1083463e-02	
   6.4735000e+01	  -4.6883233e-01	  -1.6862439e-03	
   6.4790000e+01	  -4.9681808e-01	  -1.4671156e-02	
   6.4845000e+01	  -5.2414058e-01	  -2.7843539e-02	
   6.4900000e+01	  -5.5039254e-01	  -4.1154352e-02	
   6.4955000e+01	  -5.7518004e-01	  -5.4528190e-02	
   6.5010000e+01	  -5.9813113e-01	  -6.7862427e-02	
   6.5065000e+01	  -6.1890168e-01	  -8.1030117e-02	
   6.5120000e+01	  -6.3717743e-01	  -9.3886604e-02	
   6.5175000e+01	  -6.5267486e-01	  -1.0627987e-01	
   6.5230000e+01	  -6.6514440e-01	  -1.1806364e-01	
   6.5285000e+01	  -6.7437591e-01	  -1.2911103e-01	
   6.5340000e+01	  -6.8020500e-01	  -1.3932646e-01	
   6.5395000e+01	  -6.8251836e-01	  -1.4865347e-01	
   6.5450000e+01	  -6.8125554e-01	  -1.5707667e-01	
   6.5505000e+01	  -6.7640487e-01	  -1.6461656e-01	
   6.5560000e+01	  -6.6799566e-01	  -1.7131852e-01	
   6.5615000e+01	  -6.5609194e-01	  -1.7723897e-01	
   6.5670000e+01	  -6.4079167e-01	  -1.8243209e-01	
   6.5725000e+01	  -6.2223121e-01	  -1.8693928e-01	
   6.5780000e+01	  -6.0059338e-01	  -1.9078296e-01	
   6.5835000e+01	  -5.7611788e-01	  -1.9396601e-01	
   6.5890000e+01	  -5.4911279e-01	  -1.9647655e-01	
   6.5945000e+01	  -5.1996389e-01	  -1.9829642e-01	
   6.6000000e+01	  -4.8913811e-01	  -1.9941204e-01	
   6.6055000e+01	  -4.5717996e-01	  -1.9982684e-01	
   6.6110000e+01	  -4.2470189e-01	  -1.9957473e-01	
   6.6165000e+01	  -3.9236900e-01	  -1.9873143e-01	
   6.6220000e+01	  -3.6087849e-01	  -1.9741999e-01	
   6.6275000e+01	  -3.3093511e-01	  -1.9580846e-01	
   6.6330000e+01	  -3.0322247e-01	  -1.9409938e-01	
   6.6385000e+01	  -2.7837013e-01	  -1.9251207e-01	
   6.6440000e+01	  -2.5691905e-01	  -1.9126023e-01	
   6.6495000e+01	  -2.3929091e-01	  -1.9052937e-01	
   6.6550000e+01	  -2.2576503e-01	  -1.9045798e-01	
   6.6605000e+01	  -2.1646361e-01	  -1.9112535e-01	
   6.6660000e+01	  -2.1134521e-01	  -1.9254700e-01	
   6.6715000e+01	  -2.1020691e-01	  -1.9467745e-01	
   6.6770000e+01	  -2.1269619e-01	  -1.9741963e-01	
   6.6825000e+01	  -2.1833238e-01	  -2.0063902e-01	
   6.6880000e+01	  -2.2653619e-01	  -2.0418085e-01	
   6.6935000e+01	  -2.3666528e-01	  -2.0788884e-01	
   6.6990000e+01	  -2.4805403e-01	  -2.1162373e-01	
   6.7045000e+01	  -2.6005477e-01	  -2.1527956e-01	
   6.7100000e+01	  -2.7207600e-01	  -2.1879604e-01	
   6.7155000e+01	  -2.8361093e-01	  -2.2216440e-01	
   6.7210000e+01	  -2.9425178e-01	  -2.2542473e-01	
   6.7265000e+01	  -3.0369055e-01	  -2.2865423e-01	
   6.7320000e+01	  -3.1171127e-01	  -2.3194967e-01	
   6.7375000e+01	  -3.1817910e-01	  -2.3540883e-01	
   6.7430000e+01	  -3.2302872e-01	  -2.3911421e-01	
   6.7485000e+01	  -3.2625262e-01	  -2.4312078e-01	
   6.7540000e+01	  -3.2788952e-01	  -2.4744865e-01	
   6.7595000e+01	  -3.2801342e-01	  -2.5208153e-01	
   6.7650000e+01	  -3.2672350e-01	  -2.5696981e-01	
   6.7705000e+01	  -3.2413500e-01	  -2.6203687e-01	
   6.7760000e+01	  -3.2037096e-01	  -2.6718718e-01	
   6.7815000e+01	  -3.1555452e-01	  -2.7231623e-01	
   6.7870000e+01	  -3.0980024e-01	  -2.7732066e-01	
   6.7925000e+01	  -3.0320289e-01	  -2.8210640e-01	
   6.7980000e+01	  -2.9582543e-01	  -2.8659265e-01	
   6.8035000e+01	  -2.8769044e-01	  -2.9071122e-01	
   6.8090000e+01	  -2.7877696e-01	  -2.9440174e-01	
   6.8145000e+01	  -2.6902208e-01	  -2.9760490e-01	
   6.8200000e+01	  -2.5832636e-01	  -3.0025649e-01	
   6.8255000e+01	  -2.4656296e-01	  -3.0228466e-01	
   6.8310000e+01	  -2.3358914e-01	  -3.0361062e-01	
   6.8365000e+01	  -2.1925818e-01	  -3.0415239e-01	
   6.8420000e+01	  -2.0342904e-01	  -3.0383090e-01	
   6.8475000e+01	  -1.8597176e-01	  -3.0257781e-01	
   6.8530000e+01	  -1.6676905e-01	  -3.0034401e-01	
   6.8585000e+01	  -1.4571763e-01	  -2.9710771e-01	
   6.8640000e+01	  -1.2273240e-01	  -2.9288070e-01	
   6.8695000e+01	  -9.7751952e-02	  -2.8771193e-01	
   6.8750000e+01	  -7.0741552e-02	  -2.8168673e-01	
   6.8805000e+01	  -4.1691284e-02	  -2.7492023e-01	
   6.8860000e+01	  -1.0610332e-02	  -2.6754478e-01	
   6.8915000e+01	   2.2479892e-02	  -2.5969403e-01	
   6.8970000e+01	   5.7550821e-02	  -2.5148766e-01	
   6.9025000e+01	   9.4568319e-02	  -2.4301974e-01	
   6.9080000e+01	   1.3348968e-01	  -2.3435284e-01	
   6.9135000e+01	   1.7425443e-01	  -2.2551907e-01	
   6.9190000e+01	   2.1676853e-01	  -2.1652729e-01	
   6.9245000e+01	   2.6088556e-01	  -2.0737403e-01	
   6.9300000e+01	   3.0639039e-01	  -1.9805514e-01	
   6.9355000e+01	   3.5298884e-01	  -1.8857651e-01	
   6.9410000e+01	   4.0030390e-01	  -1.7896292e-01	
   6.9465000e+01	   4.4787869e-01	  -1.6926466e-01	
   6.9520000e+01	   4.9518687e-01	  -1.5956090e-01	
   6.9575000e+01	   5.4165086e-01	  -1.4995824e-01	
   6.9630000e+01	   5.8666741e-01	  -1.4058280e-01	
   6.9685000e+01	   6.2963865e-01	  -1.3156639e-01	
   6.9740000e+01	   6.7000415e-01	  -1.2302996e-01	
   6.9795000e+01	   7.0726985e-01	  -1.1506845e-01	
   6.9850000e+01	   7.4103086e-01	  -1.0773917e-01	
   6.9905000e+01	   7.7098710e-01	  -1.0105483e-01	
   6.9960000e+01	   7.9695031e-01	  -9.4982380e-02	
   7.0015000e+01	   8.1884199e-01	  -8.9448209e-02	
   7.0070000e+01	   8.3668446e-01	  -8.4348612e-02	
   7.0125000e+01	   8.5058900e-01	  -7.9562781e-02	
   7.0180000e+01	   8.6074191e-01	  -7.4966747e-02	
   7.0235000e+01	   8.6738738e-01	  -7.0447864e-02	
   7.0290000e+01	   8.7080746e-01	  -6.5918784e-02	
   7.0345000e+01	   8.7130207e-01	  -6.1328754e-02	
   7.0400000e+01	   8.6917090e-01	  -5.6670153e-02	
   7.0455000e+01	   8.6469846e-01	  -5.1978741e-02	
   7.0510000e+01	   8.5814399e-01	  -4.7326528e-02	
   7.0565000e+01	   8.4973858e-01	  -4.2807943e-02	
   7.0620000e+01	   8.3968864e-01	  -3.8522713e-02	
   7.0675000e+01	   8.2818257e-01	  -3.4559673e-02	
   7.0730000e+01	   8.1539940e-01	  -3.0984216e-02	
   7.0785000e+01	   8.0151960e-01	  -2.7830770e-02	
   7.0840000e+01	   7.8673610e-01	  -2.5101238e-02	
   7.0895000e+01	   7.7126108e-01	  -2.2769241e-02	
   7.0950000e+01	   7.5532645e-01	  -2.0788577e-02	
   7.1005000e+01	   7.3917941e-01	  -1.9104183e-02	
   7.1060000e+01	   7.2307405e-01	  -1.7664503e-02	
   7.1115000e+01	   7.0725936e-01	  -1.6433776e-02	
   7.1170000e+01	   6.9196578e-01	  -1.5401588e-02	
   7.1225000e+01	   6.7739445e-01	  -1.4586932e-02	
   7.1280000e+01	   6.6371265e-01	  -1.4035398e-02	
   7.1335000e+01	   6.5105682e-01	  -1.3809906e-02	
   7.1390000e+01	   6.3954239e-01	  -1.3976960e-02	
   7.1445000e+01	   6.2927629e-01	  -1.4591596e-02	
   7.1500000e+01	   6.2036644e-01	  -1.5684279e-02	
   7.1555000e+01	   6.1292496e-01	  -1.7252031e-02	
   7.1610000e+01	   6.0706583e-01	  -1.9255032e-02	
   7.1665000e+01	   6.0289826e-01	  -2.1619173e-02	
   7.1720000e+01	   6.0051599e-01	  -2.4244008e-02	
   7.1775000e+01	   5.9998325e-01	  -2.7014193e-02	
   7.1830000e+01	   6.0132111e-01	  -2.9811774e-02	
   7.1885000e+01	   6.0449742e-01	  -3.2527423e-02	
   7.1940000e+01	   6.0942103e-01	  -3.5070079e-02	
   7.1995000e+01	   6.1593944e-01	  -3.7375011e-02	
   7.2050000e+01	   6.2384015e-01	  -3.9409700e-02	
   7.2105000e+01	   6.3285812e-01	  -4.1176120e-02	
   7.2160000e+01	   6.4269031e-01	  -4.2708008e-02	
   7.2215000e+01	   6.5301687e-01	  -4.4062711e-02	
   7.2270000e+01	   6.6352522e-01	  -4.5308905e-02	
   7.2325000e+01	   6.7393236e-01	  -4.6512921e-02	
   7.2380000e+01	   6.8400107e-01	  -4.7726546e-02	
   7.2435000e+01	   6.9355001e-01	  -4.8978011e-02	
   7.2490000e+01	   7.0245965e-01	  -5.0266598e-02	
   7.2545000e+01	   7.1067437e-01	  -5.1561058e-02	
   7.2600000e+01	   7.1819848e-01	  -5.2802592e-02	
   7.2655000e+01	   7.2508387e-01	  -5.3912732e-02	
   7.2710000e+01	   7.3141112e-01	  -5.4805103e-02	
   7.2765000e+01	   7.3726817e-01	  -5.5399288e-02	
   7.2820000e+01	   7.4273051e-01	  -5.5635262e-02	
   7.2875000e+01	   7.4784561e-01	  -5.5486928e-02	
   7.2930000e+01	   7.5262409e-01	  -5.4972880e-02	
   7.2985000e+01	   7.5703892e-01	  -5.4162101e-02	
   7.3040000e+01	   7.6103288e-01	  -5.3171936e-02	
   7.3095000e+01	   7.6453300e-01	  -5.2156409e-02	
   7.3150000e+01	   7.6746999e-01	  -5.1285910e-02	
   7.3205000e+01	   7.6979798e-01	  -5.0723047e-02	
   7.3260000e+01	   7.7150963e-01	  -5.0600506e-02	
   7.3315000e+01	   7.7264477e-01	  -5.1004542e-02	
   7.3370000e+01	   7.7329312e-01	  -5.1965266e-02	
   7.3425000e+01	   7.7359011e-01	  -5.3454148e-02	
   7.3480000e+01	   7.7370397e-01	  -5.5388763e-02	
   7.3535000e+01	   7.7381467e-01	  -5.7643556e-02	
   7.3590000e+01	   7.7408905e-01	  -6.0064560e-02	
   7.3645000e+01	   7.7465672e-01	  -6.2486427e-02	
   7.3700000e+01	   7.7558996e-01	  -6.4750702e-02	
   7.3755000e+01	   7.7688966e-01	  -6.6723923e-02	
   7.3810000e+01	   7.7847817e-01	  -6.8313428e-02	
   7.3865000e+01	   7.8019982e-01	  -6.9478348e-02	
   7.3920000e+01	   7.8182932e-01	  -7.0233568e-02	
   7.3975000e+01	   7.8308789e-01	  -7.0644977e-02	
   7.4030000e+01	   7.8366551e-01	  -7.0815900e-02	
   7.4085000e+01	   7.8324643e-01	  -7.0867388e-02	
   7.4140000e+01	   7.8153514e-01	  -7.0917163e-02	
   7.4195000e+01	   7.7828155e-01	  -7.1061226e-02	
   7.4250000e+01	   7.7330466e-01	  -7.1360150e-02	
   7.4305000e+01	   7.6651186e-01	  -7.1831281e-02	
   7.4360000e+01	   7.5790948e-01	  -7.2448098e-02	
   7.4415000e+01	   7.4760158e-01	  -7.3146947e-02	
   7.4470000e+01	   7.3577785e-01	  -7.3839324e-02	
   7.4525000e+01	   7.2269415e-01	  -7.4426844e-02	
   7.4580000e+01	   7.0865004e-01	  -7.4816312e-02	
   7.4635000e+01	   6.9396677e-01	  -7.4932691e-02	
   7.4690000e+01	   6.7896917e-01	  -7.4727927e-02	
   7.4745000e+01	   6.6397375e-01	  -7.4184036e-02	
   7.4800000e+01	   6.4928463e-01	  -7.3309856e-02	
   7.4855000e+01	   6.3519622e-01	  -7.2132238e-02	
   7.4910000e+01	   6.2199820e-01	  -7.0684230e-02	
   7.4965000e+01	   6.0997635e-01	  -6.8994050e-02	
   7.5020000e+01	   5.9940534e-01	  -6.7077942e-02	
   7.5075000e+01	   5.9053567e-01	  -6.4937861e-02	
   7.5130000e+01	   5.8357979e-01	  -6.2563304e-02	
   7.5185000e+01	   5.7869913e-01	  -5.9936314e-02	
   7.5240000e+01	   5.7599166e-01	  -5.7038730e-02	
   7.5295000e+01	   5.7548081e-01	  -5.3860311e-02	
   7.5350000e+01	   5.7710874e-01	  -5.0406225e-02	
   7.5405000e+01	   5.8073752e-01	  -4.6702800e-02	
   7.5460000e+01	   5.8616015e-01	  -4.2800384e-02	
   7.5515000e+01	   5.9312043e-01	  -3.8771708e-02	
   7.5570000e+01	   6.0133852e-01	  -3.4704691e-02	
   7.5625000e+01	   6.1053769e-01	  -3.0690300e-02	
   7.5680000e+01	   6.2046854e-01	  -2.6807531e-02	
   7.5735000e+01	   6.3092981e-01	  -2.3107971e-02	
   7.5790000e+01	   6.4178622e-01	  -1.9602770e-02	
   7.5845000e+01	   6.5298190e-01	  -1.6255091e-02	
   7.5900000e+01	   6.6454537e-01	  -1.2979839e-02	
   7.5955000e+01	   6.7658339e-01	  -9.6503996e-03	
   7.6010000e+01	   6.8926362e-01	  -6.1108097e-03	
   7.6065000e+01	   7.0278837e-01	  -2.1914685e-03	
   7.6120000e+01	   7.1736354e-01	   2.2736101e-03	
   7.6175000e+01	   7.3316745e-01	   7.4297720e-03	
   7.6230000e+01	   7.5032354e-01	   1.3386004e-02	
   7.6285000e+01	   7.6887925e-01	   2.0201542e-02	
   7.6340000e+01	   7.8879373e-01	   2.7877147e-02	
   7.6395000e+01	   8.0993721e-01	   3.6354223e-02	
   7.6450000e+01	   8.3210264e-01	   4.5523062e-02	
   7.6505000e+01	   8.5502583e-01	   5.5237935e-02	
   7.6560000e+01	   8.7840813e-01	   6.5334955e-02	
   7.6615000e+01	   9.0193754e-01	   7.5649208e-02	
   7.6670000e+01	   9.2530830e-01	   8.6028530e-02	
   7.6725000e+01	   9.4823992e-01	   9.6342057e-02	
   7.6780000e+01	   9.7049407e-01	   1.0648307e-01	
   7.6835000e+01	   9.9188630e-01	   1.1636707e-01	
   7.6890000e+01	   1.0122908e+00	   1.2592670e-01	
   7.6945000e+01	   1.0316396e+00	   1.3510438e-01	
   7.7000000e+01	   1.0499174e+00	   1.4384395e-01	
   7.7055000e+01	   1.0671535e+00	   1.5208250e-01	
   7.7110000e+01	   1.0834081e+00	   1.5974373e-01	
   7.7165000e+01	   1.0987555e+00	   1.6673372e-01	
   7.7220000e+01	   1.1132636e+00	   1.7294119e-01	
   7.7275000e+01	   1.1269794e+00	   1.7824468e-01	
   7.7330000e+01	   1.1399216e+00	   1.8252636e-01	
   7.7385000e+01	   1.1520814e+00	   1.8568849e-01	
   7.7440000e+01	   1.1634262e+00	   1.8766777e-01	
   7.7495000e+01	   1.1739029e+00	   1.8844496e-01	
   7.7550000e+01	   1.1834407e+00	   1.8804915e-01	
   7.7605000e+01	   1.1919525e+00	   1.8655687e-01	
   7.7660000e+01	   1.1993361e+00	   1.8408681e-01	
   7.7715000e+01	   1.2054797e+00	   1.8079057e-01	
   7.7770000e+01	   1.2102690e+00	   1.7684037e-01	
   7.7825000e+01	   1.2135939e+00	   1.7241391e-01	
   7.7880000e+01	   1.2153526e+00	   1.6767777e-01	
   7.7935000e+01	   1.2154522e+00	   1.6277199e-01	
   7.7990000e+01	   1.2138113e+00	   1.5779935e-01	
   7.8045000e+01	   1.2103651e+00	   1.5282136e-01	
   7.8100000e+01	   1.2050729e+00	   1.4786148e-01	
   7.8155000e+01	   1.1979252e+00	   1.4291408e-01	
   7.8210000e+01	   1.1889501e+00	   1.3795690e-01	
   7.8265000e+01	   1.1782166e+00	   1.3296359e-01	
   7.8320000e+01	   1.1658363e+00	   1.2791478e-01	
   7.8375000e+01	   1.1519623e+00	   1.2280680e-01	
   7.8430000e+01	   1.1367833e+00	   1.1765701e-01	
   7.8485000e+01	   1.1205131e+00	   1.1250385e-01	
   7.8540000e+01	   1.1033751e+00	   1.0740167e-01	
   7.8595000e+01	   1.0855890e+00	   1.0241185e-01	
   7.8650000e+01	   1.0673584e+00	   9.7592817e-02	
   7.8705000e+01	   1.0488614e+00	   9.2991114e-02	
   7.8760000e+01	   1.0302455e+00	   8.8635849e-02	
   7.8815000e+01	   1.0116312e+00	   8.4537873e-02	
   7.8870000e+01	   9.9312331e-01	   8.0693782e-02	
   7.8925000e+01	   9.7482664e-01	   7.7093077e-02	
   7.8980000e+01	   9.5686103e-01	   7.3726047e-02	
   7.9035000e+01	   9.3937215e-01	   7.0590378e-02	
   7.9090000e+01	   9.2253680e-01	   6.7695533e-02	
   7.9145000e+01	   9.0656109e-01	   6.5064572e-02	
   7.9200000e+01	   8.9167170e-01	   6.2733149e-02	
   7.9255000e+01	   8.7810133e-01	   6.0745386e-02	
   7.9310000e+01	   8.6607025e-01	   5.9146886e-02	
   7.9365000e+01	   8.5576573e-01	   5.7975876e-02	
   7.9420000e+01	   8.4732287e-01	   5.7254149e-02	
   7.9475000e+01	   8.4081071e-01	   5.6979511e-02	
   7.9530000e+01	   8.3622578e-01	   5.7121055e-02	
   7.9585000e+01	   8.3349344e-01	   5.7618458e-02	
   7.9640000e+01	   8.3247576e-01	   5.8386624e-02	
   7.9695000e+01	   8.3298457e-01	   5.9325915e-02	
   7.9750000e+01	   8.3479847e-01	   6.0335675e-02	
   7.9805000e+01	   8.3768143e-01	   6.1327280e-02	
   7.9860000e+01	   8.4139995e-01	   6.2234290e-02	
   7.9915000e+01	   8.4573627e-01	   6.3019290e-02	
   7.9970000e+01	   8.5049662e-01	   6.3677128e-02	
   8.0025000e+01	   8.5551363e-01	   6.4233558e-02	
   8.0080000e+01	   8.6064312e-01	   6.4739016e-02	
   8.0135000e+01	   8.6575597e-01	   6.5258224e-02	
   8.0190000e+01	   8.7072651e-01	   6.5856623e-02	
   8.0245000e+01	   8.7542073e-01	   6.6585563e-02	
   8.0300000e+01	   8.7968835e-01	   6.7469430e-02	
   8.0355000e+01	   8.8336223e-01	   6.8497679e-02	
   8.0410000e+01	   8.8626540e-01	   6.9623163e-02	
   8.0465000e+01	   8.8822545e-01	   7.0767160e-02	
   8.0520000e+01	   8.8909445e-01	   7.1830629e-02	
   8.0575000e+01	   8.8877115e-01	   7.2709212e-02	
   8.0630000e+01	   8.8721970e-01	   7.3307930e-02	
   8.0685000e+01	   8.8448033e-01	   7.3552423e-02	
   8.0740000e+01	   8.8067074e-01	   7.3395853e-02	
   8.0795000e+01	   8.7597841e-01	   7.2821838e-02	
   8.0850000e+01	   8.7064437e-01	   7.1843813e-02	
   8.0905000e+01	   8.6493936e-01	   7.0500960e-02	
   8.0960000e+01	   8.5913555e-01	   6.8851085e-02	
   8.1015000e+01	   8.5347729e-01	   6.6961124e-02	
   8.1070000e+01	   8.4815531e-01	   6.4896097e-02	
   8.1125000e+01	   8.4328859e-01	   6.2707633e-02	
   8.1180000e+01	   8.3891631e-01	   6.0424211e-02	
   8.1235000e+01	   8.3499967e-01	   5.8045674e-02	
   8.1290000e+01	   8.3143185e-01	   5.5543623e-02	
   8.1345000e+01	   8.2805526e-01	   5.2868233e-02	
   8.1400000e+01	   8.2468529e-01	   4.9961012e-02	
   8.1455000e+01	   8.2113708e-01	   4.6771002e-02	
   8.1510000e+01	   8.1724912e-01	   4.3270111e-02	
   8.1565000e+01	   8.1290002e-01	   3.9463842e-02	
   8.1620000e+01	   8.0801953e-01	   3.5395983e-02	
   8.1675000e+01	   8.0259652e-01	   3.1147354e-02	
   8.1730000e+01	   7.9668346e-01	   2.6829017e-02	
   8.1785000e+01	   7.9039423e-01	   2.2570958e-02	
   8.1840000e+01	   7.8389313e-01	   1.8508185e-02	
   8.1895000e+01	   7.7737542e-01	   1.4766126e-02	
   8.1950000e+01	   7.7104237e-01	   1.1446597e-02	
   8.2005000e+01	   7.6507555e-01	   8.6158759e-03	
   8.2060000e+01	   7.5961420e-01	   6.2971512e-03	
   8.2115000e+01	   7.5473834e-01	   4.4692775e-03	
   8.2170000e+01	   7.5045979e-01	   3.0724315e-03	
   8.2225000e+01	   7.4672338e-01	   2.0199153e-03	
   8.2280000e+01	   7.4341755e-01	   1.2139222e-03	
   8.2335000e+01	   7.4038989e-01	   5.6160859e-04	
   8.2390000e+01	   7.3746235e-01	  -1.2124370e-05	
   8.2445000e+01	   7.3444407e-01	  -5.5670803e-04	
   8.2500000e+01	   7.3114321e-01	  -1.0925659e-03	
   8.2555000e+01	   7.2737818e-01	  -1.6119610e-03	
   8.2610000e+01	   7.2298726e-01	  -2.0839096e-03	
   8.2665000e+01	   7.1783512e-01	  -2.4623585e-03	
   8.2720000e+01	   7.1181511e-01	  -2.6960984e-03	
   8.2775000e+01	   7.0484728e-01	  -2.7387497e-03	
   8.2830000e+01	   6.9687347e-01	  -2.5568702e-03	
   8.2885000e+01	   6.8785339e-01	  -2.1340150e-03	
   8.2940000e+01	   6.7776598e-01	  -1.4696594e-03	
   8.2995000e+01	   6.6661687e-01	  -5.7385681e-04	
   8.3050000e+01	   6.5444955e-01	   5.4046916e-04	
   8.3105000e+01	   6.4135692e-01	   1.8658589e-03	
   8.3160000e+01	   6.2748953e-01	   3.4073842e-03	
   8.3215000e+01	   6.1305779e-01	   5.1862933e-03	
   8.3270000e+01	   5.9832658e-01	   7.2391690e-03	
   8.3325000e+01	   5.8360256e-01	   9.6131251e-03	
   8.3380000e+01	   5.6921472e-01	   1.2357775e-02	
   8.3435000e+01	   5.5549009e-01	   1.5514166e-02	
   8.3490000e+01	   5.4272803e-01	   1.9101532e-02	
   8.3545000e+01	   5.3117699e-01	   2.3104512e-02	
   8.3600000e+01	   5.2101681e-01	   2.7464313e-02	
   8.3655000e+01	   5.1234809e-01	   3.2076041e-02	
   8.3710000e+01	   5.0518972e-01	   3.6793184e-02	
   8.3765000e+01	   4.9948614e-01	   4.1439687e-02	
   8.3820000e+01	   4.9512267e-01	   4.5828664e-02	
   8.3875000e+01	   4.9194410e-01	   4.9784260e-02	
   8.3930000e+01	   4.8977211e-01	   5.3161909e-02	
   8.3985000e+01	   4.8842076e-01	   5.5863170e-02	
   8.4040000e+01	   4.8770969e-01	   5.7843435e-02	
   8.4095000e+01	   4.8747313e-01	   5.9112258e-02	
   8.4150000e+01	   4.8756221e-01	   5.9727059e-02	
   8.4205000e+01	   4.8784029e-01	   5.9782019e-02	
   8.4260000e+01	   4.8817383e-01	   5.9394223e-02	
   8.4315000e+01	   4.8842170e-01	   5.8688147e-02	
   8.4370000e+01	   4.8842573e-01	   5.7779329e-02	
   8.4425000e+01	   4.8800473e-01	   5.6759108e-02	
   8.4480000e+01	   4.8695338e-01	   5.5682631e-02	
   8.4535000e+01	   4.8504641e-01	   5.4561535e-02	
   8.4590000e+01	   4.8204808e-01	   5.3362179e-02	
   8.4645000e+01	   4.7772735e-01	   5.2010209e-02	
   8.4700000e+01	   4.7187787e-01	   5.0401102e-02	
   8.4755000e+01	   4.6434024e-01	   4.8414650e-02	
   8.4810000e+01	   4.5502309e-01	   4.5930804e-02	
   8.4865000e+01	   4.4391977e-01	   4.2845018e-02	
   8.4920000e+01	   4.3111729e-01	   3.9081461e-02	
   8.4975000e+01	   4.1679492e-01	   3.4602210e-02	
   8.5030000e+01	   4.0121207e-01	   2.9410956e-02	
   8.5085000e+01	   3.8468748e-01	   2.3551279e-02	
   8.5140000e+01	   3.6757355e-01	   1.7100943e-02	
   8.5195000e+01	   3.5023010e-01	   1.0163406e-02	
   8.5250000e+01	   3.3300089e-01	   2.8571319e-03	
   8.5305000e+01	   3.1619395e-01	  -4.6964374e-03	
   8.5360000e+01	   3.0006557e-01	  -1.2384810e-02	
   8.5415000e+01	   2.8480858e-01	  -2.0114528e-02	
   8.5470000e+01	   2.7054826e-01	  -2.7817027e-02	
   8.5525000e+01	   2.5734819e-01	  -3.5447647e-02	
   8.5580000e+01	   2.4522389e-01	  -4.2977528e-02	
   8.5635000e+01	   2.3415811e-01	  -5.0381955e-02	
   8.5690000e+01	   2.2411252e-01	  -5.7629645e-02	
   8.5745000e+01	   2.1503484e-01	  -6.4675325e-02	
   8.5800000e+01	   2.0686166e-01	  -7.1456306e-02	
   8.5855000e+01	   1.9951769e-01	  -7.7893768e-02	
   8.5910000e+01	   1.9291290e-01	  -8.3899002e-02	
   8.5965000e+01	   1.8693918e-01	  -8.9383567e-02	
   8.6020000e+01	   1.8146731e-01	  -9.4271525e-02	
   8.6075000e+01	   1.7634477e-01	  -9.8511630e-02	
   8.6130000e+01	   1.7139616e-01	  -1.0208707e-01	
   8.6185000e+01	   1.6642930e-01	  -1.0502054e-01	
   8.6240000e+01	   1.6124772e-01	  -1.0737365e-01	
   8.6295000e+01	   1.5566654e-01	  -1.0924094e-01	
   8.6350000e+01	   1.4952770e-01	  -1.1073894e-01	
   8.6405000e+01	   1.4271300e-01	  -1.1199128e-01	
   8.6460000e+01	   1.3515445e-01	  -1.1311235e-01	
   8.6515000e+01	   1.2684057e-01	  -1.1419294e-01	
   8.6570000e+01	   1.1781801e-01	  -1.1529027e-01	
   8.6625000e+01	   1.0818780e-01	  -1.1642317e-01	
   8.6680000e+01	   9.8095801e-02	  -1.1757254e-01	
   8.6735000e+01	   8.7717472e-02	  -1.1868652e-01	
   8.6790000e+01	   7.7239303e-02	  -1.1968901e-01	
   8.6845000e+01	   6.6840881e-02	  -1.2049008e-01	
   8.6900000e+01	   5.6680290e-02	  -1.2099812e-01	
   8.6955000e+01	   4.6883454e-02	  -1.2113289e-01	
   8.7010000e+01	   3.7537889e-02	  -1.2083695e-01	
   8.7065000e+01	   2.8692722e-02	  -1.2008165e-01	
   8.7120000e+01	   2.0366185e-02	  -1.1886600e-01	
   8.7175000e+01	   1.2558729e-02	  -1.1720942e-01	
   8.7230000e+01	   5.2682634e-03	  -1.1514089e-01	
   8.7285000e+01	  -1.4951168e-03	  -1.1268755e-01	
   8.7340000e+01	  -7.6969790e-03	  -1.0986481e-01	
   8.7395000e+01	  -1.3270939e-02	  -1.0666995e-01	
   8.7450000e+01	  -1.8116392e-02	  -1.0307990e-01	
   8.7505000e+01	  -2.2101647e-02	  -9.9053532e-02	
   8.7560000e+01	  -2.5072844e-02	  -9.4538918e-02	
   8.7615000e+01	  -2.6867894e-02	  -8.9485629e-02	
   8.7670000e+01	  -2.7331976e-02	  -8.3859732e-02	
   8.7725000e+01	  -2.6331245e-02	  -7.7658272e-02	
   8.7780000e+01	  -2.3764589e-02	  -7.0920873e-02	
   8.7835000e+01	  -1.9573937e-02	  -6.3736957e-02	
   8.7890000e+01	  -1.3750557e-02	  -5.6246920e-02	
   8.7945000e+01	  -6.3339386e-03	  -4.8635987e-02	
   8.8000000e+01	   2.5970825e-03	  -4.1120938e-02	
   8.8055000e+01	   1.2938912e-02	  -3.3931390e-02	
   8.8110000e+01	   2.4581208e-02	  -2.7288287e-02	
   8.8165000e+01	   3.7425394e-02	  -2.1382863e-02	
   8.8220000e+01	   5.1399311e-02	  -1.6359330e-02	
   8.8275000e+01	   6.6464118e-02	  -1.2303645e-02	
   8.8330000e+01	   8.2612536e-02	  -9.2390784e-03	
   8.8385000e+01	   9.9859901e-02	  -7.1281749e-03	
   8.8440000e+01	   1.1822951e-01	  -5.8803508e-03	
   8.8495000e+01	   1.3773335e-01	  -5.3637728e-03	
   8.8550000e+01	   1.5835072e-01	  -5.4196204e-03	
   8.8605000e+01	   1.8000793e-01	  -5.8773308e-03	
   8.8660000e+01	   2.0256239e-01	  -6.5699980e-03	
   8.8715000e+01	   2.2579244e-01	  -7.3482989e-03	
   8.8770000e+01	   2.4939461e-01	  -8.0900008e-03	
   8.8825000e+01	   2.7299023e-01	  -8.7026772e-03	
   8.8880000e+01	   2.9614221e-01	  -9.1199765e-03	
   8.8935000e+01	   3.1838021e-01	  -9.2941206e-03	
   8.8990000e+01	   3.3923019e-01	  -9.1875326e-03	
   8.9045000e+01	   3.5824421e-01	  -8.7656034e-03	
   8.9100000e+01	   3.7502749e-01	  -7.9918146e-03	
   8.9155000e+01	   3.8926008e-01	  -6.8257331e-03	
   8.9210000e+01	   4.0071145e-01	  -5.2237796e-03	
   8.9265000e+01	   4.0924676e-01	  -3.1423457e-03	
   8.9320000e+01	   4.1482387e-01	  -5.4250457e-04	
   8.9375000e+01	   4.1748122e-01	   2.6047808e-03	
   8.9430000e+01	   4.1731939e-01	   6.3139013e-03	
   8.9485000e+01	   4.1448176e-01	   1.0580688e-02	
   8.9540000e+01	   4.0913871e-01	   1.5379887e-02	
   8.9595000e+01	   4.0147749e-01	   2.0665720e-02	
   8.9650000e+01	   3.9169889e-01	   2.6377241e-02	
   8.9705000e+01	   3.8002107e-01	   3.2447784e-02	
   8.9760000e+01	   3.6668776e-01	   3.8815388e-02	
   8.9815000e+01	   3.5197673e-01	   4.5431325e-02	
   8.9870000e+01	   3.3620465e-01	   5.2265170e-02	
   8.9925000e+01	   3.1972586e-01	   5.9305499e-02	
   8.9980000e+01	   3.0292387e-01	   6.6555763e-02	
   9.0035000e+01	   2.8619628e-01	   7.4026310e-02	
   9.0090000e+01	   2.6993565e-01	   8.1724444e-02	
   9.0145000e+01	   2.5450977e-01	   8.9644153e-02	
   9.0200000e+01	   2.4024327e-01	   9.7756516e-02	
   9.0255000e+01	   2.2740159e-01	   1.0600206e-01	
   9.0310000e+01	   2.1617943e-01	   1.1428693e-01	
   9.0365000e+01	   2.0669688e-01	   1.2248467e-01	
   9.0420000e+01	   1.9900483e-01	   1.3044411e-01	
   9.0475000e+01	   1.9309741e-01	   1.3800262e-01	
   9.0530000e+01	   1.8892748e-01	   1.4500267e-01	
   9.0585000e+01	   1.8642091e-01	   1.5130873e-01	
   9.0640000e+01	   1.8548628e-01	   1.5682184e-01	
   9.0695000e+01	   1.8601890e-01	   1.6148986e-01	
   9.0750000e+01	   1.8790196e-01	   1.6531301e-01	
   9.0805000e+01	   1.9100844e-01	   1.6834424e-01	
   9.0860000e+01	   1.9520387e-01	   1.7068386e-01	
   9.0915000e+01	   2.0034721e-01	   1.7246847e-01	
   9.0970000e+01	   2.0628807e-01	   1.7385544e-01	
   9.1025000e+01	   2.1286146e-01	   1.7500440e-01	
   9.1080000e+01	   2.1988135e-01	   1.7605735e-01	
   9.1135000e+01	   2.2713384e-01	   1.7712059e-01	
   9.1190000e+01	   2.3437254e-01	   1.7825190e-01	
   9.1245000e+01	   2.4132057e-01	   1.7945523e-01	
   9.1300000e+01	   2.4768186e-01	   1.8068388e-01	
   9.1355000e+01	   2.5316155e-01	   1.8185202e-01	
   9.1410000e+01	   2.5749195e-01	   1.8285281e-01	
   9.1465000e+01	   2.6045748e-01	   1.8357844e-01	
   9.1520000e+01	   2.6191165e-01	   1.8393753e-01	
   9.1575000e+01	   2.6178363e-01	   1.8386782e-01	
   9.1630000e+01	   2.6007620e-01	   1.8334400e-01	
   9.1685000e+01	   2.5685750e-01	   1.8238041e-01	
   9.1740000e+01	   2.5224893e-01	   1.8102801e-01	
   9.1795000e+01	   2.4641127e-01	   1.7936531e-01	
   9.1850000e+01	   2.3952967e-01	   1.7748516e-01	
   9.1905000e+01	   2.3179759e-01	   1.7547978e-01	
   9.1960000e+01	   2.2340021e-01	   1.7342664e-01	
   9.2015000e+01	   2.1449905e-01	   1.7137658e-01	
   9.2070000e+01	   2.0521968e-01	   1.6934538e-01	
   9.2125000e+01	   1.9564514e-01	   1.6730983e-01	
   9.2180000e+01	   1.8581665e-01	   1.6520938e-01	
   9.2235000e+01	   1.7574281e-01	   1.6295436e-01	
   9.2290000e+01	   1.6541623e-01	   1.6044052e-01	
   9.2345000e+01	   1.5483358e-01	   1.5756625e-01	
   9.2400000e+01	   1.4401356e-01	   1.5424798e-01	
   9.2455000e+01	   1.3300813e-01	   1.5043097e-01	
   9.2510000e+01	   1.2190587e-01	   1.4609460e-01	
   9.2565000e+01	   1.1082794e-01	   1.4125276e-01	
   9.2620000e+01	   9.9918428e-02	   1.3594963e-01	
   9.2675000e+01	   8.9331393e-02	   1.3025241e-01	
   9.2730000e+01	   7.9216777e-02	   1.2424215e-01	
   9.2785000e+01	   6.9705972e-02	   1.1800350e-01	
   9.2840000e+01	   6.0897138e-02	   1.1161401e-01	
   9.2895000e+01	   5.2841374e-02	   1.0513430e-01	
   9.2950000e+01	   4.5532589e-02	   9.8601608e-02	
   9.3005000e+01	   3.8903773e-02	   9.2028789e-02	
   9.3060000e+01	   3.2830053e-02	   8.5409715e-02	
   9.3115000e+01	   2.7137892e-02	   7.8730152e-02	
   9.3170000e+01	   2.1620004e-02	   7.1981175e-02	
   9.3225000e+01	   1.6054827e-02	   6.5170825e-02	
   9.3280000e+01	   1.0227610e-02	   5.8330842e-02	
   9.3335000e+01	   3.9496673e-03	   5.1517959e-02	
   9.3390000e+01	  -2.9271046e-03	   4.4811158e-02	
   9.3445000e+01	  -1.0503061e-02	   3.8306097e-02	
   9.3500000e+01	  -1.8832324e-02	   3.2106997e-02	
   9.3555000e+01	  -2.7931407e-02	   2.6316379e-02	
   9.3610000e+01	  -3.7791203e-02	   2.1023805e-02	
   9.3665000e+01	  -4.8388701e-02	   1.6295223e-02	
   9.3720000e+01	  -5.9695408e-02	   1.2164979e-02	
   9.3775000e+01	  -7.1679267e-02	   8.6331647e-03	
   9.3830000e+01	  -8.4297936e-02	   5.6699875e-03	
   9.3885000e+01	  -9.7486114e-02	   3.2262117e-03	
   9.3940000e+01	  -1.1114377e-01	   1.2464707e-03	
   9.3995000e+01	  -1.2513070e-01	  -3.1777857e-04	
   9.4050000e+01	  -1.3926881e-01	  -1.4980127e-03	
   9.4105000e+01	  -1.5335190e-01	  -2.3029817e-03	
   9.4160000e+01	  -1.6716176e-01	  -2.7187335e-03	
   9.4215000e+01	  -1.8048678e-01	  -2.7137617e-03	
   9.4270000e+01	  -1.9313882e-01	  -2.2474654e-03	
   9.4325000e+01	  -2.0496691e-01	  -1.2801230e-03	
   9.4380000e+01	  -2.1586806e-01	   2.1712801e-04	
   9.4435000e+01	  -2.2579429e-01	   2.2536454e-03	
   9.4490000e+01	  -2.3475517e-01	   4.8126459e-03	
   9.4545000e+01	  -2.4281538e-01	   7.8468074e-03	
   9.4600000e+01	  -2.5008552e-01	   1.1277240e-02	
   9.4655000e+01	  -2.5670416e-01	   1.4997697e-02	
   9.4710000e+01	  -2.6281454e-01	   1.8884137e-02	
   9.4765000e+01	  -2.6854278e-01	   2.2806836e-02	
   9.4820000e+01	  -2.7398289e-01	   2.6641864e-02	
   9.4875000e+01	  -2.7918891e-01	   3.0280418e-02	
   9.4930000e+01	  -2.8417347e-01	   3.3635313e-02	
   9.4985000e+01	  -2.8891263e-01	   3.6643535e-02	
   9.5040000e+01	  -2.9335558e-01	   3.9264383e-02	
   9.5095000e+01	  -2.9743751e-01	   4.1473825e-02	
   9.5150000e+01	  -3.0109475e-01	   4.3255953e-02	
   9.5205000e+01	  -3.0428171e-01	   4.4592534e-02	
   9.5260000e+01	  -3.0698748e-01	   4.5452741e-02	
   9.5315000e+01	  -3.0924927e-01	   4.5785978e-02	
   9.5370000e+01	  -3.1115983e-01	   4.5519937e-02	
   9.5425000e+01	  -3.1286679e-01	   4.4564645e-02	
   9.5480000e+01	  -3.1456276e-01	   4.2822377e-02	
   9.5535000e+01	  -3.1646645e-01	   4.0202072e-02	
   9.5590000e+01	  -3.1879869e-01	   3.6635176e-02	
   9.5645000e+01	  -3.2175854e-01	   3.2089591e-02	
   9.5700000e+01	  -3.2550389e-01	   2.6579759e-02	
   9.5755000e+01	  -3.3013692e-01	   2.0171885e-02	
   9.5810000e+01	  -3.3569409e-01	   1.2983293e-02	
   9.5865000e+01	  -3.4214171e-01	   5.1753586e-03	
   9.5920000e+01	  -3.4937818e-01	  -3.0589764e-03	
   9.5975000e+01	  -3.5724276e-01	  -1.1510799e-02	
   9.6030000e+01	  -3.6553118e-01	  -1.9971852e-02	
   9.6085000e+01	  -3.7401714e-01	  -2.8250968e-02	
   9.6140000e+01	  -3.8247667e-01	  -3.6189098e-02	
   9.6195000e+01	  -3.9071028e-01	  -4.3671140e-02	
   9.6250000e+01	  -3.9855971e-01	  -5.0633012e-02	
   9.6305000e+01	  -4.0591716e-01	  -5.7062576e-02	
   9.6360000e+01	  -4.1272526e-01	  -6.2992744e-02	
   9.6415000e+01	  -4.1896724e-01	  -6.8486644e-02	
   9.6470000e+01	  -4.2465130e-01	  -7.3618191e-02	
   9.6525000e+01	  -4.2979457e-01	  -7.8453239e-02	
   9.6580000e+01	  -4.3440969e-01	  -8.3035240e-02	
   9.6635000e+01	  -4.3849509e-01	  -8.7377473e-02	
   9.6690000e+01	  -4.4203092e-01	  -9.1462319e-02	
   9.6745000e+01	  -4.4498159e-01	  -9.5246145e-02	
   9.6800000e+01	  -4.4730334e-01	  -9.8667385e-02	
   9.6855000e+01	  -4.4895426e-01	  -1.0165620e-01	
   9.6910000e+01	  -4.4990525e-01	  -1.0414521e-01	
   9.6965000e+01	  -4.5015173e-01	  -1.0608092e-01	
   9.7020000e+01	  -4.4972498e-01	  -1.0743473e-01	
   9.7075000e+01	  -4.4870033e-01	  -1.0821069e-01	
   9.7130000e+01	  -4.4719898e-01	  -1.0844732e-01	
   9.7185000e+01	  -4.4538208e-01	  -1.0821159e-01	
   9.7240000e+01	  -4.4343760e-01	  -1.0758649e-01	
   9.7295000e+01	  -4.4156305e-01	  -1.0665534e-01	
   9.7350000e+01	  -4.3994800e-01	  -1.0548701e-01	
   9.7405000e+01	  -4.3876030e-01	  -1.0412527e-01	
   9.7460000e+01	  -4.3813690e-01	  -1.0258416e-01	
   9.7515000e+01	  -4.3817834e-01	  -1.0084969e-01	
   9.7570000e+01	  -4.3894599e-01	  -9.8887373e-02	
   9.7625000e+01	  -4.4046242e-01	  -9.6654074e-02	
   9.7680000e+01	  -4.4271521e-01	  -9.4111493e-02	
   9.7735000e+01	  -4.4566386e-01	  -9.1238558e-02	
   9.7790000e+01	  -4.4924800e-01	  -8.8041259e-02	
   9.7845000e+01	  -4.5339415e-01	  -8.4558848e-02	
   9.7900000e+01	  -4.5801796e-01	  -8.0864250e-02	
   9.7955000e+01	  -4.6302122e-01	  -7.7056917e-02	
   9.8010000e+01	  -4.6828775e-01	  -7.3248793e-02	
   9.8065000e+01	  -4.7368331e-01	  -6.9546390e-02	
   9.8120000e+01	  -4.7906026e-01	  -6.6033042e-02	
   9.8175000e+01	  -4.8426369e-01	  -6.2755250e-02	
   9.8230000e+01	  -4.8913702e-01	  -5.9715685e-02	
   9.8285000e+01	  -4.9352719e-01	  -5.6873372e-02	
   9.8340000e+01	  -4.9729036e-01	  -5.4149985e-02	
   9.8395000e+01	  -5.0029874e-01	  -5.1440646e-02	
   9.8450000e+01	  -5.0244833e-01	  -4.8627730e-02	
   9.8505000e+01	  -5.0366677e-01	  -4.5595798e-02	
   9.8560000e+01	  -5.0391986e-01	  -4.2245304e-02	
   9.8615000e+01	  -5.0321601e-01	  -3.8503124e-02	
   9.8670000e+01	  -5.0160713e-01	  -3.4328448e-02	
   9.8725000e+01	  -4.9918237e-01	  -2.9712706e-02	
   9.8780000e+01	  -4.9605287e-01	  -2.4673279e-02	
   9.8835000e+01	  -4.9233116e-01	  -1.9243228e-02	
   9.8890000e+01	  -4.8811199e-01	  -1.3460960e-02	
   9.8945000e+01	  -4.8345885e-01	  -7.3624197e-03	
   9.9000000e+01	  -4.7839703e-01	  -9.7597771e-04	
   9.9055000e+01	  -4.7291321e-01	   5.6802638e-03	
   9.9110000e+01	  -4.6696068e-01	   1.2597947e-02	
   9.9165000e+01	  -4.6046769e-01	   1.9774121e-02	
   9.9220000e+01	  -4.5334623e-01	   2.7203995e-02	
   9.9275000e+01	  -4.4549974e-01	   3.4872169e-02	
   9.9330000e+01	  -4.3683015e-01	   4.2743511e-02	
   9.9385000e+01	  -4.2724421e-01	   5.0755552e-02	
   9.9440000e+01	  -4.1665806e-01	   5.8815029e-02	
   9.9495000e+01	  -4.0499694e-01	   6.6800584e-02	
   9.9550000e+01	  -3.9218924e-01	   7.4572135e-02	
   9.9605000e+01	  -3.7815638e-01	   8.1985744e-02	
   9.9660000e+01	  -3.6280268e-01	   8.8911181e-02	
   9.9715000e+01	  -3.4601036e-01	   9.5248488e-02	
   9.9770000e+01	  -3.2764304e-01	   1.0093972e-01	
   9.9825000e+01	  -3.0755865e-01	   1.0597369e-01	
   9.9880000e+01	  -2.8562882e-01	   1.1038409e-01	
   9.9935000e+01	  -2.6176064e-01	   1.1424257e-01	
   9.9990000e+01	  -2.3591761e-01	   1.1764770e-01	
   1.0004500e+02	  -2.0813816e-01	   1.2071111e-01	
   1.0010000e+02	  -1.7855061e-01	   1.2354311e-01	
   1.0015500e+02	  -1.4738252e-01	   1.2623996e-01	
   1.0021000e+02	  -1.1496228e-01	   1.2887459e-01	
   1.0026500e+02	  -8.1710643e-02	   1.3149287e-01	
   1.0032000e+02	  -4.8120815e-02	   1.3411608e-01	
   1.0037500e+02	  -1.4728816e-02	   1.3674882e-01	
   1.0043000e+02	   1.7920973e-02	   1.3938976e-01	
   1.0048500e+02	   4.9310713e-02	   1.4204265e-01	
   1.0054000e+02	   7.8981629e-02	   1.4472521e-01	
   1.0059500e+02	   1.0656072e-01	   1.4747431e-01	
   1.0065000e+02	   1.3177807e-01	   1.5034615e-01	
   1.0070500e+02	   1.5447326e-01	   1.5341115e-01	
   1.0076000e+02	   1.7459174e-01	   1.5674456e-01	
   1.0081500e+02	   1.9217271e-01	   1.6041416e-01	
   1.0087000e+02	   2.0733010e-01	   1.6446764e-01	
   1.0092500e+02	   2.2022881e-01	   1.6892201e-01	
   1.0098000e+02	   2.3105869e-01	   1.7375775e-01	
   1.0103500e+02	   2.4000999e-01	   1.7891835e-01	
   1.0109000e+02	   2.4725425e-01	   1.8431601e-01	
   1.0114500e+02	   2.5293355e-01	   1.8984256e-01	
   1.0120000e+02	   2.5715786e-01	   1.9538387e-01	
   1.0125500e+02	   2.6000846e-01	   2.0083402e-01	
   1.0131000e+02	   2.6154483e-01	   2.0610680e-01	
   1.0136500e+02	   2.6181259e-01	   2.1114264e-01	
   1.0142000e+02	   2.6085039e-01	   2.1591050e-01	
   1.0147500e+02	   2.5869409e-01	   2.2040470e-01	
   1.0153000e+02	   2.5537634e-01	   2.2463733e-01	
   1.0158500e+02	   2.5092193e-01	   2.2862829e-01	
   1.0164000e+02	   2.4534193e-01	   2.3239505e-01	
   1.0169500e+02	   2.3863037e-01	   2.3594378e-01	
   1.0175000e+02	   2.3076572e-01	   2.3926306e-01	
   1.0180500e+02	   2.2171973e-01	   2.4232188e-01	
   1.0186000e+02	   2.1147508e-01	   2.4507333e-01	
   1.0191500e+02	   2.0004820e-01	   2.4746313e-01	
   1.0197000e+02	   1.8751013e-01	   2.4944035e-01	
   1.0202500e+02	   1.7400030e-01	   2.5096754e-01	
   1.0208000e+02	   1.5973121e-01	   2.5202834e-01	
   1.0213500e+02	   1.4498318e-01	   2.5263145e-01	
   1.0219000e+02	   1.3008884e-01	   2.5281027e-01	
   1.0224500e+02	   1.1540983e-01	   2.5261843e-01	
   1.0230000e+02	   1.0130966e-01	   2.5212169e-01	
   1.0235500e+02	   8.8125993e-02	   2.5138745e-01	
   1.0241000e+02	   7.6144833e-02	   2.5047297e-01	
   1.0246500e+02	   6.5578990e-02	   2.4941455e-01	
   1.0252000e+02	   5.6552827e-02	   2.4821932e-01	
   1.0257500e+02	   4.9094787e-02	   2.4686122e-01	
   1.0263000e+02	   4.3139621e-02	   2.4528316e-01	
   1.0268500e+02	   3.8541757e-02	   2.4340629e-01	
   1.0274000e+02	   3.5098192e-02	   2.4114456e-01	
   1.0279500e+02	   3.2576268e-02	   2.3842043e-01	
   1.0285000e+02	   3.0741610e-02	   2.3517850e-01	
   1.0290500e+02	   2.9383100e-02	   2.3139561e-01	
   1.0296000e+02	   2.8332069e-02	   2.2708683e-01	
   1.0301500e+02	   2.7472281e-02	   2.2230611e-01	
   1.0307000e+02	   2.6738975e-02	   2.1714096e-01	
   1.0312500e+02	   2.6109421e-02	   2.1170189e-01	
   1.0318000e+02	   2.5590425e-02	   2.0610823e-01	
   1.0323500e+02	   2.5206937e-02	   2.0047209e-01	
   1.0329000e+02	   2.4992772e-02	   1.9488285e-01	
   1.0334500e+02	   2.4982555e-02	   1.8939502e-01	
   1.0340000e+02	   2.5204190e-02	   1.8402160e-01	
   1.0345500e+02	   2.5672682e-02	   1.7873434e-01	
   1.0351000e+02	   2.6387126e-02	   1.7347179e-01	
   1.0356500e+02	   2.7331799e-02	   1.6815439e-01	
   1.0362000e+02	   2.8480333e-02	   1.6270310e-01	
   1.0367500e+02	   2.9800747e-02	   1.5705644e-01	
   1.0373000e+02	   3.1259162e-02	   1.5118249e-01	
   1.0378500e+02	   3.2820728e-02	   1.4508445e-01	
   1.0384000e+02	   3.4447009e-02	   1.3879975e-01	
   1.0389500e+02	   3.6090349e-02	   1.3239384e-01	
   1.0395000e+02	   3.7687526e-02	   1.2595031e-01	
   1.0400500e+02	   3.9155193e-02	   1.1955985e-01	
   1.0406000e+02	   4.0387681e-02	   1.1330932e-01	
   1.0411500e+02	   4.1256727e-02	   1.0727226e-01	
   1.0417000e+02	   4.1613736e-02	   1.0150159e-01	
   1.0422500e+02	   4.1296079e-02	   9.6026497e-02	
   1.0428000e+02	   4.0137773e-02	   9.0854890e-02	
   1.0433500e+02	   3.7983252e-02	   8.5980724e-02	
   1.0439000e+02	   3.4702651e-02	   8.1392969e-02	
   1.0444500e+02	   3.0207080e-02	   7.7083273e-02	
   1.0450000e+02	   2.4461024e-02	   7.3050374e-02	
   1.0455500e+02	   1.7488545e-02	   6.9300607e-02	
   1.0461000e+02	   9.3725844e-03	   6.5845061e-02	
   1.0466500e+02	   2.4903651e-04	   6.2694724e-02	
   1.0472000e+02	  -9.7035131e-03	   5.9854819e-02	
   1.0477500e+02	  -2.0278096e-02	   5.7319156e-02	
   1.0483000e+02	  -3.1256033e-02	   5.5065504e-02	
   1.0488500e+02	  -4.2423568e-02	   5.3053246e-02	
   1.0494000e+02	  -5.3586586e-02	   5.1223977e-02	
   1.0499500e+02	  -6.4581341e-02	   4.9505358e-02	
   1.0505000e+02	  -7.5278535e-02	   4.7818656e-02	
   1.0510500e+02	  -8.5579045e-02	   4.6089512e-02	
   1.0516000e+02	  -9.5402976e-02	   4.4259573e-02	
   1.0521500e+02	  -1.0467685e-01	   4.2295891e-02	
   1.0527000e+02	  -1.1332399e-01	   4.0195997e-02	
   1.0532500e+02	  -1.2126056e-01	   3.7988136e-02	
   1.0538000e+02	  -1.2839644e-01	   3.5727087e-02	
   1.0543500e+02	  -1.3463937e-01	   3.3486644e-02	
   1.0549000e+02	  -1.3990146e-01	   3.1350111e-02	
   1.0554500e+02	  -1.4410836e-01	   2.9399879e-02	
   1.0560000e+02	  -1.4721044e-01	   2.7706532e-02	
   1.0565500e+02	  -1.4919386e-01	   2.6318245e-02	
   1.0571000e+02	  -1.5008873e-01	   2.5252194e-02	
   1.0576500e+02	  -1.4997249e-01	   2.4489846e-02	
   1.0582000e+02	  -1.4896708e-01	   2.3977364e-02	
   1.0587500e+02	  -1.4722917e-01	   2.3631993e-02	
   1.0593000e+02	  -1.4493351e-01	   2.3354142e-02	
   1.0598500e+02	  -1.4225288e-01	   2.3042373e-02	
   1.0604000e+02	  -1.3934122e-01	   2.2606957e-02	
   1.0609500e+02	  -1.3632339e-01	   2.1979116e-02	
   1.0615000e+02	  -1.3328953e-01	   2.1116029e-02	
   1.0620500e+02	  -1.3028990e-01	   2.0002548e-02	
   1.0626000e+02	  -1.2733041e-01	   1.8649290e-02	
   1.0631500e+02	  -1.2437225e-01	   1.7086482e-02	
   1.0637000e+02	  -1.2133804e-01	   1.5354545e-02	
   1.0642500e+02	  -1.1812401e-01	   1.3493401e-02	
   1.0648000e+02	  -1.1461627e-01	   1.1531807e-02	
   1.0653500e+02	  -1.1070994e-01	   9.4772667e-03	
   1.0659000e+02	  -1.0632957e-01	   7.3070494e-03	
   1.0664500e+02	  -1.0144873e-01	   4.9611752e-03	
   1.0670000e+02	  -9.6105133e-02	   2.3389112e-03	
   1.0675500e+02	  -9.0406700e-02	  -6.9876485e-04	
   1.0681000e+02	  -8.4525472e-02	  -4.3186434e-03	
   1.0686500e+02	  -7.8681216e-02	  -8.6976641e-03	
   1.0692000e+02	  -7.3120236e-02	  -1.4002454e-02	
   1.0697500e+02	  -6.8094712e-02	  -2.0370224e-02	
   1.0703000e+02	  -6.3845268e-02	  -2.7893053e-02	
   1.0708500e+02	  -6.0587222e-02	  -3.6606794e-02	
   1.0714000e+02	  -5.8500305e-02	  -4.6485999e-02	
   1.0719500e+02	  -5.7722490e-02	  -5.7445511e-02	
   1.0725000e+02	  -5.8349150e-02	  -6.9348043e-02	
   1.0730500e+02	  -6.0437855e-02	  -8.2016520e-02	
   1.0736000e+02	  -6.4017047e-02	  -9.5250002e-02	
   1.0741500e+02	  -6.9095880e-02	  -1.0884181e-01	
   1.0747000e+02	  -7.5673487e-02	  -1.2259808e-01	
   1.0752500e+02	  -8.3747545e-02	  -1.3635471e-01	
   1.0758000e+02	  -9.3321857e-02	  -1.4999046e-01	
   1.0763500e+02	  -1.0441098e-01	  -1.6343309e-01	
   1.0769000e+02	  -1.1703930e-01	  -1.7665625e-01	
   1.0774500e+02	  -1.3123407e-01	  -1.8966758e-01	
   1.0780000e+02	  -1.4701463e-01	  -2.0249204e-01	
   1.0785500e+02	  -1.6437972e-01	  -2.1515529e-01	
   1.0791000e+02	  -1.8329413e-01	  -2.2767050e-01	
   1.0796500e+02	  -2.0367615e-01	  -2.4002995e-01	
   1.0802000e+02	  -2.2538874e-01	  -2.5220161e-01	
   1.0807500e+02	  -2.4823643e-01	  -2.6412971e-01	
   1.0813000e+02	  -2.7196910e-01	  -2.7573858e-01	
   1.0818500e+02	  -2.9629292e-01	  -2.8694000e-01	
   1.0824000e+02	  -3.2088778e-01	  -2.9764342e-01	
   1.0829500e+02	  -3.4542861e-01	  -3.0776757e-01	
   1.0835000e+02	  -3.6960573e-01	  -3.1725077e-01	
   1.0840500e+02	  -3.9314094e-01	  -3.2605804e-01	
   1.0846000e+02	  -4.1579736e-01	  -3.3418344e-01	
   1.0851500e+02	  -4.3738088e-01	  -3.4164608e-01	
   1.0857000e+02	  -4.5773205e-01	  -3.4847990e-01	
   1.0862500e+02	  -4.7671174e-01	  -3.5472042e-01	
   1.0868000e+02	  -4.9418806e-01	  -3.6039274e-01	
   1.0873500e+02	  -5.1002993e-01	  -3.6550419e-01	
   1.0879000e+02	  -5.2410676e-01	  -3.7004153e-01	
   1.0884500e+02	  -5.3629149e-01	  -3.7397210e-01	
   1.0890000e+02	  -5.4646499e-01	  -3.7724761e-01	
   1.0895500e+02	  -5.5452169e-01	  -3.7980978e-01	
   1.0901000e+02	  -5.6037613e-01	  -3.8159712e-01	
   1.0906500e+02	  -5.6397083e-01	  -3.8255305e-01	
   1.0912000e+02	  -5.6528397e-01	  -3.8263517e-01	
   1.0917500e+02	  -5.6433432e-01	  -3.8182408e-01	
   1.0923000e+02	  -5.6118206e-01	  -3.8012973e-01	
   1.0928500e+02	  -5.5592630e-01	  -3.7759270e-01	
   1.0934000e+02	  -5.4869952e-01	  -3.7427953e-01	
   1.0939500e+02	  -5.3965815e-01	  -3.7027281e-01	
   1.0945000e+02	  -5.2897090e-01	  -3.6565840e-01	
   1.0950500e+02	  -5.1680866e-01	  -3.6051334e-01	
   1.0956000e+02	  -5.0333869e-01	  -3.5489729e-01	
   1.0961500e+02	  -4.8872245e-01	  -3.4884857e-01	
   1.0967000e+02	  -4.7311598e-01	  -3.4238496e-01	
   1.0972500e+02	  -4.5667281e-01	  -3.3550887e-01	
   1.0978000e+02	  -4.3954939e-01	  -3.2821622e-01	
   1.0983500e+02	  -4.2191101e-01	  -3.2050715e-01	
   1.0989000e+02	  -4.0393556e-01	  -3.1239666e-01	
   1.0994500e+02	  -3.8581468e-01	  -3.0392388e-01	
   1.1000000e+02	  -3.6775200e-01	  -2.9515873e-01	
   1.1005500e+02	  -3.4995777e-01	  -2.8620379e-01	
   1.1011000e+02	  -3.3263982e-01	  -2.7719012e-01	
   1.1016500e+02	  -3.1599265e-01	  -2.6826734e-01	
   1.1022000e+02	  -3.0018541e-01	  -2.5958992e-01	
   1.1027500e+02	  -2.8535002e-01	  -2.5130192e-01	
   1.1033000e+02	  -2.7157149e-01	  -2.4352224e-01	
   1.1038500e+02	  -2.5888243e-01	  -2.3633283e-01	
   1.1044000e+02	  -2.4726134e-01	  -2.2977062e-01	
   1.1049500e+02	  -2.3663334e-01	  -2.2382349e-01	
   1.1055000e+02	  -2.2687430e-01	  -2.1843112e-01	
   1.1060500e+02	  -2.1782107e-01	  -2.1349196e-01	
   1.1066000e+02	  -2.0928900e-01	  -2.0887634e-01	
   1.1071500e+02	  -2.0109481e-01	  -2.0444325e-01	
   1.1077000e+02	  -1.9308061e-01	  -2.0005795e-01	
   1.1082500e+02	  -1.8513424e-01	  -1.9560834e-01	
   1.1088000e+02	  -1.7720123e-01	  -1.9101836e-01	
   1.1093500e+02	  -1.6928619e-01	  -1.8625629e-01	
   1.1099000e+02	  -1.6144471e-01	  -1.8133569e-01	
   1.1104500e+02	  -1.5376799e-01	  -1.7630863e-01	
   1.1110000e+02	  -1.4636323e-01	  -1.7125240e-01	
   1.1115500e+02	  -1.3933218e-01	  -1.6625249e-01	
   1.1121000e+02	  -1.3275084e-01	  -1.6138627e-01	
   1.1126500e+02	  -1.2665310e-01	  -1.5671103e-01	
   1.1132000e+02	  -1.2102070e-01	  -1.5225800e-01	
   1.1137500e+02	  -1.1578110e-01	  -1.4803190e-01	
   1.1143000e+02	  -1.1081426e-01	  -1.4401517e-01	
   1.1148500e+02	  -1.0596814e-01	  -1.4017639e-01	
   1.1154000e+02	  -1.0107950e-01	  -1.3648090e-01	
   1.1159500e+02	  -9.5996327e-02	  -1.3290127e-01	
   1.1165000e+02	  -9.0598123e-02	  -1.2942597e-01	
   1.1170500e+02	  -8.4811969e-02	  -1.2606526e-01	
   1.1176000e+02	  -7.8622077e-02	  -1.2285292e-01	
   1.1181500e+02	  -7.2071550e-02	  -1.1984210e-01	
   1.1187000e+02	  -6.5257013e-02	  -1.1709557e-01	
   1.1192500e+02	  -5.8318833e-02	  -1.1467277e-01	
   1.1198000e+02	  -5.1429125e-02	  -1.1261764e-01	
   1.1203500e+02	  -4.4777991e-02	  -1.1095003e-01	
   1.1209000e+02	  -3.8558224e-02	  -1.0966183e-01	
   1.1214500e+02	  -3.2949637e-02	  -1.0871741e-01	
   1.1220000e+02	  -2.8104904e-02	  -1.0805730e-01	
   1.1225500e+02	  -2.4138660e-02	  -1.0760438e-01	
   1.1231000e+02	  -2.1121110e-02	  -1.0727225e-01	
   1.1236500e+02	  -1.9076871e-02	  -1.0697513e-01	
   1.1242000e+02	  -1.7988247e-02	  -1.0663801e-01	
   1.1247500e+02	  -1.7799783e-02	  -1.0620490e-01	
   1.1253000e+02	  -1.8420776e-02	  -1.0564237e-01	
   1.1258500e+02	  -1.9724709e-02	  -1.0493707e-01	
   1.1264000e+02	  -2.1546527e-02	  -1.0408741e-01	
   1.1269500e+02	  -2.3679843e-02	  -1.0309257e-01	
   1.1275000e+02	  -2.5877031e-02	  -1.0194239e-01	
   1.1280500e+02	  -2.7854735e-02	  -1.0061113e-01	
   1.1286000e+02	  -2.9305796e-02	  -9.9055625e-02	
   1.1291500e+02	  -2.9917442e-02	  -9.7217253e-02	
   1.1297000e+02	  -2.9393942e-02	  -9.5027382e-02	
   1.1302500e+02	  -2.7479466e-02	  -9.2415897e-02	
   1.1308000e+02	  -2.3976427e-02	  -8.9321232e-02	
   1.1313500e+02	  -1.8757393e-02	  -8.5700108e-02	
   1.1319000e+02	  -1.1771372e-02	  -8.1535814e-02	
   1.1324500e+02	  -3.0446460e-03	  -7.6843621e-02	
   1.1330000e+02	   7.3254728e-03	  -7.1671072e-02	
   1.1335500e+02	   1.9185169e-02	  -6.6091549e-02	
   1.1341000e+02	   3.2344794e-02	  -6.0192230e-02	
   1.1346500e+02	   4.6600572e-02	  -5.4060042e-02	
   1.1352000e+02	   6.1753013e-02	  -4.7769593e-02	
   1.1357500e+02	   7.7620349e-02	  -4.1375569e-02	
   1.1363000e+02	   9.4046027e-02	  -3.4910325e-02	
   1.1368500e+02	   1.1089938e-01	  -2.8386141e-02	
   1.1374000e+02	   1.2807040e-01	  -2.1801223e-02	
   1.1379500e+02	   1.4546113e-01	  -1.5148771e-02	
   1.1385000e+02	   1.6297563e-01	  -8.4281218e-03	
   1.1390500e+02	   1.8050993e-01	  -1.6561439e-03	
   1.1396000e+02	   1.9794402e-01	   5.1235714e-03	
   1.1401500e+02	   2.1513775e-01	   1.1835511e-02	
   1.1407000e+02	   2.3193077e-01	   1.8371814e-02	
   1.1412500e+02	   2.4814634e-01	   2.4597333e-02	
   1.1418000e+02	   2.6359955e-01	   3.0360848e-02	
   1.1423500e+02	   2.7811017e-01	   3.5511193e-02	
   1.1429000e+02	   2.9151845e-01	   3.9914681e-02	
   1.1434500e+02	   3.0370026e-01	   4.3470149e-02	
   1.1440000e+02	   3.1457979e-01	   4.6120033e-02	
   1.1445500e+02	   3.2413780e-01	   4.7856999e-02	
   1.1451000e+02	   3.3241378e-01	   4.8725441e-02	
   1.1456500e+02	   3.3950114e-01	   4.8817582e-02	
   1.1462000e+02	   3.4553672e-01	   4.8264700e-02	
   1.1467500e+02	   3.5068601e-01	   4.7224203e-02	
   1.1473000e+02	   3.5512498e-01	   4.5863651e-02	
   1.1478500e+02	   3.5902054e-01	   4.4343788e-02	
   1.1484000e+02	   3.6251160e-01	   4.2802578e-02	
   1.1489500e+02	   3.6569235e-01	   4.1341382e-02	
   1.1495000e+02	   3.6859864e-01	   4.0014470e-02	
   1.1500500e+02	   3.7120046e-01	   3.8824022e-02	
   1.1506000e+02	   3.7340453e-01	   3.7723318e-02	
   1.1511500e+02	   3.7506819e-01	   3.6628892e-02	
   1.1517000e+02	   3.7602160e-01	   3.5439104e-02	
   1.1522500e+02	   3.7609377e-01	   3.4054430e-02	
   1.1528000e+02	   3.7513861e-01	   3.2395395e-02	
   1.1533500e+02	   3.7305762e-01	   3.0415434e-02	
   1.1539000e+02	   3.6981486e-01	   2.8107101e-02	
   1.1544500e+02	   3.6544134e-01	   2.5501687e-02	
   1.1550000e+02	   3.6003074e-01	   2.2664145e-02	
   1.1555500e+02	   3.5373004e-01	   1.9684923e-02	
   1.1561000e+02	   3.4672706e-01	   1.6668914e-02	
   1.1566500e+02	   3.3923412e-01	   1.3721897e-02	
   1.1572000e+02	   3.3146796e-01	   1.0936337e-02	
   1.1577500e+02	   3.2362739e-01	   8.3786167e-03	
   1.1583000e+02	   3.1587160e-01	   6.0791886e-03	
   1.1588500e+02	   3.0830370e-01	   4.0269871e-03	
   1.1594000e+02	   3.0096332e-01	   2.1695913e-03	
   1.1599500e+02	   2.9382925e-01	   4.1993628e-04	
   1.1605000e+02	   2.8682922e-01	  -1.3313527e-03	
   1.1610500e+02	   2.7985380e-01	  -3.2008103e-03	
   1.1616000e+02	   2.7277245e-01	  -5.2976800e-03	
   1.1621500e+02	   2.6544981e-01	  -7.7126347e-03	
   1.1627000e+02	   2.5775979e-01	  -1.0510285e-02	
   1.1632500e+02	   2.4959550e-01	  -1.3725178e-02	
   1.1638000e+02	   2.4087440e-01	  -1.7361261e-02	
   1.1643500e+02	   2.3153928e-01	  -2.1394919e-02	
   1.1649000e+02	   2.2155628e-01	  -2.5781504e-02	
   1.1654500e+02	   2.1091023e-01	  -3.0464871e-02	
   1.1660000e+02	   1.9959691e-01	  -3.5388830e-02	
   1.1665500e+02	   1.8761420e-01	  -4.0508364e-02	
   1.1671000e+02	   1.7495553e-01	  -4.5797454e-02	
   1.1676500e+02	   1.6160858e-01	  -5.1250302e-02	
   1.1682000e+02	   1.4756026e-01	  -5.6874649e-02	
   1.1687500e+02	   1.3280687e-01	  -6.2679398e-02	
   1.1693000e+02	   1.1736625e-01	  -6.8660998e-02	
   1.1698500e+02	   1.0128972e-01	  -7.4792342e-02	
   1.1704000e+02	   8.4671491e-02	  -8.1016029e-02	
   1.1709500e+02	   6.7653630e-02	  -8.7243070e-02	
   1.1715000e+02	   5.0425091e-02	  -9.3357681e-02	
   1.1720500e+02	   3.3215467e-02	  -9.9227192e-02	
   1.1726000e+02	   1.6285583e-02	  -1.0471454e-01	
   1.1731500e+02	  -8.2809847e-05	  -1.0969096e-01	
   1.1737000e+02	  -1.5597506e-02	  -1.1404747e-01	
   1.1742500e+02	  -2.9965931e-02	  -1.1770363e-01	
   1.1748000e+02	  -4.2902749e-02	  -1.2061161e-01	
   1.1753500e+02	  -5.4132811e-02	  -1.2275384e-01	
   1.1759000e+02	  -6.3389633e-02	  -1.2413476e-01	
   1.1764500e+02	  -7.0412757e-02	  -1.2476924e-01	
   1.1770000e+02	  -7.4948554e-02	  -1.2467187e-01	
   1.1775500e+02	  -7.6757019e-02	  -1.2385000e-01	
   1.1781000e+02	  -7.5623289e-02	  -1.2230183e-01	
   1.1786500e+02	  -7.1370784e-02	  -1.2001829e-01	
   1.1792000e+02	  -6.3874358e-02	  -1.1698771e-01	
   1.1797500e+02	  -5.3074231e-02	  -1.1320315e-01	
   1.1803000e+02	  -3.8991547e-02	  -1.0867193e-01	
   1.1808500e+02	  -2.1743884e-02	  -1.0342599e-01	
   1.1814000e+02	  -1.5574290e-03	  -9.7530167e-02	
   1.1819500e+02	   2.1226533e-02	  -9.1086641e-02	
   1.1825000e+02	   4.6152989e-02	  -8.4234450e-02	
   1.1830500e+02	   7.2666203e-02	  -7.7142591e-02	
   1.1836000e+02	   1.0013678e-01	  -6.9996509e-02	
   1.1841500e+02	   1.2789974e-01	  -6.2980780e-02	
   1.1847000e+02	   1.5529623e-01	  -5.6262489e-02	
   1.1852500e+02	   1.8171164e-01	  -4.9978281e-02	
   1.1858000e+02	   2.0660435e-01	  -4.4226029e-02	
   1.1863500e+02	   2.2952310e-01	  -3.9061695e-02	
   1.1869000e+02	   2.5011289e-01	  -3.4501795e-02	
   1.1874500e+02	   2.6811130e-01	  -3.0530940e-02	
   1.1880000e+02	   2.8333750e-01	  -2.7112692e-02	
   1.1885500e+02	   2.9567669e-01	  -2.4201631e-02	
   1.1891000e+02	   3.0506294e-01	  -2.1754651e-02	
   1.1896500e+02	   3.1146347e-01	  -1.9739858e-02	
   1.1902000e+02	   3.1486763e-01	  -1.8141888e-02	
   1.1907500e+02	   3.1528231e-01	  -1.6962845e-02	
   1.1913000e+02	   3.1273419e-01	  -1.6218086e-02	
   1.1918500e+02	   3.0727775e-01	  -1.5926766e-02	
   1.1924000e+02	   2.9900806e-01	  -1.6099185e-02	
   1.1929500e+02	   2.8807570e-01	  -1.6724818e-02	
   1.1935000e+02	   2.7469968e-01	  -1.7764205e-02	
   1.1940500e+02	   2.5917593e-01	  -1.9145497e-02	
   1.1946000e+02	   2.4188020e-01	  -2.0765246e-02	
   1.1951500e+02	   2.2326467e-01	  -2.2493525e-02	
   1.1957000e+02	   2.0384694e-01	  -2.4183357e-02	
   1.1962500e+02	   1.8419111e-01	  -2.5683165e-02	
   1.1968000e+02	   1.6488233e-01	  -2.6850529e-02	
   1.1973500e+02	   1.4649731e-01	  -2.7566116e-02	
   1.1979000e+02	   1.2957423e-01	  -2.7746801e-02	
   1.1984500e+02	   1.1458470e-01	  -2.7356392e-02	
   1.1990000e+02	   1.0190918e-01	  -2.6412237e-02	
   1.1995500e+02	   9.1816796e-02	  -2.4985989e-02	
   1.2001000e+02	   8.4451875e-02	  -2.3196861e-02	
   1.2006500e+02	   7.9829041e-02	  -2.1197351e-02	
   1.2012000e+02	   7.7836280e-02	  -1.9154583e-02	
   1.2017500e+02	   7.8243533e-02	  -1.7231714e-02	
   1.2023000e+02	   8.0715262e-02	  -1.5572282e-02	
   1.2028500e+02	   8.4827042e-02	  -1.4288744e-02	
   1.2034000e+02	   9.0087030e-02	  -1.3455896e-02	
   1.2039500e+02	   9.5962232e-02	  -1.3109602e-02	
   1.2045000e+02	   1.0190710e-01	  -1.3250639e-02	
   1.2050500e+02	   1.0739015e-01	  -1.3852829e-02	
   1.2056000e+02	   1.1191543e-01	  -1.4874209e-02	
   1.2061500e+02	   1.1503812e-01	  -1.6269518e-02	
   1.2067000e+02	   1.1637614e-01	  -1.8001663e-02	
   1.2072500e+02	   1.1561958e-01	  -2.0049759e-02	
   1.2078000e+02	   1.1253948e-01	  -2.2412024e-02	
   1.2083500e+02	   1.0699594e-01	  -2.5103037e-02	
   1.2089000e+02	   9.8944525e-02	  -2.8146209e-02	
   1.2094500e+02	   8.8439556e-02	  -3.1563543e-02	
   1.2100000e+02	   7.5633588e-02	  -3.5365722e-02	
   1.2105500e+02	   6.0771355e-02	  -3.9545659e-02	
   1.2111000e+02	   4.4176624e-02	  -4.4076866e-02	
   1.2116500e+02	   2.6233021e-02	  -4.8915578e-02	
   1.2122000e+02	   7.3625956e-03	  -5.4005039e-02	
   1.2127500e+02	  -1.1995044e-02	  -5.9281416e-02	
   1.2133000e+02	  -3.1402148e-02	  -6.4681054e-02	
   1.2138500e+02	  -5.0440090e-02	  -7.0147996e-02	
   1.2144000e+02	  -6.8723490e-02	  -7.5640452e-02	
   1.2149500e+02	  -8.5911136e-02	  -8.1135380e-02	
   1.2155000e+02	  -1.0171448e-01	  -8.6630389e-02	
   1.2160500e+02	  -1.1590335e-01	  -9.2141648e-02	
   1.2166000e+02	  -1.2830763e-01	  -9.7697258e-02	
   1.2171500e+02	  -1.3881512e-01	  -1.0332773e-01	
   1.2177000e+02	  -1.4736770e-01	  -1.0905641e-01	
   1.2182500e+02	  -1.5395673e-01	  -1.1489161e-01	
   1.2188000e+02	  -1.5861681e-01	  -1.2082070e-01	
   1.2193500e+02	  -1.6141777e-01	  -1.2680711e-01	
   1.2199000e+02	  -1.6245717e-01	  -1.3279125e-01	
   1.2204500e+02	  -1.6185482e-01	  -1.3869572e-01	
   1.2210000e+02	  -1.5974944e-01	  -1.4443355e-01	
   1.2215500e+02	  -1.5629691e-01	  -1.4991800e-01	
   1.2221000e+02	  -1.5166888e-01	  -1.5507158e-01	
   1.2226500e+02	  -1.4604967e-01	  -1.5983162e-01	
   1.2232000e+02	  -1.3962976e-01	  -1.6415122e-01	
   1.2237500e+02	  -1.3259560e-01	  -1.6799543e-01	
   1.2243000e+02	  -1.2511726e-01	  -1.7133408e-01	
   1.2248500e+02	  -1.1733706e-01	  -1.7413332e-01	
   1.2254000e+02	  -1.0936397e-01	  -1.7634944e-01	
   1.2259500e+02	  -1.0127599e-01	  -1.7792725e-01	
   1.2265000e+02	  -9.3129373e-02	  -1.7880317e-01	
   1.2270500e+02	  -8.4971375e-02	  -1.7891137e-01	
   1.2276000e+02	  -7.6854153e-02	  -1.7819203e-01	
   1.2281500e+02	  -6.8848488e-02	  -1.7660102e-01	
   1.2287000e+02	  -6.1055884e-02	  -1.7412050e-01	
   1.2292500e+02	  -5.3617706e-02	  -1.7076877e-01	
   1.2298000e+02	  -4.6720593e-02	  -1.6660766e-01	
   1.2303500e+02	  -4.0597048e-02	  -1.6174535e-01	
   1.2309000e+02	  -3.5519064e-02	  -1.5633247e-01	
   1.2314500e+02	  -3.1782938e-02	  -1.5055098e-01	
   1.2320000e+02	  -2.9685480e-02	  -1.4459793e-01	
   1.2325500e+02	  -2.9493864e-02	  -1.3866754e-01	
   1.2331000e+02	  -3.1412795e-02	  -1.3293499e-01	
   1.2336500e+02	  -3.5554183e-02	  -1.2754340e-01	
   1.2342000e+02	  -4.1915434e-02	  -1.2259476e-01	
   1.2347500e+02	  -5.0371216e-02	  -1.1814559e-01	
   1.2353000e+02	  -6.0680301e-02	  -1.1420835e-01	
   1.2358500e+02	  -7.2505079e-02	  -1.1075834e-01	
   1.2364000e+02	  -8.5439048e-02	  -1.0774465e-01	
   1.2369500e+02	  -9.9037519e-02	  -1.0510296e-01	
   1.2375000e+02	  -1.1284729e-01	  -1.0276742e-01	
   1.2380500e+02	  -1.2643239e-01	  -1.0067969e-01	
   1.2386000e+02	  -1.3939463e-01	  -9.8794538e-02	
   1.2391500e+02	  -1.5138805e-01	  -9.7081505e-02	
   1.2397000e+02	  -1.6212522e-01	  -9.5521410e-02	
   1.2402500e+02	  -1.7137497e-01	  -9.4098255e-02	
   1.2408000e+02	  -1.7895403e-01	  -9.2789620e-02	
   1.2413500e+02	  -1.8471660e-01	  -9.1559648e-02	
   1.2419000e+02	  -1.8854545e-01	  -9.0356659e-02	
   1.2424500e+02	  -1.9034648e-01	  -8.9115071e-02	
   1.2430000e+02	  -1.9004786e-01	  -8.7760612e-02	
   1.2435500e+02	  -1.8760526e-01	  -8.6218105e-02	
   1.2441000e+02	  -1.8301281e-01	  -8.4421141e-02	
   1.2446500e+02	  -1.7631681e-01	  -8.2322529e-02	
   1.2452000e+02	  -1.6762759e-01	  -7.9904336e-02	
   1.2457500e+02	  -1.5712669e-01	  -7.7186570e-02	
   1.2463000e+02	  -1.4506740e-01	  -7.4233169e-02	
   1.2468500e+02	  -1.3176786e-01	  -7.1153216e-02	
   1.2474000e+02	  -1.1759671e-01	  -6.8095646e-02	
   1.2479500e+02	  -1.0295424e-01	  -6.5237230e-02	
   1.2485000e+02	  -8.8252044e-02	  -6.2765097e-02	
   1.2490500e+02	  -7.3891402e-02	  -6.0856541e-02	
   1.2496000e+02	  -6.0240934e-02	  -5.9660131e-02	
   1.2501500e+02	  -4.7615988e-02	  -5.9281561e-02	
   1.2507000e+02	  -3.6263366e-02	  -5.9775255e-02	
   1.2512500e+02	  -2.6352756e-02	  -6.1141258e-02	
   1.2518000e+02	  -1.7974535e-02	  -6.3327415e-02	
   1.2523500e+02	  -1.1143141e-02	  -6.6236880e-02	
   1.2529000e+02	  -5.8049612e-03	  -6.9739660e-02	
   1.2534500e+02	  -1.8497431e-03	  -7.3685783e-02	
   1.2540000e+02	   8.7480745e-04	  -7.7918184e-02	
   1.2545500e+02	   2.5457313e-03	  -8.2284259e-02	
   1.2551000e+02	   3.3467159e-03	  -8.6644953e-02	
   1.2556500e+02	   3.4523643e-03	  -9.0879777e-02	
   1.2562000e+02	   3.0183141e-03	  -9.4887011e-02	
   1.2567500e+02	   2.1795527e-03	  -9.8580174e-02	
   1.2573000e+02	   1.0563070e-03	  -1.0188308e-01	
   1.2578500e+02	  -2.3669360e-04	  -1.0472560e-01	
   1.2584000e+02	  -1.5828543e-03	  -1.0704164e-01	
   1.2589500e+02	  -2.8610335e-03	  -1.0876970e-01	
   1.2595000e+02	  -3.9474567e-03	  -1.0985596e-01	
   1.2600500e+02	  -4.7215546e-03	  -1.1025903e-01	
   1.2606000e+02	  -5.0753695e-03	  -1.0995614e-01	
   1.2611500e+02	  -4.9252660e-03	  -1.0894956e-01	
   1.2617000e+02	  -4.2228909e-03	  -1.0727187e-01	
   1.2622500e+02	  -2.9616053e-03	  -1.0498802e-01	
   1.2628000e+02	  -1.1759056e-03	  -1.0219295e-01	
   1.2633500e+02	   1.0663439e-03	  -9.9003699e-02	
   1.2639000e+02	   3.6769258e-03	  -9.5546402e-02	
   1.2644500e+02	   6.5622299e-03	  -9.1940858e-02	
   1.2650000e+02	   9.6367840e-03	  -8.8286505e-02	
   1.2655500e+02	   1.2833111e-02	  -8.4653014e-02	
   1.2661000e+02	   1.6107507e-02	  -8.1076441e-02	
   1.2666500e+02	   1.9442809e-02	  -7.7560192e-02	
   1.2672000e+02	   2.2848570e-02	  -7.4079715e-02	
   1.2677500e+02	   2.6357318e-02	  -7.0589844e-02	
   1.2683000e+02	   3.0016353e-02	  -6.7033556e-02	
