
0   2   1   4	
   0.0000000e+00	  -2.9717347e-02	  -6.3741987e-01	  -2.4690259e-01	
   5.5000000e-02	  -7.1197220e-02	  -6.3331961e-01	  -2.6884900e-01	
   1.1000000e-01	  -1.1035251e-01	  -6.2751915e-01	  -2.8921334e-01	
   1.6500000e-01	  -1.4689783e-01	  -6.2038900e-01	  -3.0778699e-01	
   2.2000000e-01	  -1.8059237e-01	  -6.1230741e-01	  -3.2439294e-01	
   2.7500000e-01	  -2.1124153e-01	  -6.0364254e-01	  -3.3888959e-01	
   3.3000000e-01	  -2.3869985e-01	  -5.9473927e-01	  -3.5117694e-01	
   3.8500000e-01	  -2.6287451e-01	  -5.8591069e-01	  -3.6120344e-01	
   4.4000000e-01	  -2.8372865e-01	  -5.7743384e-01	  -3.6897141e-01	
   4.9500000e-01	  -3.0128410e-01	  -5.6954906e-01	  -3.7453899e-01	
   5.5000000e-01	  -3.1562172e-01	  -5.6246078e-01	  -3.7801552e-01	
   6.0500000e-01	  -3.2687646e-01	  -5.5633650e-01	  -3.7954944e-01	
   6.6000000e-01	  -3.3522628e-01	  -5.5130169e-01	  -3.7931098e-01	
   7.1500000e-01	  -3.4087695e-01	  -5.4743244e-01	  -3.7747461e-01	
   7.7000000e-01	  -3.4404711e-01	  -5.4475009e-01	  -3.7420521e-01	
   8.2500000e-01	  -3.4495725e-01	  -5.4322092e-01	  -3.6964962e-01	
   8.8000000e-01	  -3.4382444e-01	  -5.4276179e-01	  -3.6393455e-01	
   9.3500000e-01	  -3.4086293e-01	  -5.4325139e-01	  -3.5717046e-01	
   9.9000000e-01	  -3.3628825e-01	  -5.4454528e-01	  -3.4945921e-01	
   1.0450000e+00	  -3.3032207e-01	  -5.4649215e-01	  -3.4090211e-01	
   1.1000000e+00	  -3.2319533e-01	  -5.4894802e-01	  -3.3160692e-01	
   1.1550000e+00	  -3.1514844e-01	  -5.5178541e-01	  -3.2169305e-01	
   1.2100000e+00	  -3.0642734e-01	  -5.5489618e-01	  -3.1129355e-01	
   1.2650000e+00	  -2.9727473e-01	  -5.5818881e-01	  -3.0055146e-01	
   1.3200000e+00	  -2.8791731e-01	  -5.6158302e-01	  -2.8961102e-01	
   1.3750000e+00	  -2.7855163e-01	  -5.6500294e-01	  -2.7860878e-01	
   1.4300000e+00	  -2.6933187e-01	  -5.6836900e-01	  -2.6766887e-01	
   1.4850000e+00	  -2.6036300e-01	  -5.7158956e-01	  -2.5690210e-01	
   1.5400000e+00	  -2.5170113e-01	  -5.7455617e-01	  -2.4640509e-01	
   1.5950000e+00	  -2.4336072e-01	  -5.7714564e-01	  -2.3625792e-01	
   1.6500000e+00	  -2.3532685e-01	  -5.7922929e-01	  -2.2652190e-01	
   1.7050000e+00	  -2.2757009e-01	  -5.8068635e-01	  -2.1724060e-01	
   1.7600000e+00	  -2.2006171e-01	  -5.8141788e-01	  -2.0844517e-01	
   1.8150000e+00	  -2.1278645e-01	  -5.8135903e-01	  -2.0016206e-01	
   1.8700000e+00	  -2.0575011e-01	  -5.8048755e-01	  -1.9241992e-01	
   1.9250000e+00	  -1.9898052e-01	  -5.7882709e-01	  -1.8525351e-01	
   1.9800000e+00	  -1.9252249e-01	  -5.7644503e-01	  -1.7870374e-01	
   2.0350000e+00	  -1.8642814e-01	  -5.7344588e-01	  -1.7281337e-01	
   2.0900000e+00	  -1.8074439e-01	  -5.6996136e-01	  -1.6761892e-01	
   2.1450000e+00	  -1.7549973e-01	  -5.6613815e-01	  -1.6314095e-01	
   2.2000000e+00	  -1.7069388e-01	  -5.6212622e-01	  -1.5937683e-01	
   2.2550000e+00	  -1.6629310e-01	  -5.5807040e-01	  -1.5629864e-01	
   2.3100000e+00	  -1.6223240e-01	  -5.5410508e-01	  -1.5385575e-01	
   2.3650000e+00	  -1.5842316e-01	  -5.5035067e-01	  -1.5198039e-01	
   2.4200000e+00	  -1.5476468e-01	  -5.4691134e-01	  -1.5059505e-01	
   2.4750000e+00	  -1.5115776e-01	  -5.4387457e-01	  -1.4961989e-01	
   2.5300000e+00	  -1.4751819e-01	  -5.4131308e-01	  -1.4897863e-01	
   2.5850000e+00	  -1.4378836e-01	  -5.3928712e-01	  -1.4860321e-01	
   2.6400000e+00	  -1.3994543e-01	  -5.3784449e-01	  -1.4843789e-01	
   2.6950000e+00	  -1.3600431e-01	  -5.3701662e-01	  -1.4844107e-01	
   2.7500000e+00	  -1.3201329e-01	  -5.3681144e-01	  -1.4858082e-01	
   2.8050000e+00	  -1.2804192e-01	  -5.3720495e-01	  -1.4882294e-01	
   2.8600000e+00	  -1.2416369e-01	  -5.3813426e-01	  -1.4911593e-01	
   2.9150000e+00	  -1.2043835e-01	  -5.3949513e-01	  -1.4937937e-01	
   2.9700000e+00	  -1.1689776e-01	  -5.4114543e-01	  -1.4949931e-01	
   3.0250000e+00	  -1.1353727e-01	  -5.4291356e-01	  -1.4933120e-01	
   3.0800000e+00	  -1.1031362e-01	  -5.4461072e-01	  -1.4871028e-01	
   3.1350000e+00	  -1.0714968e-01	  -5.4604635e-01	  -1.4746849e-01	
   3.1900000e+00	  -1.0394495e-01	  -5.4704546e-01	  -1.4545531e-01	
   3.2450000e+00	  -1.0058984e-01	  -5.4746543e-01	  -1.4255922e-01	
   3.3000000e+00	  -9.6981481e-02	  -5.4721083e-01	  -1.3872685e-01	
   3.3550000e+00	  -9.3039066e-02	  -5.4624532e-01	  -1.3397647e-01	
   3.4100000e+00	  -8.8716677e-02	  -5.4459910e-01	  -1.2840169e-01	
   3.4650000e+00	  -8.4011234e-02	  -5.4237015e-01	  -1.2216304e-01	
   3.5200000e+00	  -7.8964109e-02	  -5.3971961e-01	  -1.1546938e-01	
   3.5750000e+00	  -7.3655969e-02	  -5.3686134e-01	  -1.0855389e-01	
   3.6300000e+00	  -6.8195883e-02	  -5.3404594e-01	  -1.0164862e-01	
   3.6850000e+00	  -6.2707392e-02	  -5.3154024e-01	  -9.4961541e-02	
   3.7400000e+00	  -5.7314914e-02	  -5.2960541e-01	  -8.8660071e-02	
   3.7950000e+00	  -5.2132803e-02	  -5.2847666e-01	  -8.2863466e-02	
   3.8500000e+00	  -4.7257870e-02	  -5.2834545e-01	  -7.7643456e-02	
   3.9050000e+00	  -4.2765398e-02	  -5.2934502e-01	  -7.3030666e-02	
   3.9600000e+00	  -3.8708332e-02	  -5.3154103e-01	  -6.9024646e-02	
   4.0150000e+00	  -3.5118953e-02	  -5.3492921e-01	  -6.5606128e-02	
   4.0700000e+00	  -3.2011993e-02	  -5.3943971e-01	  -6.2750229e-02	
   4.1250000e+00	  -2.9388334e-02	  -5.4494709e-01	  -6.0438756e-02	
   4.1800000e+00	  -2.7238492e-02	  -5.5128448e-01	  -5.8669047e-02	
   4.2350000e+00	  -2.5544470e-02	  -5.5825955e-01	  -5.7456876e-02	
   4.2900000e+00	  -2.4278199e-02	  -5.6566878e-01	  -5.6831963e-02	
   4.3450000e+00	  -2.3396323e-02	  -5.7330764e-01	  -5.6826323e-02	
   4.4000000e+00	  -2.2833595e-02	  -5.8097677e-01	  -5.7458640e-02	
   4.4550000e+00	  -2.2497939e-02	  -5.8848541e-01	  -5.8720333e-02	
   4.5100000e+00	  -2.2269147e-02	  -5.9565327e-01	  -6.0568092e-02	
   4.5650000e+00	  -2.2002204e-02	  -6.0231201e-01	  -6.2924535e-02	
   4.6200000e+00	  -2.1535709e-02	  -6.0830832e-01	  -6.5686301e-02	
   4.6750000e+00	  -2.0704664e-02	  -6.1350892e-01	  -6.8737588e-02	
   4.7300000e+00	  -1.9355423e-02	  -6.1780644e-01	  -7.1966472e-02	
   4.7850000e+00	  -1.7360496e-02	  -6.2112590e-01	  -7.5281948e-02	
   4.8400000e+00	  -1.4631719e-02	  -6.2343209e-01	  -7.8630074e-02	
   4.8950000e+00	  -1.1130252e-02	  -6.2473738e-01	  -8.2006139e-02	
   4.9500000e+00	  -6.8712050e-03	  -6.2510743e-01	  -8.5458454e-02	
   5.0050000e+00	  -1.9210635e-03	  -6.2466170e-01	  -8.9081267e-02	
   5.0600000e+00	   3.6123987e-03	  -6.2356625e-01	  -9.2997775e-02	
   5.1150000e+00	   9.5959379e-03	  -6.2201851e-01	  -9.7336093e-02	
   5.1700000e+00	   1.5889039e-02	  -6.2022638e-01	  -1.0220160e-01	
   5.2250000e+00	   2.2360748e-02	  -6.1838542e-01	  -1.0765013e-01	
   5.2800000e+00	   2.8902154e-02	  -6.1665936e-01	  -1.1366767e-01	
   5.3350000e+00	   3.5432983e-02	  -6.1516782e-01	  -1.2016179e-01	
   5.3900000e+00	   4.1902376e-02	  -6.1398268e-01	  -1.2696687e-01	
   5.4450000e+00	   4.8284723e-02	  -6.1313187e-01	  -1.3386227e-01	
   5.5000000e+00	   5.4571417e-02	  -6.1260858e-01	  -1.4059957e-01	
   5.5550000e+00	   6.0759301e-02	  -6.1238377e-01	  -1.4693298e-01	
   5.6100000e+00	   6.6837320e-02	  -6.1242022e-01	  -1.5264808e-01	
   5.6650000e+00	   7.2773869e-02	  -6.1268633e-01	  -1.5758608e-01	
   5.7200000e+00	   7.8507475e-02	  -6.1316756e-01	  -1.6166200e-01	
   5.7750000e+00	   8.3943071e-02	  -6.1387304e-01	  -1.6487377e-01	
   5.8300000e+00	   8.8955831e-02	  -6.1483367e-01	  -1.6729964e-01	
   5.8850000e+00	   9.3403161e-02	  -6.1608999e-01	  -1.6908375e-01	
   5.9400000e+00	   9.7142415e-02	  -6.1767378e-01	  -1.7041255e-01	
   5.9950000e+00	   1.0004955e-01	  -6.1959087e-01	  -1.7148556e-01	
   6.0500000e+00	   1.0203429e-01	  -6.2181111e-01	  -1.7248589e-01	
   6.1050000e+00	   1.0304950e-01	  -6.2426686e-01	  -1.7355643e-01	
   6.1600000e+00	   1.0309409e-01	  -6.2685829e-01	  -1.7478585e-01	
   6.2150000e+00	   1.0221062e-01	  -6.2946242e-01	  -1.7620525e-01	
   6.2700000e+00	   1.0047902e-01	  -6.3194346e-01	  -1.7779321e-01	
   6.3250000e+00	   9.8007706e-02	  -6.3416318e-01	  -1.7948587e-01	
   6.3800000e+00	   9.4923013e-02	  -6.3599181e-01	  -1.8118981e-01	
   6.4350000e+00	   9.1356950e-02	  -6.3731900e-01	  -1.8279698e-01	
   6.4900000e+00	   8.7434350e-02	  -6.3806309e-01	  -1.8420095e-01	
   6.5450000e+00	   8.3260779e-02	  -6.3817768e-01	  -1.8531303e-01	
   6.6000000e+00	   7.8913298e-02	  -6.3765472e-01	  -1.8607646e-01	
   6.6550000e+00	   7.4436387e-02	  -6.3652316e-01	  -1.8647756e-01	
   6.7100000e+00	   6.9844802e-02	  -6.3484113e-01	  -1.8655083e-01	
   6.7650000e+00	   6.5133022e-02	  -6.3268284e-01	  -1.8637560e-01	
   6.8200000e+00	   6.0288123e-02	  -6.3012422e-01	  -1.8606494e-01	
   6.8750000e+00	   5.5301709e-02	  -6.2723220e-01	  -1.8575170e-01	
   6.9300000e+00	   5.0177859e-02	  -6.2405947e-01	  -1.8557606e-01	
   6.9850000e+00	   4.4936478e-02	  -6.2064455e-01	  -1.8567686e-01	
   7.0400000e+00	   3.9612582e-02	  -6.1701621e-01	  -1.8618714e-01	
   7.0950000e+00	   3.4251958e-02	  -6.1320143e-01	  -1.8723333e-01	
   7.1500000e+00	   2.8903677e-02	  -6.0923530e-01	  -1.8893658e-01	
   7.2050000e+00	   2.3610502e-02	  -6.0517059e-01	  -1.9141423e-01	
   7.2600000e+00	   1.8398929e-02	  -6.0108508e-01	  -1.9478038e-01	
   7.3150000e+00	   1.3271269e-02	  -5.9708518e-01	  -1.9914496e-01	
   7.3700000e+00	   8.2018262e-03	  -5.9330511e-01	  -2.0461049e-01	
   7.4250000e+00	   3.1377479e-03	  -5.8990294e-01	  -2.1126637e-01	
   7.4800000e+00	  -1.9960449e-03	  -5.8705506e-01	  -2.1918068e-01	
   7.5350000e+00	  -7.2883200e-03	  -5.8494880e-01	  -2.2838951e-01	
   7.5900000e+00	  -1.2829845e-02	  -5.8377167e-01	  -2.3888517e-01	
   7.6450000e+00	  -1.8700303e-02	  -5.8369770e-01	  -2.5060699e-01	
   7.7000000e+00	  -2.4956779e-02	  -5.8487308e-01	  -2.6343773e-01	
   7.7550000e+00	  -3.1626109e-02	  -5.8740369e-01	  -2.7720665e-01	
   7.8100000e+00	  -3.8701654e-02	  -5.9134559e-01	  -2.9169699e-01	
   7.8650000e+00	  -4.6144384e-02	  -5.9669982e-01	  -3.0665613e-01	
   7.9200000e+00	  -5.3887995e-02	  -6.0341267e-01	  -3.2180674e-01	
   7.9750000e+00	  -6.1846986e-02	  -6.1138148e-01	  -3.3685757e-01	
   8.0300000e+00	  -6.9925759e-02	  -6.2046404e-01	  -3.5151304e-01	
   8.0850000e+00	  -7.8027095e-02	  -6.3048897e-01	  -3.6548264e-01	
   8.1400000e+00	  -8.6059084e-02	  -6.4126446e-01	  -3.7849165e-01	
   8.1950000e+00	  -9.3939235e-02	  -6.5258404e-01	  -3.9029252e-01	
   8.2500000e+00	  -1.0159395e-01	  -6.6422848e-01	  -4.0067382e-01	
   8.3050000e+00	  -1.0895348e-01	  -6.7596498e-01	  -4.0946492e-01	
   8.3600000e+00	  -1.1594545e-01	  -6.8754720e-01	  -4.1653664e-01	
   8.4150000e+00	  -1.2249024e-01	  -6.9871918e-01	  -4.2179877e-01	
   8.4700000e+00	  -1.2849917e-01	  -7.0922326e-01	  -4.2519470e-01	
   8.5250000e+00	  -1.3387533e-01	  -7.1880895e-01	  -4.2669488e-01	
   8.5800000e+00	  -1.3851783e-01	  -7.2724123e-01	  -4.2629295e-01	
   8.6350000e+00	  -1.4232949e-01	  -7.3430922e-01	  -4.2400565e-01	
   8.6900000e+00	  -1.4522601e-01	  -7.3983602e-01	  -4.1987394e-01	
   8.7450000e+00	  -1.4714431e-01	  -7.4368877e-01	  -4.1396240e-01	
   8.8000000e+00	  -1.4804875e-01	  -7.4578679e-01	  -4.0635696e-01	
   8.8550000e+00	  -1.4793373e-01	  -7.4610573e-01	  -3.9716121e-01	
   8.9100000e+00	  -1.4682088e-01	  -7.4467598e-01	  -3.8649052e-01	
   8.9650000e+00	  -1.4475041e-01	  -7.4157550e-01	  -3.7446377e-01	
   9.0200000e+00	  -1.4176901e-01	  -7.3691886e-01	  -3.6119483e-01	
   9.0750000e+00	  -1.3791858e-01	  -7.3084483e-01	  -3.4678569e-01	
   9.1300000e+00	  -1.3322941e-01	  -7.2350425e-01	  -3.3132244e-01	
   9.1850000e+00	  -1.2771827e-01	  -7.1504969e-01	  -3.1487399e-01	
   9.2400000e+00	  -1.2139049e-01	  -7.0562892e-01	  -2.9749474e-01	
   9.2950000e+00	  -1.1424476e-01	  -6.9538329e-01	  -2.7923235e-01	
   9.3500000e+00	  -1.0628048e-01	  -6.8445074e-01	  -2.6013994e-01	
   9.4050000e+00	  -9.7507142e-02	  -6.7297185e-01	  -2.4029084e-01	
   9.4600000e+00	  -8.7954501e-02	  -6.6109763e-01	  -2.1979259e-01	
   9.5150000e+00	  -7.7681087e-02	  -6.4899756e-01	  -1.9879767e-01	
   9.5700000e+00	  -6.6778688e-02	  -6.3686634e-01	  -1.7750803e-01	
   9.6250000e+00	  -5.5371159e-02	  -6.2492646e-01	  -1.5617037e-01	
   9.6800000e+00	  -4.3607403e-02	  -6.1342413e-01	  -1.3506161e-01	
   9.7350000e+00	  -3.1649810e-02	  -6.0261894e-01	  -1.1446706e-01	
   9.7900000e+00	  -1.9660425e-02	  -5.9276970e-01	  -9.4655753e-02	
   9.8450000e+00	  -7.7876878e-03	  -5.8411977e-01	  -7.5857783e-02	
   9.9000000e+00	   3.8439697e-03	  -5.7688480e-01	  -5.8247853e-02	
   9.9550000e+00	   1.5140664e-02	  -5.7124353e-01	  -4.1937074e-02	
   1.0010000e+01	   2.6041709e-02	  -5.6733086e-01	  -2.6972165e-02	
   1.0065000e+01	   3.6518256e-02	  -5.6523385e-01	  -1.3339932e-02	
   1.0120000e+01	   4.6567566e-02	  -5.6499216e-01	  -9.7640404e-04	
   1.0175000e+01	   5.6203634e-02	  -5.6660268e-01	   1.0219763e-02	
   1.0230000e+01	   6.5446468e-02	  -5.7002524e-01	   2.0372023e-02	
   1.0285000e+01	   7.4312322e-02	  -5.7518665e-01	   2.9611714e-02	
   1.0340000e+01	   8.2806009e-02	  -5.8198317e-01	   3.8065690e-02	
   1.0395000e+01	   9.0915906e-02	  -5.9028265e-01	   4.5845615e-02	
   1.0450000e+01	   9.8612998e-02	  -5.9992687e-01	   5.3040366e-02	
   1.0505000e+01	   1.0585561e-01	  -6.1073341e-01	   5.9714192e-02	
   1.0560000e+01	   1.1259971e-01	  -6.2249719e-01	   6.5911185e-02	
   1.0615000e+01	   1.1881208e-01	  -6.3499245e-01	   7.1663831e-02	
   1.0670000e+01	   1.2448279e-01	  -6.4797546e-01	   7.7002974e-02	
   1.0725000e+01	   1.2963465e-01	  -6.6118771e-01	   8.1967255e-02	
   1.0780000e+01	   1.3432752e-01	  -6.7436016e-01	   8.6609697e-02	
   1.0835000e+01	   1.3865605e-01	  -6.8721907e-01	   9.0999170e-02	
   1.0890000e+01	   1.4274074e-01	  -6.9949393e-01	   9.5216356e-02	
   1.0945000e+01	   1.4671358e-01	  -7.1092724e-01	   9.9345482e-02	
   1.1000000e+01	   1.5070046e-01	  -7.2128690e-01	   1.0346308e-01	
   1.1055000e+01	   1.5480274e-01	  -7.3038061e-01	   1.0762455e-01	
   1.1110000e+01	   1.5908052e-01	  -7.3806904e-01	   1.1184992e-01	
   1.1165000e+01	   1.6353966e-01	  -7.4427392e-01	   1.1611151e-01	
   1.1220000e+01	   1.6812398e-01	  -7.4898085e-01	   1.2032713e-01	
   1.1275000e+01	   1.7271428e-01	  -7.5223768e-01	   1.2436134e-01	
   1.1330000e+01	   1.7713571e-01	  -7.5414888e-01	   1.2803550e-01	
   1.1385000e+01	   1.8117367e-01	  -7.5486559e-01	   1.3114549e-01	
   1.1440000e+01	   1.8459609e-01	  -7.5457166e-01	   1.3348347e-01	
   1.1495000e+01	   1.8717825e-01	  -7.5346679e-01	   1.3485927e-01	
   1.1550000e+01	   1.8872585e-01	  -7.5174865e-01	   1.3511808e-01	
   1.1605000e+01	   1.8909351e-01	  -7.4959756e-01	   1.3415306e-01	
   1.1660000e+01	   1.8819685e-01	  -7.4716727e-01	   1.3191236e-01	
   1.1715000e+01	   1.8601738e-01	  -7.4458249e-01	   1.2840015e-01	
   1.1770000e+01	   1.8259995e-01	  -7.4193975e-01	   1.2367216e-01	
   1.1825000e+01	   1.7804379e-01	  -7.3930904e-01	   1.1782795e-01	
   1.1880000e+01	   1.7248958e-01	  -7.3673603e-01	   1.1100166e-01	
   1.1935000e+01	   1.6610473e-01	  -7.3424637e-01	   1.0335362e-01	
   1.1990000e+01	   1.5906931e-01	  -7.3185144e-01	   9.5063733e-02	
   1.2045000e+01	   1.5156410e-01	  -7.2955330e-01	   8.6326312e-02	
   1.2100000e+01	   1.4376259e-01	  -7.2734711e-01	   7.7345809e-02	
   1.2155000e+01	   1.3582826e-01	  -7.2522150e-01	   6.8333459e-02	
   1.2210000e+01	   1.2791723e-01	  -7.2315851e-01	   5.9506108e-02	
   1.2265000e+01	   1.2018414e-01	  -7.2113421e-01	   5.1087724e-02	
   1.2320000e+01	   1.1278727e-01	  -7.1912052e-01	   4.3311959e-02	
   1.2375000e+01	   1.0589004e-01	  -7.1708855e-01	   3.6422041e-02	
   1.2430000e+01	   9.9658700e-02	  -7.1501354e-01	   3.0664909e-02	
   1.2485000e+01	   9.4257498e-02	  -7.1288125e-01	   2.6279654e-02	
   1.2540000e+01	   8.9842222e-02	  -7.1069478e-01	   2.3482898e-02	
   1.2595000e+01	   8.6552593e-02	  -7.0847993e-01	   2.2453989e-02	
   1.2650000e+01	   8.4503848e-02	  -7.0628729e-01	   2.3322227e-02	
   1.2705000e+01	   8.3778026e-02	  -7.0419098e-01	   2.6157673e-02	
   1.2760000e+01	   8.4415817e-02	  -7.0228573e-01	   3.0965810e-02	
   1.2815000e+01	   8.6410447e-02	  -7.0068190e-01	   3.7685855e-02	
   1.2870000e+01	   8.9705808e-02	  -6.9949643e-01	   4.6193627e-02	
   1.2925000e+01	   9.4200606e-02	  -6.9883825e-01	   5.6310630e-02	
   1.2980000e+01	   9.9758198e-02	  -6.9879054e-01	   6.7818773e-02	
   1.3035000e+01	   1.0621935e-01	  -6.9939454e-01	   8.0476960e-02	
   1.3090000e+01	   1.1341484e-01	  -7.0063908e-01	   9.4035560e-02	
   1.3145000e+01	   1.2117611e-01	  -7.0245716e-01	   1.0824676e-01	
   1.3200000e+01	   1.2934247e-01	  -7.0472931e-01	   1.2287016e-01	
   1.3255000e+01	   1.3776350e-01	  -7.0729275e-01	   1.3767360e-01	
   1.3310000e+01	   1.4629636e-01	  -7.0995481e-01	   1.5243090e-01	
   1.3365000e+01	   1.5480002e-01	  -7.1250818e-01	   1.6691848e-01	
   1.3420000e+01	   1.6312911e-01	  -7.1474524e-01	   1.8091225e-01	
   1.3475000e+01	   1.7112914e-01	  -7.1646976e-01	   1.9418534e-01	
   1.3530000e+01	   1.7863492e-01	  -7.1750524e-01	   2.0650768e-01	
   1.3585000e+01	   1.8547393e-01	  -7.1770043e-01	   2.1764939e-01	
   1.3640000e+01	   1.9147536e-01	  -7.1693293e-01	   2.2739000e-01	
   1.3695000e+01	   1.9648376e-01	  -7.1511194e-01	   2.3553408e-01	
   1.3750000e+01	   2.0037533e-01	  -7.1217958e-01	   2.4193123e-01	
   1.3805000e+01	   2.0307404e-01	  -7.0811031e-01	   2.4649654e-01	
   1.3860000e+01	   2.0456395e-01	  -7.0291006e-01	   2.4922617e-01	
   1.3915000e+01	   2.0489485e-01	  -6.9661691e-01	   2.5020293e-01	
   1.3970000e+01	   2.0417999e-01	  -6.8930401e-01	   2.4959005e-01	
   1.4025000e+01	   2.0258627e-01	  -6.8108535e-01	   2.4761550e-01	
   1.4080000e+01	   2.0031811e-01	  -6.7212517e-01	   2.4455057e-01	
   1.4135000e+01	   1.9759643e-01	  -6.6265094e-01	   2.4068552e-01	
   1.4190000e+01	   1.9463519e-01	  -6.5296725e-01	   2.3630413e-01	
   1.4245000e+01	   1.9161777e-01	  -6.4346710e-01	   2.3165871e-01	
   1.4300000e+01	   1.8867624e-01	  -6.3463778e-01	   2.2694743e-01	
   1.4355000e+01	   1.8587640e-01	  -6.2706073e-01	   2.2229593e-01	
   1.4410000e+01	   1.8321181e-01	  -6.2140381e-01	   2.1774636e-01	
   1.4465000e+01	   1.8060825e-01	  -6.1840414e-01	   2.1325655e-01	
   1.4520000e+01	   1.7793788e-01	  -6.1884036e-01	   2.0870956e-01	
   1.4575000e+01	   1.7504063e-01	  -6.2349666e-01	   2.0393126e-01	
   1.4630000e+01	   1.7174886e-01	  -6.3312201e-01	   1.9871351e-01	
   1.4685000e+01	   1.6791153e-01	  -6.4838721e-01	   1.9283970e-01	
   1.4740000e+01	   1.6341392e-01	  -6.6984134e-01	   1.8610872e-01	
   1.4795000e+01	   1.5819085e-01	  -6.9786998e-01	   1.7835414e-01	
   1.4850000e+01	   1.5223360e-01	  -7.3265655e-01	   1.6945788e-01	
   1.4905000e+01	   1.4559196e-01	  -7.7414749e-01	   1.5936058e-01	
   1.4960000e+01	   1.3837210e-01	  -8.2202207e-01	   1.4806990e-01	
   1.5015000e+01	   1.3073015e-01	  -8.7566771e-01	   1.3566648e-01	
   1.5070000e+01	   1.2286317e-01	  -9.3416036e-01	   1.2230693e-01	
   1.5125000e+01	   1.1499955e-01	  -9.9624937e-01	   1.0822442e-01	
   1.5180000e+01	   1.0739079e-01	  -1.0603468e+00	   9.3727970e-02	
   1.5235000e+01	   1.0030616e-01	  -1.1245213e+00	   7.9202484e-02	
   1.5290000e+01	   9.4031827e-02	  -1.1864967e+00	   6.5111440e-02	
   1.5345000e+01	   8.8875468e-02	  -1.2436552e+00	   5.2003390e-02	
   1.5400000e+01	   8.5175244e-02	  -1.2930472e+00	   4.0519998e-02	
   1.5455000e+01	   8.3309955e-02	  -1.3314110e+00	   3.1401175e-02	
   1.5510000e+01	   8.3706609e-02	  -1.3552069e+00	   2.5483750e-02	
   1.5565000e+01	   8.6843416e-02	  -1.3606662e+00	   2.3692892e-02	
   1.5620000e+01	   9.3247641e-02	  -1.3438581e+00	   2.7027258e-02	
   1.5675000e+01	   1.0348806e-01	  -1.3007753e+00	   3.6538384e-02	
   1.5730000e+01	   1.1816147e-01	  -1.2274376e+00	   5.3304087e-02	
   1.5785000e+01	   1.3787251e-01	  -1.1200142e+00	   7.8395413e-02	
   1.5840000e+01	   1.6320691e-01	  -9.7496137e-01	   1.1283669e-01	
   1.5895000e+01	   1.9469930e-01	  -7.8917132e-01	   1.5755961e-01	
   1.5950000e+01	   2.3279853e-01	  -5.6012645e-01	   2.1335458e-01	
   1.6005000e+01	   2.7783370e-01	  -2.8605088e-01	   2.8082325e-01	
   1.6060000e+01	   3.2998353e-01	   3.3946353e-02	   3.6033472e-01	
   1.6115000e+01	   3.8925086e-01	   3.9974322e-01	   4.5198813e-01	
   1.6170000e+01	   4.5544457e-01	   8.1009851e-01	   5.5558444e-01	
   1.6225000e+01	   5.2817079e-01	   1.2625751e+00	   6.7060882e-01	
   1.6280000e+01	   6.0683293e-01	   1.7535001e+00	   7.9622147e-01	
   1.6335000e+01	   6.9063877e-01	   2.2779698e+00	   9.3125493e-01	
   1.6390000e+01	   7.7861369e-01	   2.8299093e+00	   1.0742206e+00	
   1.6445000e+01	   8.6962161e-01	   3.4021987e+00	   1.2233310e+00	
   1.6500000e+01	   9.6239610e-01	   3.9868791e+00	   1.3765471e+00	
   1.6555000e+01	   1.0555837e+00	   4.5754482e+00	   1.5316535e+00	
   1.6610000e+01	   1.1477985e+00	   5.1592333e+00	   1.6863604e+00	
   1.6665000e+01	   1.2376825e+00	   5.7297942e+00	   1.8384146e+00	
   1.6720000e+01	   1.3239597e+00	   6.2792889e+00	   1.9857001e+00	
   1.6775000e+01	   1.4054780e+00	   6.8007551e+00	   2.1263111e+00	
   1.6830000e+01	   1.4812383e+00	   7.2883030e+00	   2.2585993e+00	
   1.6885000e+01	   1.5504143e+00	   7.7372311e+00	   2.3812020e+00	
   1.6940000e+01	   1.6123665e+00	   8.1440789e+00	   2.4930569e+00	
   1.6995000e+01	   1.6666508e+00	   8.5066253e+00	   2.5934091e+00	
   1.7050000e+01	   1.7130218e+00	   8.8238400e+00	   2.6818104e+00	
   1.7105000e+01	   1.7514287e+00	   9.0957952e+00	   2.7581091e+00	
   1.7160000e+01	   1.7820045e+00	   9.3235502e+00	   2.8224304e+00	
   1.7215000e+01	   1.8050470e+00	   9.5090146e+00	   2.8751459e+00	
   1.7270000e+01	   1.8209942e+00	   9.6548011e+00	   2.9168361e+00	
   1.7325000e+01	   1.8303939e+00	   9.7640737e+00	   2.9482477e+00	
   1.7380000e+01	   1.8338698e+00	   9.8403970e+00	   2.9702495e+00	
   1.7435000e+01	   1.8320868e+00	   9.8875913e+00	   2.9837866e+00	
   1.7490000e+01	   1.8257188e+00	   9.9095992e+00	   2.9898361e+00	
   1.7545000e+01	   1.8154231e+00	   9.9103660e+00	   2.9893703e+00	
   1.7600000e+01	   1.8018219e+00	   9.8937388e+00	   2.9833271e+00	
   1.7655000e+01	   1.7854924e+00	   9.8633838e+00	   2.9725888e+00	
   1.7710000e+01	   1.7669645e+00	   9.8227260e+00	   2.9579713e+00	
   1.7765000e+01	   1.7467244e+00	   9.7749080e+00	   2.9402228e+00	
   1.7820000e+01	   1.7252212e+00	   9.7227668e+00	   2.9200291e+00	
   1.7875000e+01	   1.7028727e+00	   9.6688185e+00	   2.8980231e+00	
   1.7930000e+01	   1.6800697e+00	   9.6152469e+00	   2.8747923e+00	
   1.7985000e+01	   1.6571747e+00	   9.5638902e+00	   2.8508837e+00	
   1.8040000e+01	   1.6345175e+00	   9.5162267e+00	   2.8268039e+00	
   1.8095000e+01	   1.6123867e+00	   9.4733614e+00	   2.8030109e+00	
   1.8150000e+01	   1.5910184e+00	   9.4360132e+00	   2.7799004e+00	
   1.8205000e+01	   1.5705831e+00	   9.4045084e+00	   2.7577880e+00	
   1.8260000e+01	   1.5511743e+00	   9.3787796e+00	   2.7368908e+00	
   1.8315000e+01	   1.5327980e+00	   9.3583743e+00	   2.7173110e+00	
   1.8370000e+01	   1.5153682e+00	   9.3424712e+00	   2.6990233e+00	
   1.8425000e+01	   1.4987057e+00	   9.3299061e+00	   2.6818675e+00	
   1.8480000e+01	   1.4825445e+00	   9.3192056e+00	   2.6655500e+00	
   1.8535000e+01	   1.4665460e+00	   9.3086350e+00	   2.6496550e+00	
   1.8590000e+01	   1.4503206e+00	   9.2962569e+00	   2.6336686e+00	
   1.8645000e+01	   1.4334561e+00	   9.2800028e+00	   2.6170081e+00	
   1.8700000e+01	   1.4155461e+00	   9.2577502e+00	   2.5990553e+00	
   1.8755000e+01	   1.3962150e+00	   9.2274018e+00	   2.5791863e+00	
   1.8810000e+01	   1.3751346e+00	   9.1869607e+00	   2.5567952e+00	
   1.8865000e+01	   1.3520341e+00	   9.1345982e+00	   2.5313159e+00	
   1.8920000e+01	   1.3267049e+00	   9.0687120e+00	   2.5022408e+00	
   1.8975000e+01	   1.2990018e+00	   8.9879785e+00	   2.4691387e+00	
   1.9030000e+01	   1.2688420e+00	   8.8914006e+00	   2.4316709e+00	
   1.9085000e+01	   1.2362016e+00	   8.7783566e+00	   2.3896041e+00	
   1.9140000e+01	   1.2011131e+00	   8.6486474e+00	   2.3428231e+00	
   1.9195000e+01	   1.1636620e+00	   8.5025420e+00	   2.2913428e+00	
   1.9250000e+01	   1.1239854e+00	   8.3408187e+00	   2.2353196e+00	
   1.9305000e+01	   1.0822744e+00	   8.1648019e+00	   2.1750629e+00	
   1.9360000e+01	   1.0387807e+00	   7.9763945e+00	   2.1110491e+00	
   1.9415000e+01	   9.9382998e-01	   7.7780997e+00	   2.0439364e+00	
   1.9470000e+01	   9.4783734e-01	   7.5730243e+00	   1.9745786e+00	
   1.9525000e+01	   9.0132015e-01	   7.3648541e+00	   1.9040322e+00	
   1.9580000e+01	   8.5490319e-01	   7.1577930e+00	   1.8335500e+00	
   1.9635000e+01	   8.0931041e-01	   6.9564549e+00	   1.7645559e+00	
   1.9690000e+01	   7.6534123e-01	   6.7657031e+00	   1.6985968e+00	
   1.9745000e+01	   7.2383214e-01	   6.5904317e+00	   1.6372723e+00	
   1.9800000e+01	   6.8560462e-01	   6.4352861e+00	   1.5821416e+00	
   1.9855000e+01	   6.5140035e-01	   6.3043243e+00	   1.5346080e+00	
   1.9910000e+01	   6.2180757e-01	   6.2006386e+00	   1.4957886e+00	
   1.9965000e+01	   5.9718930e-01	   6.1259984e+00	   1.4663906e+00	
   2.0020000e+01	   5.7762878e-01	   6.0805990e+00	   1.4466192e+00	
   2.0075000e+01	   5.6290527e-01	   6.0629821e+00	   1.4361415e+00	
   2.0130000e+01	   5.5250679e-01	   6.0701532e+00	   1.4341154e+00	
   2.0185000e+01	   5.4567876e-01	   6.0978780e+00	   1.4392792e+00	
   2.0240000e+01	   5.4149886e-01	   6.1410943e+00	   1.4500823e+00	
   2.0295000e+01	   5.3896230e-01	   6.1943531e+00	   1.4648272e+00	
   2.0350000e+01	   5.3706341e-01	   6.2522213e+00	   1.4817993e+00	
   2.0405000e+01	   5.3486584e-01	   6.3096187e+00	   1.4993751e+00	
   2.0460000e+01	   5.3155855e-01	   6.3620800e+00	   1.5161055e+00	
   2.0515000e+01	   5.2649594e-01	   6.4059436e+00	   1.5307730e+00	
   2.0570000e+01	   5.1922153e-01	   6.4384647e+00	   1.5424256e+00	
   2.0625000e+01	   5.0947513e-01	   6.4578595e+00	   1.5503892e+00	
   2.0680000e+01	   4.9718410e-01	   6.4632816e+00	   1.5542617e+00	
   2.0735000e+01	   4.8243893e-01	   6.4547351e+00	   1.5538872e+00	
   2.0790000e+01	   4.6545507e-01	   6.4329233e+00	   1.5493143e+00	
   2.0845000e+01	   4.4652507e-01	   6.3990397e+00	   1.5407393e+00	
   2.0900000e+01	   4.2596800e-01	   6.3545278e+00	   1.5284424e+00	
   2.0955000e+01	   4.0408823e-01	   6.3008707e+00	   1.5127325e+00	
   2.1010000e+01	   3.8115724e-01	   6.2394878e+00	   1.4939228e+00	
   2.1065000e+01	   3.5742463e-01	   6.1717691e+00	   1.4723470e+00	
   2.1120000e+01	   3.3314993e-01	   6.0992059e+00	   1.4484053e+00	
   2.1175000e+01	   3.0863921e-01	   6.0235390e+00	   1.4226147e+00	
   2.1230000e+01	   2.8427398e-01	   5.9468656e+00	   1.3956446e+00	
   2.1285000e+01	   2.6052623e-01	   5.8716825e+00	   1.3683284e+00	
   2.1340000e+01	   2.3795707e-01	   5.8008588e+00	   1.3416472e+00	
   2.1395000e+01	   2.1719694e-01	   5.7375333e+00	   1.3166879e+00	
   2.1450000e+01	   1.9890726e-01	   5.6849369e+00	   1.2945754e+00	
   2.1505000e+01	   1.8372481e-01	   5.6461380e+00	   1.2763817e+00	
   2.1560000e+01	   1.7219114e-01	   5.6237166e+00	   1.2630158e+00	
   2.1615000e+01	   1.6467394e-01	   5.6193894e+00	   1.2551044e+00	
   2.1670000e+01	   1.6129407e-01	   5.6336483e+00	   1.2528841e+00	
   2.1725000e+01	   1.6187619e-01	   5.6654986e+00	   1.2561302e+00	
   2.1780000e+01	   1.6593542e-01	   5.7123654e+00	   1.2641385e+00	
   2.1835000e+01	   1.7270367e-01	   5.7701945e+00	   1.2757647e+00	
   2.1890000e+01	   1.8118917e-01	   5.8337258e+00	   1.2895145e+00	
   2.1945000e+01	   1.9025491e-01	   5.8968731e+00	   1.3036640e+00	
   2.2000000e+01	   1.9869866e-01	   5.9531279e+00	   1.3163849e+00	
   2.2055000e+01	   2.0532272e-01	   5.9959233e+00	   1.3258556e+00	
   2.2110000e+01	   2.0898940e-01	   6.0189355e+00	   1.3303494e+00	
   2.2165000e+01	   2.0866207e-01	   6.0163207e+00	   1.3282974e+00	
   2.2220000e+01	   2.0343261e-01	   5.9828879e+00	   1.3183259e+00	
   2.2275000e+01	   1.9253497e-01	   5.9142043e+00	   1.2992687e+00	
   2.2330000e+01	   1.7534602e-01	   5.8066382e+00	   1.2701594e+00	
   2.2385000e+01	   1.5137871e-01	   5.6573641e+00	   1.2302139e+00	
   2.2440000e+01	   1.2027832e-01	   5.4643876e+00	   1.1788247e+00	
   2.2495000e+01	   8.1832227e-02	   5.2266449e+00	   1.1155812e+00	
   2.2550000e+01	   3.5994523e-02	   4.9441723e+00	   1.0403187e+00	
   2.2605000e+01	  -1.7082364e-02	   4.6182884e+00	   9.5317931e-01	
   2.2660000e+01	  -7.7018259e-02	   4.2517236e+00	   8.5466593e-01	
   2.2715000e+01	  -1.4318505e-01	   3.8486665e+00	   7.4567619e-01	
   2.2770000e+01	  -2.1470185e-01	   3.4147082e+00	   6.2750937e-01	
   2.2825000e+01	  -2.9045133e-01	   2.9566750e+00	   5.0184063e-01	
   2.2880000e+01	  -3.6912060e-01	   2.4823432e+00	   3.7065866e-01	
   2.2935000e+01	  -4.4926534e-01	   2.0000473e+00	   2.3616873e-01	
   2.2990000e+01	  -5.2938809e-01	   1.5182387e+00	   1.0067412e-01	
   2.3045000e+01	  -6.0801740e-01	   1.0450669e+00	  -3.3542075e-02	
   2.3100000e+01	  -6.8377703e-01	   5.8803878e-01	  -1.6431699e-01	
   2.3155000e+01	  -7.5544104e-01	   1.5376715e-01	  -2.8968453e-01	
   2.3210000e+01	  -8.2197471e-01	  -2.5219791e-01	  -4.0793161e-01	
   2.3265000e+01	  -8.8256184e-01	  -6.2546690e-01	  -5.1763819e-01	
   2.3320000e+01	  -9.3661924e-01	  -9.6284596e-01	  -6.1770291e-01	
   2.3375000e+01	  -9.8379844e-01	  -1.2623181e+00	  -7.0735458e-01	
   2.3430000e+01	  -1.0239748e+00	  -1.5229791e+00	  -7.8614910e-01	
   2.3485000e+01	  -1.0572239e+00	  -1.7449363e+00	  -8.5395052e-01	
   2.3540000e+01	  -1.0837883e+00	  -1.9291793e+00	  -9.1089878e-01	
   2.3595000e+01	  -1.1040393e+00	  -2.0774352e+00	  -9.5736959e-01	
   2.3650000e+01	  -1.1184388e+00	  -2.1920171e+00	  -9.9393213e-01	
   2.3705000e+01	  -1.1275059e+00	  -2.2756749e+00	  -1.0213065e+00	
   2.3760000e+01	  -1.1317876e+00	  -2.3314547e+00	  -1.0403223e+00	
   2.3815000e+01	  -1.1318359e+00	  -2.3625741e+00	  -1.0518798e+00	
   2.3870000e+01	  -1.1281928e+00	  -2.3723156e+00	  -1.0569170e+00	
   2.3925000e+01	  -1.1213811e+00	  -2.3639380e+00	  -1.0563828e+00	
   2.3980000e+01	  -1.1119019e+00	  -2.3406076e+00	  -1.0512158e+00	
   2.4035000e+01	  -1.1002361e+00	  -2.3053451e+00	  -1.0423310e+00	
   2.4090000e+01	  -1.0868494e+00	  -2.2609884e+00	  -1.0306115e+00	
   2.4145000e+01	  -1.0722007e+00	  -2.2101640e+00	  -1.0169032e+00	
   2.4200000e+01	  -1.0567491e+00	  -2.1552644e+00	  -1.0020104e+00	
   2.4255000e+01	  -1.0409576e+00	  -2.0984279e+00	  -9.8669094e-01	
   2.4310000e+01	  -1.0252882e+00	  -2.0415228e+00	  -9.7164761e-01	
   2.4365000e+01	  -1.0101886e+00	  -1.9861357e+00	  -9.5751617e-01	
   2.4420000e+01	  -9.9607236e-01	  -1.9335654e+00	  -9.4484942e-01	
   2.4475000e+01	  -9.8329651e-01	  -1.8848239e+00	  -9.3410004e-01	
   2.4530000e+01	  -9.7214284e-01	  -1.8406453e+00	  -9.2560485e-01	
   2.4585000e+01	  -9.6280458e-01	  -1.8015013e+00	  -9.1957336e-01	
   2.4640000e+01	  -9.5538063e-01	  -1.7676233e+00	  -9.1608324e-01	
   2.4695000e+01	  -9.4987734e-01	  -1.7390298e+00	  -9.1508463e-01	
   2.4750000e+01	  -9.4621766e-01	  -1.7155594e+00	  -9.1641318e-01	
   2.4805000e+01	  -9.4425627e-01	  -1.6969081e+00	  -9.1981058e-01	
   2.4860000e+01	  -9.4379901e-01	  -1.6826678e+00	  -9.2494990e-01	
   2.4915000e+01	  -9.4462470e-01	  -1.6723632e+00	  -9.3146335e-01	
   2.4970000e+01	  -9.4650698e-01	  -1.6654856e+00	  -9.3897026e-01	
   2.5025000e+01	  -9.4923367e-01	  -1.6615217e+00	  -9.4710341e-01	
   2.5080000e+01	  -9.5262047e-01	  -1.6599740e+00	  -9.5553190e-01	
   2.5135000e+01	  -9.5651783e-01	  -1.6603737e+00	  -9.6397883e-01	
   2.5190000e+01	  -9.6081029e-01	  -1.6622865e+00	  -9.7223120e-01	
   2.5245000e+01	  -9.6540977e-01	  -1.6653146e+00	  -9.8013975e-01	
   2.5300000e+01	  -9.7024463e-01	  -1.6690951e+00	  -9.8760859e-01	
   2.5355000e+01	  -9.7524795e-01	  -1.6732970e+00	  -9.9457840e-01	
   2.5410000e+01	  -9.8034832e-01	  -1.6776191e+00	  -1.0010098e+00	
   2.5465000e+01	  -9.8546503e-01	  -1.6817901e+00	  -1.0068708e+00	
   2.5520000e+01	  -9.9050761e-01	  -1.6855723e+00	  -1.0121297e+00	
   2.5575000e+01	  -9.9537920e-01	  -1.6887703e+00	  -1.0167520e+00	
   2.5630000e+01	  -9.9998256e-01	  -1.6912400e+00	  -1.0207017e+00	
   2.5685000e+01	  -1.0042276e+00	  -1.6928956e+00	  -1.0239474e+00	
   2.5740000e+01	  -1.0080395e+00	  -1.6937147e+00	  -1.0264703e+00	
   2.5795000e+01	  -1.0113674e+00	  -1.6937414e+00	  -1.0282726e+00	
   2.5850000e+01	  -1.0141922e+00	  -1.6930891e+00	  -1.0293847e+00	
   2.5905000e+01	  -1.0165321e+00	  -1.6919393e+00	  -1.0298692e+00	
   2.5960000e+01	  -1.0184430e+00	  -1.6905350e+00	  -1.0298216e+00	
   2.6015000e+01	  -1.0200132e+00	  -1.6891684e+00	  -1.0293678e+00	
   2.6070000e+01	  -1.0213524e+00	  -1.6881604e+00	  -1.0286551e+00	
   2.6125000e+01	  -1.0225778e+00	  -1.6878365e+00	  -1.0278375e+00	
   2.6180000e+01	  -1.0237985e+00	  -1.6884999e+00	  -1.0270552e+00	
   2.6235000e+01	  -1.0251012e+00	  -1.6904107e+00	  -1.0264144e+00	
   2.6290000e+01	  -1.0265408e+00	  -1.6937690e+00	  -1.0259716e+00	
   2.6345000e+01	  -1.0281361e+00	  -1.6987041e+00	  -1.0257266e+00	
   2.6400000e+01	  -1.0298716e+00	  -1.7052652e+00	  -1.0256236e+00	
   2.6455000e+01	  -1.0317037e+00	  -1.7134183e+00	  -1.0255599e+00	
   2.6510000e+01	  -1.0335721e+00	  -1.7230473e+00	  -1.0253992e+00	
   2.6565000e+01	  -1.0354122e+00	  -1.7339627e+00	  -1.0249888e+00	
   2.6620000e+01	  -1.0371669e+00	  -1.7459155e+00	  -1.0241772e+00	
   2.6675000e+01	  -1.0387968e+00	  -1.7586149e+00	  -1.0228326e+00	
   2.6730000e+01	  -1.0402899e+00	  -1.7717469e+00	  -1.0208598e+00	
   2.6785000e+01	  -1.0416681e+00	  -1.7849934e+00	  -1.0182133e+00	
   2.6840000e+01	  -1.0429872e+00	  -1.7980444e+00	  -1.0149029e+00	
   2.6895000e+01	  -1.0443303e+00	  -1.8106044e+00	  -1.0109906e+00	
   2.6950000e+01	  -1.0457930e+00	  -1.8223930e+00	  -1.0065782e+00	
   2.7005000e+01	  -1.0474650e+00	  -1.8331431e+00	  -1.0017891e+00	
   2.7060000e+01	  -1.0494130e+00	  -1.8425975e+00	  -9.9674899e-01	
   2.7115000e+01	  -1.0516687e+00	  -1.8505077e+00	  -9.9156835e-01	
   2.7170000e+01	  -1.0542233e+00	  -1.8566355e+00	  -9.8633036e-01	
   2.7225000e+01	  -1.0570271e+00	  -1.8607580e+00	  -9.8108440e-01	
   2.7280000e+01	  -1.0599946e+00	  -1.8626773e+00	  -9.7584467e-01	
   2.7335000e+01	  -1.0630135e+00	  -1.8622315e+00	  -9.7059383e-01	
   2.7390000e+01	  -1.0659576e+00	  -1.8593071e+00	  -9.6529173e-01	
   2.7445000e+01	  -1.0687025e+00	  -1.8538495e+00	  -9.5988887e-01	
   2.7500000e+01	  -1.0711417e+00	  -1.8458702e+00	  -9.5434271e-01	
   2.7555000e+01	  -1.0732007e+00	  -1.8354506e+00	  -9.4863430e-01	
   2.7610000e+01	  -1.0748497e+00	  -1.8227436e+00	  -9.4278231e-01	
   2.7665000e+01	  -1.0761091e+00	  -1.8079699e+00	  -9.3685123e-01	
   2.7720000e+01	  -1.0770473e+00	  -1.7914110e+00	  -9.3095112e-01	
   2.7775000e+01	  -1.0777699e+00	  -1.7733960e+00	  -9.2522912e-01	
   2.7830000e+01	  -1.0784027e+00	  -1.7542860e+00	  -9.1985466e-01	
   2.7885000e+01	  -1.0790715e+00	  -1.7344576e+00	  -9.1500196e-01	
   2.7940000e+01	  -1.0798838e+00	  -1.7142869e+00	  -9.1083377e-01	
   2.7995000e+01	  -1.0809153e+00	  -1.6941371e+00	  -9.0748930e-01	
   2.8050000e+01	  -1.0822019e+00	  -1.6743490e+00	  -9.0507608e-01	
   2.8105000e+01	  -1.0837381e+00	  -1.6552359e+00	  -9.0366331e-01	
   2.8160000e+01	  -1.0854808e+00	  -1.6370803e+00	  -9.0327657e-01	
   2.8215000e+01	  -1.0873576e+00	  -1.6201350e+00	  -9.0389582e-01	
   2.8270000e+01	  -1.0892792e+00	  -1.6046245e+00	  -9.0545832e-01	
   2.8325000e+01	  -1.0911524e+00	  -1.5907470e+00	  -9.0786683e-01	
   2.8380000e+01	  -1.0928938e+00	  -1.5786748e+00	  -9.1100238e-01	
   2.8435000e+01	  -1.0944423e+00	  -1.5685545e+00	  -9.1473999e-01	
   2.8490000e+01	  -1.0957695e+00	  -1.5605069e+00	  -9.1896407e-01	
   2.8545000e+01	  -1.0968861e+00	  -1.5546252e+00	  -9.2358025e-01	
   2.8600000e+01	  -1.0978437e+00	  -1.5509681e+00	  -9.2852096e-01	
   2.8655000e+01	  -1.0987282e+00	  -1.5495504e+00	  -9.3374424e-01	
   2.8710000e+01	  -1.0996476e+00	  -1.5503307e+00	  -9.3922563e-01	
   2.8765000e+01	  -1.1007137e+00	  -1.5531998e+00	  -9.4494440e-01	
   2.8820000e+01	  -1.1020231e+00	  -1.5579732e+00	  -9.5086741e-01	
   2.8875000e+01	  -1.1036405e+00	  -1.5643891e+00	  -9.5693541e-01	
   2.8930000e+01	  -1.1055882e+00	  -1.5721139e+00	  -9.6305547e-01	
   2.8985000e+01	  -1.1078430e+00	  -1.5807539e+00	  -9.6910068e-01	
   2.9040000e+01	  -1.1103408e+00	  -1.5898727e+00	  -9.7491674e-01	
   2.9095000e+01	  -1.1129855e+00	  -1.5990116e+00	  -9.8033412e-01	
   2.9150000e+01	  -1.1156620e+00	  -1.6077125e+00	  -9.8518386e-01	
   2.9205000e+01	  -1.1182497e+00	  -1.6155429e+00	  -9.8931350e-01	
   2.9260000e+01	  -1.1206378e+00	  -1.6221199e+00	  -9.9260030e-01	
   2.9315000e+01	  -1.1227377e+00	  -1.6271321e+00	  -9.9496166e-01	
   2.9370000e+01	  -1.1244947e+00	  -1.6303571e+00	  -9.9636347e-01	
   2.9425000e+01	  -1.1258943e+00	  -1.6316726e+00	  -9.9682466e-01	
   2.9480000e+01	  -1.1269634e+00	  -1.6310592e+00	  -9.9641504e-01	
   2.9535000e+01	  -1.1277633e+00	  -1.6285963e+00	  -9.9524507e-01	
   2.9590000e+01	  -1.1283769e+00	  -1.6244489e+00	  -9.9345016e-01	
   2.9645000e+01	  -1.1288929e+00	  -1.6188493e+00	  -9.9117369e-01	
   2.9700000e+01	  -1.1293907e+00	  -1.6120751e+00	  -9.8855241e-01	
   2.9755000e+01	  -1.1299295e+00	  -1.6044276e+00	  -9.8570575e-01	
   2.9810000e+01	  -1.1305413e+00	  -1.5962125e+00	  -9.8272877e-01	
   2.9865000e+01	  -1.1312276e+00	  -1.5877240e+00	  -9.7968798e-01	
   2.9920000e+01	  -1.1319595e+00	  -1.5792299e+00	  -9.7662006e-01	
   2.9975000e+01	  -1.1326810e+00	  -1.5709616e+00	  -9.7353426e-01	
   3.0030000e+01	  -1.1333176e+00	  -1.5631099e+00	  -9.7041856e-01	
   3.0085000e+01	  -1.1337863e+00	  -1.5558259e+00	  -9.6724843e-01	
   3.0140000e+01	  -1.1340082e+00	  -1.5492249e+00	  -9.6399659e-01	
   3.0195000e+01	  -1.1339182e+00	  -1.5433911e+00	  -9.6064298e-01	
   3.0250000e+01	  -1.1334719e+00	  -1.5383808e+00	  -9.5718276e-01	
   3.0305000e+01	  -1.1326450e+00	  -1.5342255e+00	  -9.5362907e-01	
   3.0360000e+01	  -1.1314265e+00	  -1.5309305e+00	  -9.5000804e-01	
   3.0415000e+01	  -1.1298067e+00	  -1.5284728e+00	  -9.4634704e-01	
   3.0470000e+01	  -1.1277668e+00	  -1.5268008e+00	  -9.4266073e-01	
   3.0525000e+01	  -1.1252713e+00	  -1.5258353e+00	  -9.3894011e-01	
   3.0580000e+01	  -1.1222650e+00	  -1.5254739e+00	  -9.3514822e-01	
   3.0635000e+01	  -1.1186747e+00	  -1.5255955e+00	  -9.3122265e-01	
   3.0690000e+01	  -1.1144142e+00	  -1.5260655e+00	  -9.2708263e-01	
   3.0745000e+01	  -1.1093935e+00	  -1.5267400e+00	  -9.2263833e-01	
   3.0800000e+01	  -1.1035305e+00	  -1.5274698e+00	  -9.1780104e-01	
   3.0855000e+01	  -1.0967635e+00	  -1.5281071e+00	  -9.1249337e-01	
   3.0910000e+01	  -1.0890629e+00	  -1.5285164e+00	  -9.0665822e-01	
   3.0965000e+01	  -1.0804418e+00	  -1.5285864e+00	  -9.0026449e-01	
   3.1020000e+01	  -1.0709598e+00	  -1.5282387e+00	  -8.9330842e-01	
   3.1075000e+01	  -1.0607221e+00	  -1.5274331e+00	  -8.8580997e-01	
   3.1130000e+01	  -1.0498701e+00	  -1.5261657e+00	  -8.7780496e-01	
   3.1185000e+01	  -1.0385656e+00	  -1.5244642e+00	  -8.6933382e-01	
   3.1240000e+01	  -1.0269726e+00	  -1.5223780e+00	  -8.6042957e-01	
   3.1295000e+01	  -1.0152405e+00	  -1.5199685e+00	  -8.5110831e-01	
   3.1350000e+01	  -1.0034930e+00	  -1.5173000e+00	  -8.4136521e-01	
   3.1405000e+01	  -9.9182283e-01	  -1.5144318e+00	  -8.3117655e-01	
   3.1460000e+01	  -9.8029123e-01	  -1.5114115e+00	  -8.2050582e-01	
   3.1515000e+01	  -9.6893189e-01	  -1.5082720e+00	  -8.0931233e-01	
   3.1570000e+01	  -9.5775890e-01	  -1.5050310e+00	  -7.9756210e-01	
   3.1625000e+01	  -9.4677759e-01	  -1.5016965e+00	  -7.8524030e-01	
   3.1680000e+01	  -9.3599618e-01	  -1.4982731e+00	  -7.7236311e-01	
   3.1735000e+01	  -9.2543641e-01	  -1.4947688e+00	  -7.5898613e-01	
   3.1790000e+01	  -9.1514144e-01	  -1.4911987e+00	  -7.4520884e-01	
   3.1845000e+01	  -9.0517949e-01	  -1.4875858e+00	  -7.3117580e-01	
   3.1900000e+01	  -8.9564210e-01	  -1.4839584e+00	  -7.1707380e-01	
   3.1955000e+01	  -8.8663645e-01	  -1.4803453e+00	  -7.0312279e-01	
   3.2010000e+01	  -8.7827349e-01	  -1.4767715e+00	  -6.8956053e-01	
   3.2065000e+01	  -8.7065411e-01	  -1.4732558e+00	  -6.7662432e-01	
   3.2120000e+01	  -8.6385618e-01	  -1.4698093e+00	  -6.6453352e-01	
   3.2175000e+01	  -8.5792478e-01	  -1.4664342e+00	  -6.5347563e-01	
   3.2230000e+01	  -8.5286728e-01	  -1.4631215e+00	  -6.4359733e-01	
   3.2285000e+01	  -8.4865311e-01	  -1.4598487e+00	  -6.3500075e-01	
   3.2340000e+01	  -8.4521704e-01	  -1.4565800e+00	  -6.2774346e-01	
   3.2395000e+01	  -8.4246559e-01	  -1.4532690e+00	  -6.2184074e-01	
   3.2450000e+01	  -8.4028663e-01	  -1.4498638e+00	  -6.1726922e-01	
   3.2505000e+01	  -8.3856102e-01	  -1.4463135e+00	  -6.1397214e-01	
   3.2560000e+01	  -8.3717476e-01	  -1.4425738e+00	  -6.1186638e-01	
   3.2615000e+01	  -8.3603064e-01	  -1.4386162e+00	  -6.1085141e-01	
   3.2670000e+01	  -8.3505834e-01	  -1.4344357e+00	  -6.1081960e-01	
   3.2725000e+01	  -8.3422050e-01	  -1.4300575e+00	  -6.1166553e-01	
   3.2780000e+01	  -8.3351131e-01	  -1.4255374e+00	  -6.1329148e-01	
   3.2835000e+01	  -8.3294632e-01	  -1.4209573e+00	  -6.1560760e-01	
   3.2890000e+01	  -8.3254599e-01	  -1.4164146e+00	  -6.1852714e-01	
   3.2945000e+01	  -8.3231772e-01	  -1.4120118e+00	  -6.2195774e-01	
   3.3000000e+01	  -8.3224068e-01	  -1.4078431e+00	  -6.2579111e-01	
   3.3055000e+01	  -8.3225669e-01	  -1.4039840e+00	  -6.2989441e-01	
   3.3110000e+01	  -8.3226787e-01	  -1.4004813e+00	  -6.3410628e-01	
   3.3165000e+01	  -8.3213984e-01	  -1.3973478e+00	  -6.3823859e-01	
   3.3220000e+01	  -8.3170869e-01	  -1.3945605e+00	  -6.4208327e-01	
   3.3275000e+01	  -8.3079069e-01	  -1.3920624e+00	  -6.4542348e-01	
   3.3330000e+01	  -8.2919437e-01	  -1.3897695e+00	  -6.4804836e-01	
   3.3385000e+01	  -8.2673419e-01	  -1.3875822e+00	  -6.4976878e-01	
   3.3440000e+01	  -8.2324416e-01	  -1.3853974e+00	  -6.5043155e-01	
   3.3495000e+01	  -8.1859077e-01	  -1.3831216e+00	  -6.4993165e-01	
   3.3550000e+01	  -8.1268412e-01	  -1.3806811e+00	  -6.4822230e-01	
   3.3605000e+01	  -8.0548497e-01	  -1.3780293e+00	  -6.4532101e-01	
   3.3660000e+01	  -7.9700499e-01	  -1.3751488e+00	  -6.4130723e-01	
   3.3715000e+01	  -7.8730013e-01	  -1.3720455e+00	  -6.3631025e-01	
   3.3770000e+01	  -7.7645953e-01	  -1.3687389e+00	  -6.3049095e-01	
   3.3825000e+01	  -7.6459344e-01	  -1.3652493e+00	  -6.2402336e-01	
   3.3880000e+01	  -7.5182263e-01	  -1.3615847e+00	  -6.1707952e-01	
   3.3935000e+01	  -7.3827056e-01	  -1.3577292e+00	  -6.0981854e-01	
   3.3990000e+01	  -7.2405862e-01	  -1.3536379e+00	  -6.0237985e-01	
   3.4045000e+01	  -7.0930421e-01	  -1.3492362e+00	  -5.9487958e-01	
   3.4100000e+01	  -6.9412175e-01	  -1.3444227e+00	  -5.8741020e-01	
   3.4155000e+01	  -6.7862571e-01	  -1.3390755e+00	  -5.8004430e-01	
   3.4210000e+01	  -6.6293474e-01	  -1.3330597e+00	  -5.7284216e-01	
   3.4265000e+01	  -6.4717512e-01	  -1.3262375e+00	  -5.6585965e-01	
   3.4320000e+01	  -6.3148131e-01	  -1.3184795e+00	  -5.5915276e-01	
   3.4375000e+01	  -6.1599237e-01	  -1.3096740e+00	  -5.5277751e-01	
   3.4430000e+01	  -6.0084367e-01	  -1.2997335e+00	  -5.4678586e-01	
   3.4485000e+01	  -5.8615526e-01	  -1.2885945e+00	  -5.4121832e-01	
   3.4540000e+01	  -5.7201892e-01	  -1.2762157e+00	  -5.3609434e-01	
   3.4595000e+01	  -5.5848729e-01	  -1.2625749e+00	  -5.3140258e-01	
   3.4650000e+01	  -5.4556775e-01	  -1.2476678e+00	  -5.2709406e-01	
   3.4705000e+01	  -5.3322172e-01	  -1.2315065e+00	  -5.2307930e-01	
   3.4760000e+01	  -5.2136846e-01	  -1.2141183e+00	  -5.1922935e-01	
   3.4815000e+01	  -5.0989236e-01	  -1.1955424e+00	  -5.1538002e-01	
   3.4870000e+01	  -4.9865336e-01	  -1.1758289e+00	  -5.1134029e-01	
   3.4925000e+01	  -4.8749930e-01	  -1.1550391e+00	  -5.0690511e-01	
   3.4980000e+01	  -4.7627855e-01	  -1.1332478e+00	  -5.0187202e-01	
   3.5035000e+01	  -4.6485173e-01	  -1.1105493e+00	  -4.9606011e-01	
   3.5090000e+01	  -4.5310213e-01	  -1.0870645e+00	  -4.8932964e-01	
   3.5145000e+01	  -4.4094304e-01	  -1.0629470e+00	  -4.8159878e-01	
   3.5200000e+01	  -4.2831903e-01	  -1.0383847e+00	  -4.7285229e-01	
   3.5255000e+01	  -4.1519962e-01	  -1.0135934e+00	  -4.6313841e-01	
   3.5310000e+01	  -4.0156760e-01	  -9.8880652e-01	  -4.5255490e-01	
   3.5365000e+01	  -3.8740620e-01	  -9.6426084e-01	  -4.4122967e-01	
   3.5420000e+01	  -3.7268868e-01	  -9.4018376e-01	  -4.2930230e-01	
   3.5475000e+01	  -3.5737236e-01	  -9.1678270e-01	  -4.1691043e-01	
   3.5530000e+01	  -3.4139819e-01	  -8.9423825e-01	  -4.0418035e-01	
   3.5585000e+01	  -3.2469547e-01	  -8.7270002e-01	  -3.9121922e-01	
   3.5640000e+01	  -3.0719057e-01	  -8.5228412e-01	  -3.7810785e-01	
   3.5695000e+01	  -2.8881880e-01	  -8.3307279e-01	  -3.6489641e-01	
   3.5750000e+01	  -2.6953805e-01	  -8.1511733e-01	  -3.5160616e-01	
   3.5805000e+01	  -2.4934261e-01	  -7.9844385e-01	  -3.3823776e-01	
   3.5860000e+01	  -2.2827468e-01	  -7.8306049e-01	  -3.2478351e-01	
   3.5915000e+01	  -2.0643152e-01	  -7.6896431e-01	  -3.1123931e-01	
   3.5970000e+01	  -1.8396689e-01	  -7.5614615e-01	  -2.9761313e-01	
   3.6025000e+01	  -1.6108553e-01	  -7.4459096e-01	  -2.8392820e-01	
   3.6080000e+01	  -1.3803121e-01	  -7.3427198e-01	  -2.7022040e-01	
   3.6135000e+01	  -1.1507092e-01	  -7.2514072e-01	  -2.5653061e-01	
   3.6190000e+01	  -9.2479253e-02	  -7.1711799e-01	  -2.4289526e-01	
   3.6245000e+01	  -7.0525066e-02	  -7.1008927e-01	  -2.2933901e-01	
   3.6300000e+01	  -4.9460562e-02	  -7.0390546e-01	  -2.1587205e-01	
   3.6355000e+01	  -2.9513356e-02	  -6.9838866e-01	  -2.0249219e-01	
   3.6410000e+01	  -1.0882372e-02	  -6.9334209e-01	  -1.8919125e-01	
   3.6465000e+01	   6.2622710e-03	  -6.8856267e-01	  -1.7596484e-01	
   3.6520000e+01	   2.1776246e-02	  -6.8385453e-01	  -1.6282424e-01	
   3.6575000e+01	   3.5535758e-02	  -6.7904306e-01	  -1.4980848e-01	
   3.6630000e+01	   4.7430811e-02	  -6.7398978e-01	  -1.3699396e-01	
   3.6685000e+01	   5.7358792e-02	  -6.6860681e-01	  -1.2449792e-01	
   3.6740000e+01	   6.5221291e-02	  -6.6286774e-01	  -1.1247324e-01	
   3.6795000e+01	   7.0926979e-02	  -6.5681033e-01	  -1.0109433e-01	
   3.6850000e+01	   7.4401413e-02	  -6.5052843e-01	  -9.0537227e-02	
   3.6905000e+01	   7.5601681e-02	  -6.4415458e-01	  -8.0958366e-02	
   3.6960000e+01	   7.4531485e-02	  -6.3783876e-01	  -7.2476584e-02	
   3.7015000e+01	   7.1251997e-02	  -6.3172908e-01	  -6.5160785e-02	
   3.7070000e+01	   6.5885755e-02	  -6.2595857e-01	  -5.9024111e-02	
   3.7125000e+01	   5.8613704e-02	  -6.2063879e-01	  -5.4024200e-02	
   3.7180000e+01	   4.9667340e-02	  -6.1585849e-01	  -5.0068144e-02	
   3.7235000e+01	   3.9317677e-02	  -6.1168482e-01	  -4.7021239e-02	
   3.7290000e+01	   2.7861870e-02	  -6.0816533e-01	  -4.4719784e-02	
   3.7345000e+01	   1.5608453e-02	  -6.0532990e-01	  -4.2987302e-02	
   3.7400000e+01	   2.8628396e-03	  -6.0319231e-01	  -4.1650872e-02	
   3.7455000e+01	  -1.0085377e-02	  -6.0175156e-01	  -4.0553354e-02	
   3.7510000e+01	  -2.2972437e-02	  -6.0099301e-01	  -3.9559489e-02	
   3.7565000e+01	  -3.5567045e-02	  -6.0088979e-01	  -3.8556145e-02	
   3.7620000e+01	  -4.7672778e-02	  -6.0140439e-01	  -3.7447796e-02	
   3.7675000e+01	  -5.9126153e-02	  -6.0249077e-01	  -3.6149105e-02	
   3.7730000e+01	  -6.9791848e-02	  -6.0409749e-01	  -3.4577479e-02	
   3.7785000e+01	  -7.9557591e-02	  -6.0617200e-01	  -3.2648190e-02	
   3.7840000e+01	  -8.8330814e-02	  -6.0866565e-01	  -3.0273953e-02	
   3.7895000e+01	  -9.6038116e-02	  -6.1153942e-01	  -2.7370517e-02	
   3.7950000e+01	  -1.0262787e-01	  -6.1477006e-01	  -2.3868355e-02	
   3.8005000e+01	  -1.0807542e-01	  -6.1835577e-01	  -1.9727937e-02	
   3.8060000e+01	  -1.1238926e-01	  -6.2231941e-01	  -1.4954656e-02	
   3.8115000e+01	  -1.1561665e-01	  -6.2670781e-01	  -9.6106169e-03	
   3.8170000e+01	  -1.1784805e-01	  -6.3158754e-01	  -3.8223259e-03	
   3.8225000e+01	  -1.1921979e-01	  -6.3703899e-01	   2.2166283e-03	
   3.8280000e+01	  -1.1991395e-01	  -6.4315050e-01	   8.2494928e-03	
   3.8335000e+01	  -1.2015360e-01	  -6.5001358e-01	   1.3967463e-02	
   3.8390000e+01	  -1.2019263e-01	  -6.5771735e-01	   1.9026961e-02	
   3.8445000e+01	  -1.2029965e-01	  -6.6633927e-01	   2.3072166e-02	
   3.8500000e+01	  -1.2073681e-01	  -6.7593110e-01	   2.5762128e-02	
   3.8555000e+01	  -1.2173708e-01	  -6.8650331e-01	   2.6799691e-02	
   3.8610000e+01	  -1.2348460e-01	  -6.9801391e-01	   2.5957157e-02	
   3.8665000e+01	  -1.2610086e-01	  -7.1036488e-01	   2.3095096e-02	
   3.8720000e+01	  -1.2963786e-01	  -7.2340526e-01	   1.8174050e-02	
   3.8775000e+01	  -1.3407862e-01	  -7.3693895e-01	   1.1258828e-02	
   3.8830000e+01	  -1.3934462e-01	  -7.5073586e-01	   2.5130170e-03	
   3.8885000e+01	  -1.4530912e-01	  -7.6454597e-01	  -7.8172600e-03	
   3.8940000e+01	  -1.5181449e-01	  -7.7811518e-01	  -1.9427231e-02	
   3.8995000e+01	  -1.5869174e-01	  -7.9120113e-01	  -3.1980707e-02	
   3.9050000e+01	  -1.6577981e-01	  -8.0358775e-01	  -4.5137872e-02	
   3.9105000e+01	  -1.7294211e-01	  -8.1509642e-01	  -5.8581294e-02	
   3.9160000e+01	  -1.8007840e-01	  -8.2559285e-01	  -7.2037217e-02	
   3.9215000e+01	  -1.8713092e-01	  -8.3499042e-01	  -8.5289307e-02	
   3.9270000e+01	  -1.9408418e-01	  -8.4325025e-01	  -9.8182729e-02	
   3.9325000e+01	  -2.0095768e-01	  -8.5037631e-01	  -1.1061841e-01	
   3.9380000e+01	  -2.0779257e-01	  -8.5640402e-01	  -1.2254042e-01	
   3.9435000e+01	  -2.1463545e-01	  -8.6138357e-01	  -1.3392068e-01	
   3.9490000e+01	  -2.2152327e-01	  -8.6536279e-01	  -1.4474384e-01	
   3.9545000e+01	  -2.2847152e-01	  -8.6837446e-01	  -1.5499459e-01	
   3.9600000e+01	  -2.3546651e-01	  -8.7043087e-01	  -1.6464928e-01	
   3.9655000e+01	  -2.4246228e-01	  -8.7152600e-01	  -1.7367297e-01	
   3.9710000e+01	  -2.4938307e-01	  -8.7164349e-01	  -1.8202144e-01	
   3.9765000e+01	  -2.5613073e-01	  -8.7076814e-01	  -1.8964651e-01	
   3.9820000e+01	  -2.6259577e-01	  -8.6889876e-01	  -1.9650260e-01	
   3.9875000e+01	  -2.6867087e-01	  -8.6606152e-01	  -2.0255407e-01	
   3.9930000e+01	  -2.7426580e-01	  -8.6232309e-01	  -2.0778426e-01	
   3.9985000e+01	  -2.7932172e-01	  -8.5780115e-01	  -2.1220621e-01	
   4.0040000e+01	  -2.8382222e-01	  -8.5266957e-01	  -2.1587185e-01	
   4.0095000e+01	  -2.8779907e-01	  -8.4715735e-01	  -2.1887513e-01	
   4.0150000e+01	  -2.9133130e-01	  -8.4154181e-01	  -2.2134629e-01	
   4.0205000e+01	  -2.9453669e-01	  -8.3613542e-01	  -2.2343722e-01	
   4.0260000e+01	  -2.9755612e-01	  -8.3126625e-01	  -2.2530081e-01	
   4.0315000e+01	  -3.0053434e-01	  -8.2725428e-01	  -2.2707041e-01	
   4.0370000e+01	  -3.0360128e-01	  -8.2438732e-01	  -2.2884534e-01	
   4.0425000e+01	  -3.0685732e-01	  -8.2289933e-01	  -2.3068483e-01	
   4.0480000e+01	  -3.1036407e-01	  -8.2295428e-01	  -2.3260892e-01	
   4.0535000e+01	  -3.1414101e-01	  -8.2463778e-01	  -2.3460410e-01	
   4.0590000e+01	  -3.1816779e-01	  -8.2795713e-01	  -2.3663234e-01	
   4.0645000e+01	  -3.2239115e-01	  -8.3284774e-01	  -2.3864321e-01	
   4.0700000e+01	  -3.2673529e-01	  -8.3918353e-01	  -2.4058755e-01	
   4.0755000e+01	  -3.3111394e-01	  -8.4678945e-01	  -2.4243111e-01	
   4.0810000e+01	  -3.3544247e-01	  -8.5545447e-01	  -2.4416689e-01	
   4.0865000e+01	  -3.3964849e-01	  -8.6494400e-01	  -2.4582477e-01	
   4.0920000e+01	  -3.4367948e-01	  -8.7501121e-01	  -2.4747599e-01	
   4.0975000e+01	  -3.4750580e-01	  -8.8540655e-01	  -2.4923082e-01	
   4.1030000e+01	  -3.5111839e-01	  -8.9588468e-01	  -2.5122936e-01	
   4.1085000e+01	  -3.5452121e-01	  -9.0620889e-01	  -2.5362653e-01	
   4.1140000e+01	  -3.5772023e-01	  -9.1615415e-01	  -2.5657294e-01	
   4.1195000e+01	  -3.6071139e-01	  -9.2550961e-01	  -2.6019378e-01	
   4.1250000e+01	  -3.6346995e-01	  -9.3408090e-01	  -2.6456976e-01	
   4.1305000e+01	  -3.6594345e-01	  -9.4169132e-01	  -2.6972442e-01	
   4.1360000e+01	  -3.6804941e-01	  -9.4818195e-01	  -2.7561995e-01	
   4.1415000e+01	  -3.6967856e-01	  -9.5341141e-01	  -2.8216185e-01	
   4.1470000e+01	  -3.7070341e-01	  -9.5725672e-01	  -2.8921118e-01	
   4.1525000e+01	  -3.7099061e-01	  -9.5961545e-01	  -2.9660198e-01	
   4.1580000e+01	  -3.7041471e-01	  -9.6040851e-01	  -3.0415844e-01	
   4.1635000e+01	  -3.6887123e-01	  -9.5958325e-01	  -3.1170890e-01	
   4.1690000e+01	  -3.6628706e-01	  -9.5711665e-01	  -3.1909665e-01	
   4.1745000e+01	  -3.6262608e-01	  -9.5301694e-01	  -3.2618748e-01	
   4.1800000e+01	  -3.5788765e-01	  -9.4732116e-01	  -3.3287190e-01	
   4.1855000e+01	  -3.5209822e-01	  -9.4008706e-01	  -3.3906037e-01	
   4.1910000e+01	  -3.4529942e-01	  -9.3138151e-01	  -3.4467352e-01	
   4.1965000e+01	  -3.3753673e-01	  -9.2126957e-01	  -3.4963179e-01	
   4.2020000e+01	  -3.2885152e-01	  -9.0980719e-01	  -3.5384887e-01	
   4.2075000e+01	  -3.1927733e-01	  -8.9703949e-01	  -3.5723175e-01	
   4.2130000e+01	  -3.0884089e-01	  -8.8300514e-01	  -3.5968718e-01	
   4.2185000e+01	  -2.9756780e-01	  -8.6774565e-01	  -3.6113224e-01	
   4.2240000e+01	  -2.8549124e-01	  -8.5131636e-01	  -3.6150499e-01	
   4.2295000e+01	  -2.7266149e-01	  -8.3379713e-01	  -3.6077320e-01	
   4.2350000e+01	  -2.5915462e-01	  -8.1530236e-01	  -3.5894111e-01	
   4.2405000e+01	  -2.4507869e-01	  -7.9598968e-01	  -3.5605490e-01	
   4.2460000e+01	  -2.3057576e-01	  -7.7606416e-01	  -3.5220559e-01	
   4.2515000e+01	  -2.1581805e-01	  -7.5577437e-01	  -3.4752827e-01	
   4.2570000e+01	  -2.0099801e-01	  -7.3539923e-01	  -3.4219636e-01	
   4.2625000e+01	  -1.8631336e-01	  -7.1522756e-01	  -3.3641021e-01	
   4.2680000e+01	  -1.7194931e-01	  -6.9553420e-01	  -3.3038193e-01	
   4.2735000e+01	  -1.5806171e-01	  -6.7655815e-01	  -3.2432040e-01	
   4.2790000e+01	  -1.4476451e-01	  -6.5848808e-01	  -3.1842005e-01	
   4.2845000e+01	  -1.3212329e-01	  -6.4145733e-01	  -3.1285395e-01	
   4.2900000e+01	  -1.2015536e-01	  -6.2554698e-01	  -3.0777038e-01	
   4.2955000e+01	  -1.0883572e-01	  -6.1079393e-01	  -3.0329181e-01	
   4.3010000e+01	  -9.8107768e-02	  -5.9720200e-01	  -2.9951568e-01	
   4.3065000e+01	  -8.7896862e-02	  -5.8475476e-01	  -2.9651659e-01	
   4.3120000e+01	  -7.8124926e-02	  -5.7342826e-01	  -2.9435006e-01	
   4.3175000e+01	  -6.8724145e-02	  -5.6320161e-01	  -2.9305788e-01	
   4.3230000e+01	  -5.9648211e-02	  -5.5406406e-01	  -2.9267323e-01	
   4.3285000e+01	  -5.0879123e-02	  -5.4601752e-01	  -2.9322303e-01	
   4.3340000e+01	  -4.2427334e-02	  -5.3907374e-01	  -2.9472371e-01	
   4.3395000e+01	  -3.4324556e-02	  -5.3324658e-01	  -2.9717067e-01	
   4.3450000e+01	  -2.6611347e-02	  -5.2854203e-01	  -3.0052546e-01	
   4.3505000e+01	  -1.9323497e-02	  -5.2494941e-01	  -3.0470612e-01	
   4.3560000e+01	  -1.2480823e-02	  -5.2243538e-01	  -3.0958316e-01	
   4.3615000e+01	  -6.0805204e-03	  -5.2094134e-01	  -3.1498146e-01	
   4.3670000e+01	  -9.5763911e-05	  -5.2038406e-01	  -3.2068735e-01	
   4.3725000e+01	   5.5209485e-03	  -5.2065925e-01	  -3.2645974e-01	
   4.3780000e+01	   1.0830927e-02	  -5.2164644e-01	  -3.3204450e-01	
   4.3835000e+01	   1.5900106e-02	  -5.2321475e-01	  -3.3719132e-01	
   4.3890000e+01	   2.0788644e-02	  -5.2523032e-01	  -3.4167192e-01	
   4.3945000e+01	   2.5540832e-02	  -5.2756647e-01	  -3.4529608e-01	
   4.4000000e+01	   3.0177444e-02	  -5.3011537e-01	  -3.4792287e-01	
   4.4055000e+01	   3.4692608e-02	  -5.3279809e-01	  -3.4946626e-01	
   4.4110000e+01	   3.9056380e-02	  -5.3556955e-01	  -3.4989550e-01	
   4.4165000e+01	   4.3222871e-02	  -5.3841679e-01	  -3.4922911e-01	
   4.4220000e+01	   4.7142243e-02	  -5.4135210e-01	  -3.4752248e-01	
   4.4275000e+01	   5.0773402e-02	  -5.4440441e-01	  -3.4485273e-01	
   4.4330000e+01	   5.4093807e-02	  -5.4761177e-01	  -3.4130659e-01	
   4.4385000e+01	   5.7104346e-02	  -5.5101616e-01	  -3.3697406e-01	
   4.4440000e+01	   5.9829684e-02	  -5.5465965e-01	  -3.3194588e-01	
   4.4495000e+01	   6.2315589e-02	  -5.5858019e-01	  -3.2631223e-01	
   4.4550000e+01	   6.4623861e-02	  -5.6280729e-01	  -3.2016220e-01	
   4.4605000e+01	   6.6824990e-02	  -5.6735811e-01	  -3.1358490e-01	
   4.4660000e+01	   6.8989436e-02	  -5.7223337e-01	  -3.0667264e-01	
   4.4715000e+01	   7.1179052e-02	  -5.7741273e-01	  -2.9952526e-01	
   4.4770000e+01	   7.3440018e-02	  -5.8285140e-01	  -2.9225320e-01	
   4.4825000e+01	   7.5799130e-02	  -5.8848030e-01	  -2.8497728e-01	
   4.4880000e+01	   7.8265515e-02	  -5.9420867e-01	  -2.7782334e-01	
   4.4935000e+01	   8.0837679e-02	  -5.9992697e-01	  -2.7091279e-01	
   4.4990000e+01	   8.3512992e-02	  -6.0551027e-01	  -2.6435223e-01	
   4.5045000e+01	   8.6296377e-02	  -6.1082393e-01	  -2.5822494e-01	
   4.5100000e+01	   8.9206437e-02	  -6.1573339e-01	  -2.5258434e-01	
   4.5155000e+01	   9.2277995e-02	  -6.2011794e-01	  -2.4745021e-01	
   4.5210000e+01	   9.5559987e-02	  -6.2388648e-01	  -2.4280805e-01	
   4.5265000e+01	   9.9108692e-02	  -6.2699255e-01	  -2.3861205e-01	
   4.5320000e+01	   1.0297816e-01	  -6.2944605e-01	  -2.3479109e-01	
   4.5375000e+01	   1.0721040e-01	  -6.3132058e-01	  -2.3125807e-01	
   4.5430000e+01	   1.1182752e-01	  -6.3275542e-01	  -2.2792221e-01	
   4.5485000e+01	   1.1682766e-01	  -6.3395087e-01	  -2.2470055e-01	
   4.5540000e+01	   1.2218676e-01	  -6.3515597e-01	  -2.2152383e-01	
   4.5595000e+01	   1.2786668e-01	  -6.3664932e-01	  -2.1833434e-01	
   4.5650000e+01	   1.3382832e-01	  -6.3871544e-01	  -2.1507796e-01	
   4.5705000e+01	   1.4004665e-01	  -6.4161921e-01	  -2.1169541e-01	
   4.5760000e+01	   1.4652387e-01	  -6.4558034e-01	  -2.0811695e-01	
   4.5815000e+01	   1.5329735e-01	  -6.5075134e-01	  -2.0426282e-01	
   4.5870000e+01	   1.6044061e-01	  -6.5720208e-01	  -2.0004951e-01	
   4.5925000e+01	   1.6805721e-01	  -6.6491265e-01	  -1.9540064e-01	
   4.5980000e+01	   1.7626946e-01	  -6.7377335e-01	  -1.9026008e-01	
   4.6035000e+01	   1.8520416e-01	  -6.8359006e-01	  -1.8460422e-01	
   4.6090000e+01	   1.9497717e-01	  -6.9409484e-01	  -1.7845091e-01	
   4.6145000e+01	   2.0567862e-01	  -7.0496083e-01	  -1.7186365e-01	
   4.6200000e+01	   2.1736047e-01	  -7.1581937e-01	  -1.6494986e-01	
   4.6255000e+01	   2.3002870e-01	  -7.2627708e-01	  -1.5785302e-01	
   4.6310000e+01	   2.4364222e-01	  -7.3593136e-01	  -1.5073886e-01	
   4.6365000e+01	   2.5811921e-01	  -7.4438314e-01	  -1.4377618e-01	
   4.6420000e+01	   2.7334912e-01	  -7.5124673e-01	  -1.3711392e-01	
   4.6475000e+01	   2.8920684e-01	  -7.5615781e-01	  -1.3085847e-01	
   4.6530000e+01	   3.0556468e-01	  -7.5878210e-01	  -1.2505596e-01	
   4.6585000e+01	   3.2229981e-01	  -7.5882630e-01	  -1.1968408e-01	
   4.6640000e+01	   3.3929645e-01	  -7.5605137e-01	  -1.1465485e-01	
   4.6695000e+01	   3.5644448e-01	  -7.5028665e-01	  -1.0982736e-01	
   4.6750000e+01	   3.7363577e-01	  -7.4144258e-01	  -1.0502771e-01	
   4.6805000e+01	   3.9076006e-01	  -7.2952008e-01	  -1.0007148e-01	
   4.6860000e+01	   4.0770156e-01	  -7.1461476e-01	  -9.4784758e-02	
   4.6915000e+01	   4.2433647e-01	  -6.9691577e-01	  -8.9021785e-02	
   4.6970000e+01	   4.4053136e-01	  -6.7670028e-01	  -8.2679795e-02	
   4.7025000e+01	   4.5614175e-01	  -6.5432472e-01	  -7.5709651e-02	
   4.7080000e+01	   4.7101244e-01	  -6.3021251e-01	  -6.8119285e-02	
   4.7135000e+01	   4.8498229e-01	  -6.0483784e-01	  -5.9968212e-02	
   4.7190000e+01	   4.9789474e-01	  -5.7870516e-01	  -5.1355030e-02	
   4.7245000e+01	   5.0961287e-01	  -5.5232516e-01	  -4.2401722e-02	
   4.7300000e+01	   5.2003526e-01	  -5.2618928e-01	  -3.3238007e-02	
   4.7355000e+01	   5.2910847e-01	  -5.0074738e-01	  -2.3988093e-02	
   4.7410000e+01	   5.3683248e-01	  -4.7639270e-01	  -1.4761840e-02	
   4.7465000e+01	   5.4325842e-01	  -4.5345488e-01	  -5.6508341e-03	
   4.7520000e+01	   5.4848070e-01	  -4.3219785e-01	   3.2716727e-03	
   4.7575000e+01	   5.5262628e-01	  -4.1281969e-01	   1.1948023e-02	
   4.7630000e+01	   5.5584251e-01	  -3.9545443e-01	   2.0331347e-02	
   4.7685000e+01	   5.5828444e-01	  -3.8017739e-01	   2.8380457e-02	
   4.7740000e+01	   5.6010258e-01	  -3.6701415e-01	   3.6056542e-02	
   4.7795000e+01	   5.6143257e-01	  -3.5595167e-01	   4.3322569e-02	
   4.7850000e+01	   5.6238856e-01	  -3.4694839e-01	   5.0145376e-02	
   4.7905000e+01	   5.6306190e-01	  -3.3994117e-01	   5.6500347e-02	
   4.7960000e+01	   5.6352478e-01	  -3.3484969e-01	   6.2377829e-02	
   4.8015000e+01	   5.6383723e-01	  -3.3157981e-01	   6.7788954e-02	
   4.8070000e+01	   5.6405408e-01	  -3.3002707e-01	   7.2768329e-02	
   4.8125000e+01	   5.6422946e-01	  -3.3007907e-01	   7.7372547e-02	
   4.8180000e+01	   5.6441783e-01	  -3.3161577e-01	   8.1674827e-02	
   4.8235000e+01	   5.6467234e-01	  -3.3450810e-01	   8.5756439e-02	
   4.8290000e+01	   5.6504105e-01	  -3.3861661e-01	   8.9695778e-02	
   4.8345000e+01	   5.6556155e-01	  -3.4379263e-01	   9.3556911e-02	
   4.8400000e+01	   5.6625506e-01	  -3.4988215e-01	   9.7380337e-02	
   4.8455000e+01	   5.6712156e-01	  -3.5673110e-01	   1.0117800e-01	
   4.8510000e+01	   5.6813696e-01	  -3.6419080e-01	   1.0493224e-01	
   4.8565000e+01	   5.6925362e-01	  -3.7212266e-01	   1.0859770e-01	
   4.8620000e+01	   5.7040567e-01	  -3.8040098e-01	   1.1210680e-01	
   4.8675000e+01	   5.7151930e-01	  -3.8891222e-01	   1.1537972e-01	
   4.8730000e+01	   5.7252553e-01	  -3.9755110e-01	   1.1833719e-01	
   4.8785000e+01	   5.7337208e-01	  -4.0621562e-01	   1.2091229e-01	
   4.8840000e+01	   5.7403157e-01	  -4.1480390e-01	   1.2305791e-01	
   4.8895000e+01	   5.7450492e-01	  -4.2321384e-01	   1.2474757e-01	
   4.8950000e+01	   5.7481984e-01	  -4.3134454e-01	   1.2596882e-01	
   4.9005000e+01	   5.7502524e-01	  -4.3909713e-01	   1.2671153e-01	
   4.9060000e+01	   5.7518310e-01	  -4.4637450e-01	   1.2695564e-01	
   4.9115000e+01	   5.7535921e-01	  -4.5308098e-01	   1.2666226e-01	
   4.9170000e+01	   5.7561365e-01	  -4.5912432e-01	   1.2576873e-01	
   4.9225000e+01	   5.7599166e-01	  -4.6442003e-01	   1.2418700e-01	
   4.9280000e+01	   5.7651573e-01	  -4.6889621e-01	   1.2180532e-01	
   4.9335000e+01	   5.7718036e-01	  -4.7249656e-01	   1.1849463e-01	
   4.9390000e+01	   5.7795174e-01	  -4.7518063e-01	   1.1412158e-01	
   4.9445000e+01	   5.7877370e-01	  -4.7692186e-01	   1.0856794e-01	
   4.9500000e+01	   5.7957878e-01	  -4.7770488e-01	   1.0175337e-01	
   4.9555000e+01	   5.8030147e-01	  -4.7752327e-01	   9.3656393e-02	
   4.9610000e+01	   5.8089005e-01	  -4.7637837e-01	   8.4328941e-02	
   4.9665000e+01	   5.8131516e-01	  -4.7427948e-01	   7.3903103e-02	
   4.9720000e+01	   5.8157426e-01	  -4.7124516e-01	   6.2589995e-02	
   4.9775000e+01	   5.8169151e-01	  -4.6730556e-01	   5.0670199e-02	
   4.9830000e+01	   5.8171284e-01	  -4.6250590e-01	   3.8475364e-02	
   4.9885000e+01	   5.8169679e-01	  -4.5691051e-01	   2.6362955e-02	
   4.9940000e+01	   5.8170307e-01	  -4.5060675e-01	   1.4688145e-02	
   4.9995000e+01	   5.8178034e-01	  -4.4370751e-01	   3.7765915e-03	
   5.0050000e+01	   5.8195481e-01	  -4.3635198e-01	  -6.0993670e-03	
   5.0105000e+01	   5.8222091e-01	  -4.2870454e-01	  -1.4738635e-02	
   5.0160000e+01	   5.8253633e-01	  -4.2095108e-01	  -2.2020792e-02	
   5.0215000e+01	   5.8282394e-01	  -4.1329261e-01	  -2.7905361e-02	
   5.0270000e+01	   5.8298181e-01	  -4.0593612e-01	  -3.2421289e-02	
   5.0325000e+01	   5.8289926e-01	  -3.9908393e-01	  -3.5649456e-02	
   5.0380000e+01	   5.8247506e-01	  -3.9292257e-01	  -3.7703092e-02	
   5.0435000e+01	   5.8163334e-01	  -3.8761258e-01	  -3.8710865e-02	
   5.0490000e+01	   5.8033449e-01	  -3.8328025e-01	  -3.8804711e-02	
   5.0545000e+01	   5.7858012e-01	  -3.8001132e-01	  -3.8111546e-02	
   5.0600000e+01	   5.7641243e-01	  -3.7784701e-01	  -3.6747863e-02	
   5.0655000e+01	   5.7390866e-01	  -3.7678322e-01	  -3.4817501e-02	
   5.0710000e+01	   5.7117091e-01	  -3.7677502e-01	  -3.2412765e-02	
   5.0765000e+01	   5.6831228e-01	  -3.7774588e-01	  -2.9617560e-02	
   5.0820000e+01	   5.6544116e-01	  -3.7959891e-01	  -2.6510645e-02	
   5.0875000e+01	   5.6264564e-01	  -3.8222748e-01	  -2.3168344e-02	
   5.0930000e+01	   5.5997934e-01	  -3.8552474e-01	  -1.9667589e-02	
   5.0985000e+01	   5.5745091e-01	  -3.8939191e-01	  -1.6089412e-02	
   5.1040000e+01	   5.5502064e-01	  -3.9374348e-01	  -1.2520686e-02	
   5.1095000e+01	   5.5260644e-01	  -3.9850673e-01	  -9.0518065e-03	
   5.1150000e+01	   5.5009793e-01	  -4.0361595e-01	  -5.7708326e-03	
   5.1205000e+01	   5.4737427e-01	  -4.0900432e-01	  -2.7563284e-03	
   5.1260000e+01	   5.4432097e-01	  -4.1459754e-01	  -7.0316895e-05	
   5.1315000e+01	   5.4084314e-01	  -4.2031180e-01	   2.2481429e-03	
   5.1370000e+01	   5.3687443e-01	  -4.2605698e-01	   4.1875962e-03	
   5.1425000e+01	   5.3238089e-01	  -4.3174311e-01	   5.7652101e-03	
   5.1480000e+01	   5.2735991e-01	  -4.3728827e-01	   7.0233232e-03	
   5.1535000e+01	   5.2183527e-01	  -4.4262701e-01	   8.0221426e-03	
   5.1590000e+01	   5.1584986e-01	  -4.4771925e-01	   8.8295588e-03	
   5.1645000e+01	   5.0945749e-01	  -4.5255843e-01	   9.5091110e-03	
   5.1700000e+01	   5.0271522e-01	  -4.5717611e-01	   1.0107551e-02	
   5.1755000e+01	   4.9567689e-01	  -4.6164169e-01	   1.0644015e-02	
   5.1810000e+01	   4.8838912e-01	  -4.6605789e-01	   1.1103687e-02	
   5.1865000e+01	   4.8089113e-01	  -4.7055278e-01	   1.1439196e-02	
   5.1920000e+01	   4.7322015e-01	  -4.7526854e-01	   1.1581064e-02	
   5.1975000e+01	   4.6542194e-01	  -4.8034809e-01	   1.1454806e-02	
   5.2030000e+01	   4.5756228e-01	  -4.8592223e-01	   1.0999602e-02	
   5.2085000e+01	   4.4973512e-01	  -4.9209942e-01	   1.0183874e-02	
   5.2140000e+01	   4.4206518e-01	  -4.9895859e-01	   9.0153109e-03	
   5.2195000e+01	   4.3470493e-01	  -5.0654465e-01	   7.5439607e-03	
   5.2250000e+01	   4.2782646e-01	  -5.1486785e-01	   5.8575508e-03	
   5.2305000e+01	   4.2160899e-01	  -5.2390795e-01	   4.0698769e-03	
   5.2360000e+01	   4.1622391e-01	  -5.3362217e-01	   2.3053318e-03	
   5.2415000e+01	   4.1181966e-01	  -5.4395491e-01	   6.8312762e-04	
   5.2470000e+01	   4.0850797e-01	  -5.5484658e-01	  -6.9631768e-04	
   5.2525000e+01	   4.0635363e-01	  -5.6623997e-01	  -1.7615023e-03	
   5.2580000e+01	   4.0537063e-01	  -5.7808123e-01	  -2.4754648e-03	
   5.2635000e+01	   4.0552680e-01	  -5.9031400e-01	  -2.8356762e-03	
   5.2690000e+01	   4.0675577e-01	  -6.0286773e-01	  -2.8676257e-03	
   5.2745000e+01	   4.0897245e-01	  -6.1564454e-01	  -2.6137964e-03	
   5.2800000e+01	   4.1208773e-01	  -6.2850828e-01	  -2.1213642e-03	
   5.2855000e+01	   4.1601961e-01	  -6.4127817e-01	  -1.4312203e-03	
   5.2910000e+01	   4.2069951e-01	  -6.5372936e-01	  -5.6992117e-04	
   5.2965000e+01	   4.2607327e-01	  -6.6560238e-01	   4.5387691e-04	
   5.3020000e+01	   4.3209669e-01	  -6.7662091e-01	   1.6477068e-03	
   5.3075000e+01	   4.3872648e-01	  -6.8651570e-01	   3.0289953e-03	
   5.3130000e+01	   4.4590850e-01	  -6.9505112e-01	   4.6156832e-03	
   5.3185000e+01	   4.5356630e-01	  -7.0205017e-01	   6.4159674e-03	
   5.3240000e+01	   4.6159246e-01	  -7.0741275e-01	   8.4203015e-03	
   5.3295000e+01	   4.6984467e-01	  -7.1112433e-01	   1.0598102e-02	
   5.3350000e+01	   4.7814726e-01	  -7.1325636e-01	   1.2899261e-02	
   5.3405000e+01	   4.8629921e-01	  -7.1395935e-01	   1.5259809e-02	
   5.3460000e+01	   4.9408922e-01	  -7.1344765e-01	   1.7612030e-02	
   5.3515000e+01	   5.0131611e-01	  -7.1197546e-01	   1.9898142e-02	
   5.3570000e+01	   5.0780957e-01	  -7.0980794e-01	   2.2083818e-02	
   5.3625000e+01	   5.1344625e-01	  -7.0719506e-01	   2.4167863e-02	
   5.3680000e+01	   5.1815853e-01	  -7.0435274e-01	   2.6187173e-02	
   5.3735000e+01	   5.2193656e-01	  -7.0145130e-01	   2.8217674e-02	
   5.3790000e+01	   5.2482443e-01	  -6.9860932e-01	   3.0370793e-02	
   5.3845000e+01	   5.2691142e-01	  -6.9589316e-01	   3.2783865e-02	
   5.3900000e+01	   5.2831937e-01	  -6.9332315e-01	   3.5603983e-02	
   5.3955000e+01	   5.2918739e-01	  -6.9088593e-01	   3.8967536e-02	
   5.4010000e+01	   5.2965565e-01	  -6.8855048e-01	   4.2979154e-02	
   5.4065000e+01	   5.2984973e-01	  -6.8628491e-01	   4.7692888e-02	
   5.4120000e+01	   5.2986773e-01	  -6.8407087e-01	   5.3097893e-02	
   5.4175000e+01	   5.2977292e-01	  -6.8191247e-01	   5.9111346e-02	
   5.4230000e+01	   5.2959355e-01	  -6.7983848e-01	   6.5580892e-02	
   5.4285000e+01	   5.2932966e-01	  -6.7789909e-01	   7.2297411e-02	
   5.4340000e+01	   5.2896415e-01	  -6.7615880e-01	   7.9016799e-02	
   5.4395000e+01	   5.2847516e-01	  -6.7468597e-01	   8.5486688e-02	
   5.4450000e+01	   5.2784664e-01	  -6.7354069e-01	   9.1472028e-02	
   5.4505000e+01	   5.2707530e-01	  -6.7276421e-01	   9.6774675e-02	
   5.4560000e+01	   5.2617295e-01	  -6.7237256e-01	   1.0124609e-01	
   5.4615000e+01	   5.2516394e-01	  -6.7235536e-01	   1.0479496e-01	
   5.4670000e+01	   5.2407857e-01	  -6.7267967e-01	   1.0739040e-01	
   5.4725000e+01	   5.2294325e-01	  -6.7329818e-01	   1.0905911e-01	
   5.4780000e+01	   5.2176905e-01	  -6.7416031e-01	   1.0987534e-01	
   5.4835000e+01	   5.2054059e-01	  -6.7522442e-01	   1.0994568e-01	
   5.4890000e+01	   5.1920678e-01	  -6.7646943e-01	   1.0939223e-01	
   5.4945000e+01	   5.1767546e-01	  -6.7790343e-01	   1.0833713e-01	
   5.5000000e+01	   5.1581411e-01	  -6.7956506e-01	   1.0689138e-01	
   5.5055000e+01	   5.1345845e-01	  -6.8151554e-01	   1.0515054e-01	
   5.5110000e+01	   5.1042789e-01	  -6.8382296e-01	   1.0319786e-01	
   5.5165000e+01	   5.0654483e-01	  -6.8654361e-01	   1.0111146e-01	
   5.5220000e+01	   5.0165412e-01	  -6.8970475e-01	   9.8971077e-02	
   5.5275000e+01	   4.9563936e-01	  -6.9329195e-01	   9.6861121e-02	
   5.5330000e+01	   4.8843338e-01	  -6.9724363e-01	   9.4869096e-02	
   5.5385000e+01	   4.8002141e-01	  -7.0145332e-01	   9.3080398e-02	
   5.5440000e+01	   4.7043755e-01	  -7.0577835e-01	   9.1571252e-02	
   5.5495000e+01	   4.5975644e-01	  -7.1005216e-01	   9.0401647e-02	
   5.5550000e+01	   4.4808179e-01	  -7.1409858e-01	   8.9609462e-02	
   5.5605000e+01	   4.3553330e-01	  -7.1774673e-01	   8.9206213e-02	
   5.5660000e+01	   4.2223341e-01	  -7.2084566e-01	   8.9174257e-02	
   5.5715000e+01	   4.0829596e-01	  -7.2327722e-01	   8.9465475e-02	
   5.5770000e+01	   3.9381848e-01	  -7.2496550e-01	   9.0002666e-02	
   5.5825000e+01	   3.7887980e-01	  -7.2588124e-01	   9.0685662e-02	
   5.5880000e+01	   3.6354369e-01	  -7.2603976e-01	   9.1403494e-02	
   5.5935000e+01	   3.4786816e-01	  -7.2549113e-01	   9.2051164e-02	
   5.5990000e+01	   3.3191705e-01	  -7.2430475e-01	   9.2546243e-02	
   5.6045000e+01	   3.1576978e-01	  -7.2255314e-01	   9.2840154e-02	
   5.6100000e+01	   2.9952652e-01	  -7.2029950e-01	   9.2922297e-02	
   5.6155000e+01	   2.8330918e-01	  -7.1759049e-01	   9.2817858e-02	
   5.6210000e+01	   2.6725888e-01	  -7.1445350e-01	   9.2580168e-02	
   5.6265000e+01	   2.5152980e-01	  -7.1089694e-01	   9.2278410e-02	
   5.6320000e+01	   2.3627974e-01	  -7.0691305e-01	   9.1982866e-02	
   5.6375000e+01	   2.2165910e-01	  -7.0248266e-01	   9.1750718e-02	
   5.6430000e+01	   2.0780064e-01	  -6.9758069e-01	   9.1615001e-02	
   5.6485000e+01	   1.9481190e-01	  -6.9218053e-01	   9.1579042e-02	
   5.6540000e+01	   1.8277195e-01	  -6.8625578e-01	   9.1618271e-02	
   5.6595000e+01	   1.7173347e-01	  -6.7977940e-01	   9.1689432e-02	
   5.6650000e+01	   1.6173007e-01	  -6.7272122e-01	   9.1745275e-02	
   5.6705000e+01	   1.5278589e-01	  -6.6504460e-01	   9.1752021e-02	
   5.6760000e+01	   1.4492464e-01	  -6.5670226e-01	   9.1706304e-02	
   5.6815000e+01	   1.3817605e-01	  -6.4763207e-01	   9.1647730e-02	
   5.6870000e+01	   1.3257945e-01	  -6.3775484e-01	   9.1663784e-02	
   5.6925000e+01	   1.2818399e-01	  -6.2697606e-01	   9.1886626e-02	
   5.6980000e+01	   1.2504587e-01	  -6.1519180e-01	   9.2484688e-02	
   5.7035000e+01	   1.2322241e-01	  -6.0229719e-01	   9.3652155e-02	
   5.7090000e+01	   1.2276373e-01	  -5.8819671e-01	   9.5596096e-02	
   5.7145000e+01	   1.2370300e-01	  -5.7281533e-01	   9.8519613e-02	
   5.7200000e+01	   1.2604840e-01	  -5.5610788e-01	   1.0260275e-01	
   5.7255000e+01	   1.2977969e-01	  -5.3806426e-01	   1.0798652e-01	
   5.7310000e+01	   1.3485091e-01	  -5.1871017e-01	   1.1476494e-01	
   5.7365000e+01	   1.4119846e-01	  -4.9810426e-01	   1.2298579e-01	
   5.7420000e+01	   1.4875202e-01	  -4.7633260e-01	   1.3265806e-01	
   5.7475000e+01	   1.5744561e-01	  -4.5350079e-01	   1.4376209e-01	
   5.7530000e+01	   1.6722598e-01	  -4.2972516e-01	   1.5625865e-01	
   5.7585000e+01	   1.7805671e-01	  -4.0512501e-01	   1.7009493e-01	
   5.7640000e+01	   1.8991748e-01	  -3.7981693e-01	   1.8520797e-01	
   5.7695000e+01	   2.0279924e-01	  -3.5391160e-01	   2.0152690e-01	
   5.7750000e+01	   2.1669559e-01	  -3.2751393e-01	   2.1897341e-01	
   5.7805000e+01	   2.3159166e-01	  -3.0072626e-01	   2.3746046e-01	
   5.7860000e+01	   2.4745246e-01	  -2.7365276e-01	   2.5689032e-01	
   5.7915000e+01	   2.6421337e-01	  -2.4640262e-01	   2.7715385e-01	
   5.7970000e+01	   2.8177450e-01	  -2.1909131e-01	   2.9813178e-01	
   5.8025000e+01	   3.0000055e-01	  -1.9183876e-01	   3.1969882e-01	
   5.8080000e+01	   3.1872763e-01	  -1.6476316e-01	   3.4173280e-01	
   5.8135000e+01	   3.3777623e-01	  -1.3797052e-01	   3.6412999e-01	
   5.8190000e+01	   3.5696641e-01	  -1.1154315e-01	   3.8682237e-01	
   5.8245000e+01	   3.7613090e-01	  -8.5530371e-02	   4.0978957e-01	
   5.8300000e+01	   3.9512311e-01	  -5.9944458e-02	   4.3305952e-01	
   5.8355000e+01	   4.1381938e-01	  -3.4762551e-02	   4.5669773e-01	
   5.8410000e+01	   4.3211606e-01	  -9.9344505e-03	   4.8078920e-01	
   5.8465000e+01	   4.4992275e-01	   1.4605258e-02	   5.0541845e-01	
   5.8520000e+01	   4.6715368e-01	   3.8922873e-02	   5.3065096e-01	
   5.8575000e+01	   4.8371843e-01	   6.3071184e-02	   5.5651680e-01	
   5.8630000e+01	   4.9951287e-01	   8.7076370e-02	   5.8299630e-01	
   5.8685000e+01	   5.1441211e-01	   1.1092686e-01	   6.1000920e-01	
   5.8740000e+01	   5.2826789e-01	   1.3456538e-01	   6.3741043e-01	
   5.8795000e+01	   5.4091334e-01	   1.5788662e-01	   6.6499610e-01	
   5.8850000e+01	   5.5217523e-01	   1.8074255e-01	   6.9252063e-01	
   5.8905000e+01	   5.6189170e-01	   2.0295595e-01	   7.1972257e-01	
   5.8960000e+01	   5.6993187e-01	   2.2434028e-01	   7.4635349e-01	
   5.9015000e+01	   5.7621385e-01	   2.4472232e-01	   7.7220432e-01	
   5.9070000e+01	   5.8071876e-01	   2.6396209e-01	   7.9712451e-01	
   5.9125000e+01	   5.8349834e-01	   2.8196444e-01	   8.2103152e-01	
   5.9180000e+01	   5.8467505e-01	   2.9868047e-01	   8.4390979e-01	
   5.9235000e+01	   5.8443480e-01	   3.1410169e-01	   8.6580051e-01	
   5.9290000e+01	   5.8301352e-01	   3.2825058e-01	   8.8678437e-01	
   5.9345000e+01	   5.8067930e-01	   3.4117067e-01	   9.0696026e-01	
   5.9400000e+01	   5.7771245e-01	   3.5291749e-01	   9.2642405e-01	
   5.9455000e+01	   5.7438597e-01	   3.6355144e-01	   9.4525171e-01	
   5.9510000e+01	   5.7094843e-01	   3.7313237e-01	   9.6348854e-01	
   5.9565000e+01	   5.6761049e-01	   3.8171567e-01	   9.8114334e-01	
   5.9620000e+01	   5.6453658e-01	   3.8935015e-01	   9.9818641e-01	
   5.9675000e+01	   5.6184363e-01	   3.9607901e-01	   1.0145525e+00	
   5.9730000e+01	   5.5960683e-01	   4.0194398e-01	   1.0301507e+00	
   5.9785000e+01	   5.5786980e-01	   4.0699158e-01	   1.0448800e+00	
   5.9840000e+01	   5.5665536e-01	   4.1127946e-01	   1.0586453e+00	
   5.9895000e+01	   5.5597390e-01	   4.1488036e-01	   1.0713707e+00	
   5.9950000e+01	   5.5582796e-01	   4.1788123e-01	   1.0830079e+00	
   6.0005000e+01	   5.5621312e-01	   4.2037744e-01	   1.0935392e+00	
   6.0060000e+01	   5.5711601e-01	   4.2246469e-01	   1.1029753e+00	
   6.0115000e+01	   5.5851023e-01	   4.2423106e-01	   1.1113494e+00	
   6.0170000e+01	   5.6035102e-01	   4.2575043e-01	   1.1187091e+00	
   6.0225000e+01	   5.6256896e-01	   4.2707683e-01	   1.1251074e+00	
   6.0280000e+01	   5.6506339e-01	   4.2823961e-01	   1.1305955e+00	
   6.0335000e+01	   5.6769739e-01	   4.2923986e-01	   1.1352171e+00	
   6.0390000e+01	   5.7029560e-01	   4.3004794e-01	   1.1390059e+00	
   6.0445000e+01	   5.7264630e-01	   4.3060269e-01	   1.1419839e+00	
   6.0500000e+01	   5.7450891e-01	   4.3081364e-01	   1.1441609e+00	
   6.0555000e+01	   5.7562774e-01	   4.3056783e-01	   1.1455387e+00	
   6.0610000e+01	   5.7575063e-01	   4.2974090e-01	   1.1461206e+00	
   6.0665000e+01	   5.7464925e-01	   4.2821032e-01	   1.1459217e+00	
   6.0720000e+01	   5.7213770e-01	   4.2586873e-01	   1.1449782e+00	
   6.0775000e+01	   5.6808738e-01	   4.2263534e-01	   1.1433546e+00	
   6.0830000e+01	   5.6243656e-01	   4.1846455e-01	   1.1411460e+00	
   6.0885000e+01	   5.5519363e-01	   4.1335077e-01	   1.1384741e+00	
   6.0940000e+01	   5.4643400e-01	   4.0732974e-01	   1.1354771e+00	
   6.0995000e+01	   5.3629183e-01	   4.0047532e-01	   1.1322957e+00	
   6.1050000e+01	   5.2494770e-01	   3.9289133e-01	   1.1290567e+00	
   6.1105000e+01	   5.1261309e-01	   3.8469937e-01	   1.1258559e+00	
   6.1160000e+01	   4.9951287e-01	   3.7602612e-01	   1.1227430e+00	
   6.1215000e+01	   4.8586880e-01	   3.6699272e-01	   1.1197121e+00	
   6.1270000e+01	   4.7188663e-01	   3.5770726e-01	   1.1166958e+00	
   6.1325000e+01	   4.5774946e-01	   3.4826204e-01	   1.1135683e+00	
   6.1380000e+01	   4.4361907e-01	   3.3873670e-01	   1.1101566e+00	
   6.1435000e+01	   4.2964442e-01	   3.2920577e-01	   1.1062607e+00	
   6.1490000e+01	   4.1597289e-01	   3.1974690e-01	   1.1016792e+00	
   6.1545000e+01	   4.0275942e-01	   3.1044671e-01	   1.0962339e+00	
   6.1600000e+01	   3.9017013e-01	   3.0140379e-01	   1.0897916e+00	
   6.1655000e+01	   3.7837998e-01	   2.9272760e-01	   1.0822784e+00	
   6.1710000e+01	   3.6756500e-01	   2.8453254e-01	   1.0736843e+00	
   6.1765000e+01	   3.5789046e-01	   2.7692731e-01	   1.0640580e+00	
   6.1820000e+01	   3.4949646e-01	   2.7000240e-01	   1.0534949e+00	
   6.1875000e+01	   3.4248315e-01	   2.6381835e-01	   1.0421233e+00	
   6.1930000e+01	   3.3689765e-01	   2.5839592e-01	   1.0300916e+00	
   6.1985000e+01	   3.3272469e-01	   2.5370775e-01	   1.0175567e+00	
   6.2040000e+01	   3.2988259e-01	   2.4967229e-01	   1.0046742e+00	
   6.2095000e+01	   3.2822615e-01	   2.4615255e-01	   9.9159058e-01	
   6.2150000e+01	   3.2755715e-01	   2.4296203e-01	   9.7843672e-01	
   6.2205000e+01	   3.2764185e-01	   2.3987823e-01	   9.6532536e-01	
   6.2260000e+01	   3.2823303e-01	   2.3666239e-01	   9.5235125e-01	
   6.2315000e+01	   3.2909267e-01	   2.3308195e-01	   9.3959470e-01	
   6.2370000e+01	   3.3001144e-01	   2.2893140e-01	   9.2712665e-01	
   6.2425000e+01	   3.3082210e-01	   2.2404882e-01	   9.1501284e-01	
   6.2480000e+01	   3.3140599e-01	   2.1832700e-01	   9.0331540e-01	
   6.2535000e+01	   3.3169255e-01	   2.1171803e-01	   8.9209028e-01	
   6.2590000e+01	   3.3165258e-01	   2.0423068e-01	   8.8138059e-01	
   6.2645000e+01	   3.3128646e-01	   1.9592125e-01	   8.7120621e-01	
   6.2700000e+01	   3.3060936e-01	   1.8688015e-01	   8.6155199e-01	
   6.2755000e+01	   3.2963614e-01	   1.7721609e-01	   8.5235833e-01	
   6.2810000e+01	   3.2836758e-01	   1.6703934e-01	   8.4351790e-01	
   6.2865000e+01	   3.2677941e-01	   1.5644627e-01	   8.3487926e-01	
   6.2920000e+01	   3.2481570e-01	   1.4550769e-01	   8.2625660e-01	
   6.2975000e+01	   3.2238840e-01	   1.3426342e-01	   8.1744456e-01	
   6.3030000e+01	   3.1938412e-01	   1.2272341e-01	   8.0823801e-01	
   6.3085000e+01	   3.1567795e-01	   1.1087412e-01	   7.9845511e-01	
   6.3140000e+01	   3.1115174e-01	   9.8687453e-02	   7.8796102e-01	
   6.3195000e+01	   3.0571347e-01	   8.6129453e-02	   7.7668804e-01	
   6.3250000e+01	   2.9931379e-01	   7.3167450e-02	   7.6464797e-01	
   6.3305000e+01	   2.9195645e-01	   5.9775556e-02	   7.5193369e-01	
   6.3360000e+01	   2.8370145e-01	   4.5939311e-02	   7.3870985e-01	
   6.3415000e+01	   2.7466044e-01	   3.1659126e-02	   7.2519463e-01	
   6.3470000e+01	   2.6498557e-01	   1.6950178e-02	   7.1163679e-01	
   6.3525000e+01	   2.5485290e-01	   1.8362526e-03	   6.9829230e-01	
   6.3580000e+01	   2.4444320e-01	  -1.3661462e-02	   6.8540305e-01	
   6.3635000e+01	   2.3392312e-01	  -2.9536573e-02	   6.7317740e-01	
   6.3690000e+01	   2.2342866e-01	  -4.5807858e-02	   6.6177168e-01	
   6.3745000e+01	   2.1305224e-01	  -6.2527207e-02	   6.5127328e-01	
   6.3800000e+01	   2.0283465e-01	  -7.9783814e-02	   6.4168838e-01	
   6.3855000e+01	   1.9276372e-01	  -9.7702116e-02	   6.3293822e-01	
   6.3910000e+01	   1.8278091e-01	  -1.1643231e-01	   6.2486623e-01	
   6.3965000e+01	   1.7279512e-01	  -1.3613488e-01	   6.1725498e-01	
   6.4020000e+01	   1.6270094e-01	  -1.5696237e-01	   6.0984875e-01	
   6.4075000e+01	   1.5239679e-01	  -1.7904170e-01	   6.0237709e-01	
   6.4130000e+01	   1.4179955e-01	  -2.0245824e-01	   5.9457664e-01	
   6.4185000e+01	   1.3085387e-01	  -2.2724169e-01	   5.8621005e-01	
   6.4240000e+01	   1.1953663e-01	  -2.5335436e-01	   5.7708103e-01	
   6.4295000e+01	   1.0785683e-01	  -2.8068466e-01	   5.6704429e-01	
   6.4350000e+01	   9.5850824e-02	  -3.0904884e-01	   5.5600896e-01	
   6.4405000e+01	   8.3573892e-02	  -3.3820161e-01	   5.4393535e-01	
   6.4460000e+01	   7.1090067e-02	  -3.6785353e-01	   5.3082606e-01	
   6.4515000e+01	   5.8462977e-02	  -3.9769216e-01	   5.1671366e-01	
   6.4570000e+01	   4.5749285e-02	  -4.2740484e-01	   5.0164739e-01	
   6.4625000e+01	   3.2995566e-02	  -4.5670051e-01	   4.8568261e-01	
   6.4680000e+01	   2.0239471e-02	  -4.8532643e-01	   4.6887711e-01	
   6.4735000e+01	   7.5155677e-03	  -5.1307518e-01	   4.5129524e-01	
   6.4790000e+01	  -5.1356586e-03	  -5.3978012e-01	   4.3301595e-01	
   6.4845000e+01	  -1.7658473e-02	  -5.6530178e-01	   4.1414041e-01	
   6.4900000e+01	  -2.9974510e-02	  -5.8950994e-01	   3.9479712e-01	
   6.4955000e+01	  -4.1978594e-02	  -6.1226681e-01	   3.7514432e-01	
   6.5010000e+01	  -5.3538881e-02	  -6.3341514e-01	   3.5536852e-01	
   6.5065000e+01	  -6.4501993e-02	  -6.5277277e-01	   3.3567805e-01	
   6.5120000e+01	  -7.4702393e-02	  -6.7013280e-01	   3.1629262e-01	
   6.5175000e+01	  -8.3974271e-02	  -6.8526800e-01	   2.9743022e-01	
   6.5230000e+01	  -9.2164500e-02	  -6.9793900e-01	   2.7929151e-01	
   6.5285000e+01	  -9.9145417e-02	  -7.0790551e-01	   2.6204229e-01	
   6.5340000e+01	  -1.0482555e-01	  -7.1493921e-01	   2.4579795e-01	
   6.5395000e+01	  -1.0915600e-01	  -7.1883597e-01	   2.3061447e-01	
   6.5450000e+01	  -1.1213068e-01	  -7.1942546e-01	   2.1648894e-01	
   6.5505000e+01	  -1.1377990e-01	  -7.1657681e-01	   2.0337032e-01	
   6.5560000e+01	  -1.1415835e-01	  -7.1020055e-01	   1.9117872e-01	
   6.5615000e+01	  -1.1333047e-01	  -7.0024907e-01	   1.7982854e-01	
   6.5670000e+01	  -1.1135723e-01	  -6.8671836e-01	   1.6924757e-01	
   6.5725000e+01	  -1.0828742e-01	  -6.6965213e-01	   1.5938694e-01	
   6.5780000e+01	  -1.0415465e-01	  -6.4914797e-01	   1.5022197e-01	
   6.5835000e+01	  -9.8980433e-02	  -6.2536390e-01	   1.4174696e-01	
   6.5890000e+01	  -9.2783197e-02	  -5.9852442e-01	   1.3396633e-01	
   6.5945000e+01	  -8.5592235e-02	  -5.6892693e-01	   1.2688316e-01	
   6.6000000e+01	  -7.7463508e-02	  -5.3694893e-01	   1.2048724e-01	
   6.6055000e+01	  -6.8494327e-02	  -5.0305473e-01	   1.1474583e-01	
   6.6110000e+01	  -5.8835503e-02	  -4.6779877e-01	   1.0959805e-01	
   6.6165000e+01	  -4.8699977e-02	  -4.3182271e-01	   1.0495166e-01	
   6.6220000e+01	  -3.8365698e-02	  -3.9584396e-01	   1.0068181e-01	
   6.6275000e+01	  -2.8169502e-02	  -3.6063523e-01	   9.6634070e-02	
   6.6330000e+01	  -1.8489819e-02	  -3.2699574e-01	   9.2634673e-02	
   6.6385000e+01	  -9.7193973e-03	  -2.9571577e-01	   8.8506685e-02	
   6.6440000e+01	  -2.2329698e-03	  -2.6753678e-01	   8.4088517e-02	
   6.6495000e+01	   3.6435184e-03	  -2.4311069e-01	   7.9250366e-02	
   6.6550000e+01	   7.6570162e-03	  -2.2296329e-01	   7.3905602e-02	
   6.6605000e+01	   9.6427470e-03	  -2.0746669e-01	   6.8016475e-02	
   6.6660000e+01	   9.5312159e-03	  -1.9682309e-01	   6.1595313e-02	
   6.6715000e+01	   7.3477792e-03	  -1.9106009e-01	   5.4701727e-02	
   6.6770000e+01	   3.2052924e-03	  -1.9003690e-01	   4.7434582e-02	
   6.6825000e+01	  -2.7096153e-03	  -1.9345985e-01	   3.9917754e-02	
   6.6880000e+01	  -1.0155382e-02	  -2.0090478e-01	   3.2280913e-02	
   6.6935000e+01	  -1.8857547e-02	  -2.1184362e-01	   2.4638583e-02	
   6.6990000e+01	  -2.8531878e-02	  -2.2567466e-01	   1.7071906e-02	
   6.7045000e+01	  -3.8906459e-02	  -2.4175592e-01	   9.6173223e-03	
   6.7100000e+01	  -4.9740182e-02	  -2.5943965e-01	   2.2642985e-03	
   6.7155000e+01	  -6.0834840e-02	  -2.7810394e-01	  -5.0385907e-03	
   6.7210000e+01	  -7.2038844e-02	  -2.9717670e-01	  -1.2371527e-02	
   6.7265000e+01	  -8.3242435e-02	  -3.1614975e-01	  -1.9827748e-02	
   6.7320000e+01	  -9.4366584e-02	  -3.3458366e-01	  -2.7496506e-02	
   6.7375000e+01	  -1.0534924e-01	  -3.5210723e-01	  -3.5447005e-02	
   6.7430000e+01	  -1.1613242e-01	  -3.6841536e-01	  -4.3715422e-02	
   6.7485000e+01	  -1.2665221e-01	  -3.8326769e-01	  -5.2295785e-02	
   6.7540000e+01	  -1.3683213e-01	  -3.9648820e-01	  -6.1134185e-02	
   6.7595000e+01	  -1.4658059e-01	  -4.0796483e-01	  -7.0126755e-02	
   6.7650000e+01	  -1.5579324e-01	  -4.1764792e-01	  -7.9123697e-02	
   6.7705000e+01	  -1.6436057e-01	  -4.2554767e-01	  -8.7941228e-02	
   6.7760000e+01	  -1.7217857e-01	  -4.3173004e-01	  -9.6380262e-02	
   6.7815000e+01	  -1.7916001e-01	  -4.3630981e-01	  -1.0424824e-01	
   6.7870000e+01	  -1.8524381e-01	  -4.3944075e-01	  -1.1138013e-01	
   6.7925000e+01	  -1.9040072e-01	  -4.4130236e-01	  -1.1765526e-01	
   6.7980000e+01	  -1.9463309e-01	  -4.4208244e-01	  -1.2300740e-01	
   6.8035000e+01	  -1.9796869e-01	  -4.4195580e-01	  -1.2742688e-01	
   6.8090000e+01	  -2.0044969e-01	  -4.4106300e-01	  -1.3095445e-01	
   6.8145000e+01	  -2.0211946e-01	  -4.3949374e-01	  -1.3366792e-01	
   6.8200000e+01	  -2.0300974e-01	  -4.3727815e-01	  -1.3566449e-01	
   6.8255000e+01	  -2.0313095e-01	  -4.3438656e-01	  -1.3704285e-01	
   6.8310000e+01	  -2.0246793e-01	  -4.3073601e-01	  -1.3788921e-01	
   6.8365000e+01	  -2.0098182e-01	  -4.2619940e-01	  -1.3826976e-01	
   6.8420000e+01	  -1.9861682e-01	  -4.2061467e-01	  -1.3823024e-01	
   6.8475000e+01	  -1.9531037e-01	  -4.1379498e-01	  -1.3780095e-01	
   6.8530000e+01	  -1.9100498e-01	  -4.0554147e-01	  -1.3700530e-01	
   6.8585000e+01	  -1.8566004e-01	  -3.9565702e-01	  -1.3587070e-01	
   6.8640000e+01	  -1.7926218e-01	  -3.8395938e-01	  -1.3443950e-01	
   6.8695000e+01	  -1.7183278e-01	  -3.7029341e-01	  -1.3277761e-01	
   6.8750000e+01	  -1.6343178e-01	  -3.5454186e-01	  -1.3097813e-01	
   6.8805000e+01	  -1.5415613e-01	  -3.3663238e-01	  -1.2915790e-01	
   6.8860000e+01	  -1.4413213e-01	  -3.1654003e-01	  -1.2744642e-01	
   6.8915000e+01	  -1.3350320e-01	  -2.9428743e-01	  -1.2596942e-01	
   6.8970000e+01	  -1.2241645e-01	  -2.6994408e-01	  -1.2483152e-01	
   6.9025000e+01	  -1.1101115e-01	  -2.4362385e-01	  -1.2410215e-01	
   6.9080000e+01	  -9.9410819e-02	  -2.1548010e-01	  -1.2380810e-01	
   6.9135000e+01	  -8.7720537e-02	  -1.8569905e-01	  -1.2393406e-01	
   6.9190000e+01	  -7.6029926e-02	  -1.5449332e-01	  -1.2443056e-01	
   6.9245000e+01	  -6.4421037e-02	  -1.2209778e-01	  -1.2522559e-01	
   6.9300000e+01	  -5.2978980e-02	  -8.8768503e-02	  -1.2623708e-01	
   6.9355000e+01	  -4.1803019e-02	  -5.4784731e-02	  -1.2738551e-01	
   6.9410000e+01	  -3.1016068e-02	  -2.0452466e-02	  -1.2860680e-01	
   6.9465000e+01	  -2.0770473e-02	   1.3892515e-02	  -1.2986349e-01	
   6.9520000e+01	  -1.1248578e-02	   4.7885236e-02	  -1.3115111e-01	
   6.9575000e+01	  -2.6577994e-03	   8.1138099e-02	  -1.3249846e-01	
   6.9630000e+01	   4.7798246e-03	   1.1325423e-01	  -1.3396126e-01	
   6.9685000e+01	   1.0843649e-02	   1.4384670e-01	  -1.3561000e-01	
   6.9740000e+01	   1.5334871e-02	   1.7256041e-01	  -1.3751438e-01	
   6.9795000e+01	   1.8098030e-02	   1.9909154e-01	  -1.3972913e-01	
   6.9850000e+01	   1.9039211e-02	   2.2320012e-01	  -1.4228462e-01	
   6.9905000e+01	   1.8137949e-02	   2.4471446e-01	  -1.4518318e-01	
   6.9960000e+01	   1.5452059e-02	   2.6352926e-01	  -1.4839996e-01	
   7.0015000e+01	   1.1115795e-02	   2.7959883e-01	  -1.5188737e-01	
   7.0070000e+01	   5.3315261e-03	   2.9292700e-01	  -1.5558241e-01	
   7.0125000e+01	  -1.6447708e-03	   3.0355551e-01	  -1.5941543e-01	
   7.0180000e+01	  -9.5229852e-03	   3.1155324e-01	  -1.6331850e-01	
   7.0235000e+01	  -1.8001314e-02	   3.1700733e-01	  -1.6723192e-01	
   7.0290000e+01	  -2.6789605e-02	   3.2001542e-01	  -1.7110794e-01	
   7.0345000e+01	  -3.5631434e-02	   3.2067917e-01	  -1.7491177e-01	
   7.0400000e+01	  -4.4321972e-02	   3.1910045e-01	  -1.7862107e-01	
   7.0455000e+01	  -5.2718305e-02	   3.1538207e-01	  -1.8222478e-01	
   7.0510000e+01	  -6.0740361e-02	   3.0963390e-01	  -1.8572089e-01	
   7.0565000e+01	  -6.8363155e-02	   3.0198292e-01	  -1.8911189e-01	
   7.0620000e+01	  -7.5603098e-02	   2.9258356e-01	  -1.9239830e-01	
   7.0675000e+01	  -8.2501967e-02	   2.8162397e-01	  -1.9557288e-01	
   7.0730000e+01	  -8.9111722e-02	   2.6932649e-01	  -1.9861800e-01	
   7.0785000e+01	  -9.5482256e-02	   2.5594393e-01	  -2.0150685e-01	
   7.0840000e+01	  -1.0165298e-01	   2.4175347e-01	  -2.0420785e-01	
   7.0895000e+01	  -1.0764865e-01	   2.2704904e-01	  -2.0669141e-01	
   7.0950000e+01	  -1.1347939e-01	   2.1213208e-01	  -2.0893791e-01	
   7.1005000e+01	  -1.1914438e-01	   1.9730084e-01	  -2.1094469e-01	
   7.1060000e+01	  -1.2463767e-01	   1.8283884e-01	  -2.1273015e-01	
   7.1115000e+01	  -1.2995444e-01	   1.6900299e-01	  -2.1433424e-01	
   7.1170000e+01	  -1.3509640e-01	   1.5601233e-01	  -2.1581572e-01	
   7.1225000e+01	  -1.4007482e-01	   1.4403980e-01	  -2.1724758e-01	
   7.1280000e+01	  -1.4490981e-01	   1.3321039e-01	  -2.1871104e-01	
   7.1335000e+01	  -1.4962536e-01	   1.2360649e-01	  -2.2028807e-01	
   7.1390000e+01	  -1.5424084e-01	   1.1527865e-01	  -2.2205285e-01	
   7.1445000e+01	  -1.5876076e-01	   1.0825803e-01	  -2.2406342e-01	
   7.1500000e+01	  -1.6316521e-01	   1.0256833e-01	  -2.2635573e-01	
   7.1555000e+01	  -1.6740348e-01	   9.8234407e-02	  -2.2894209e-01	
   7.1610000e+01	  -1.7139266e-01	   9.5286579e-02	  -2.3181479e-01	
   7.1665000e+01	  -1.7502132e-01	   9.3760573e-02	  -2.3495366e-01	
   7.1720000e+01	  -1.7815803e-01	   9.3693505e-02	  -2.3833613e-01	
   7.1775000e+01	  -1.8066477e-01	   9.5115356e-02	  -2.4194824e-01	
   7.1830000e+01	  -1.8241460e-01	   9.8037134e-02	  -2.4579484e-01	
   7.1885000e+01	  -1.8331052e-01	   1.0243938e-01	  -2.4990677e-01	
   7.1940000e+01	  -1.8330189e-01	   1.0826438e-01	  -2.5434422e-01	
   7.1995000e+01	  -1.8239657e-01	   1.1541294e-01	  -2.5919638e-01	
   7.2050000e+01	  -1.8066784e-01	   1.2374538e-01	  -2.6457779e-01	
   7.2105000e+01	  -1.7825474e-01	   1.3308621e-01	  -2.7062113e-01	
   7.2160000e+01	  -1.7535398e-01	   1.4323207e-01	  -2.7746473e-01	
   7.2215000e+01	  -1.7220368e-01	   1.5396132e-01	  -2.8523476e-01	
   7.2270000e+01	  -1.6906112e-01	   1.6504435e-01	  -2.9402387e-01	
   7.2325000e+01	  -1.6617826e-01	   1.7625414e-01	  -3.0387003e-01	
   7.2380000e+01	  -1.6377950e-01	   1.8737731e-01	  -3.1473991e-01	
   7.2435000e+01	  -1.6204559e-01	   1.9822455e-01	  -3.2652029e-01	
   7.2490000e+01	  -1.6110466e-01	   2.0863910e-01	  -3.3901952e-01	
   7.2545000e+01	  -1.6102984e-01	   2.1850208e-01	  -3.5197827e-01	
   7.2600000e+01	  -1.6184228e-01	   2.2773393e-01	  -3.6508733e-01	
   7.2655000e+01	  -1.6351899e-01	   2.3629134e-01	  -3.7801004e-01	
   7.2710000e+01	  -1.6600432e-01	   2.4416054e-01	  -3.9040716e-01	
   7.2765000e+01	  -1.6922376e-01	   2.5134897e-01	  -4.0196171e-01	
   7.2820000e+01	  -1.7309887e-01	   2.5787805e-01	  -4.1240148e-01	
   7.2875000e+01	  -1.7756236e-01	   2.6377768e-01	  -4.2151714e-01	
   7.2930000e+01	  -1.8257197e-01	   2.6908163e-01	  -4.2917397e-01	
   7.2985000e+01	  -1.8812063e-01	   2.7382338e-01	  -4.3531560e-01	
   7.3040000e+01	  -1.9424014e-01	   2.7803328e-01	  -4.3995949e-01	
   7.3095000e+01	  -2.0099662e-01	   2.8173796e-01	  -4.4318565e-01	
   7.3150000e+01	  -2.0847821e-01	   2.8496192e-01	  -4.4512052e-01	
   7.3205000e+01	  -2.1677784e-01	   2.8773048e-01	  -4.4591854e-01	
   7.3260000e+01	  -2.2597502e-01	   2.9007103e-01	  -4.4574503e-01	
   7.3315000e+01	  -2.3612041e-01	   2.9201000e-01	  -4.4476368e-01	
   7.3370000e+01	  -2.4722539e-01	   2.9356600e-01	  -4.4313028e-01	
   7.3425000e+01	  -2.5925727e-01	   2.9474269e-01	  -4.4099063e-01	
   7.3480000e+01	  -2.7214005e-01	   2.9552391e-01	  -4.3847986e-01	
   7.3535000e+01	  -2.8576009e-01	   2.9587155e-01	  -4.3572256e-01	
   7.3590000e+01	  -2.9997615e-01	   2.9572593e-01	  -4.3283458e-01	
   7.3645000e+01	  -3.1463277e-01	   2.9500852e-01	  -4.2992643e-01	
   7.3700000e+01	  -3.2957578e-01	   2.9362637e-01	  -4.2710757e-01	
   7.3755000e+01	  -3.4466779e-01	   2.9147681e-01	  -4.2449127e-01	
   7.3810000e+01	  -3.5980125e-01	   2.8845103e-01	  -4.2219980e-01	
   7.3865000e+01	  -3.7490656e-01	   2.8443619e-01	  -4.2036853e-01	
   7.3920000e+01	  -3.8995310e-01	   2.7931783e-01	  -4.1914669e-01	
   7.3975000e+01	  -4.0494216e-01	   2.7298455e-01	  -4.1869238e-01	
   7.4030000e+01	  -4.1989293e-01	   2.6533664e-01	  -4.1916043e-01	
   7.4085000e+01	  -4.3482454e-01	   2.5629866e-01	  -4.2068432e-01	
   7.4140000e+01	  -4.4973826e-01	   2.4583373e-01	  -4.2335697e-01	
   7.4195000e+01	  -4.6460346e-01	   2.3395650e-01	  -4.2721604e-01	
   7.4250000e+01	  -4.7934916e-01	   2.2074097e-01	  -4.3223730e-01	
   7.4305000e+01	  -4.9386122e-01	   2.0632158e-01	  -4.3833649e-01	
   7.4360000e+01	  -5.0798438e-01	   1.9088770e-01	  -4.4537755e-01	
   7.4415000e+01	  -5.2152902e-01	   1.7467255e-01	  -4.5318470e-01	
   7.4470000e+01	  -5.3428264e-01	   1.5793830e-01	  -4.6155668e-01	
   7.4525000e+01	  -5.4602440e-01	   1.4096035e-01	  -4.7028196e-01	
   7.4580000e+01	  -5.5654074e-01	   1.2401371e-01	  -4.7915339e-01	
   7.4635000e+01	  -5.6563982e-01	   1.0736219e-01	  -4.8798079e-01	
   7.4690000e+01	  -5.7316325e-01	   9.1249269e-02	  -4.9660010e-01	
   7.4745000e+01	  -5.7899275e-01	   7.5891174e-02	  -5.0487792e-01	
   7.4800000e+01	  -5.8305077e-01	   6.1474933e-02	  -5.1271069e-01	
   7.4855000e+01	  -5.8529531e-01	   4.8162268e-02	  -5.2001906e-01	
   7.4910000e+01	  -5.8571138e-01	   3.6096482e-02	  -5.2673953e-01	
   7.4965000e+01	  -5.8430240e-01	   2.5408146e-02	  -5.3281709e-01	
   7.5020000e+01	  -5.8108413e-01	   1.6217798e-02	  -5.3820218e-01	
   7.5075000e+01	  -5.7608314e-01	   8.6363296e-03	  -5.4285352e-01	
   7.5130000e+01	  -5.6933988e-01	   2.7637542e-03	  -5.4674460e-01	
   7.5185000e+01	  -5.6091521e-01	  -1.3137266e-03	  -5.4987045e-01	
   7.5240000e+01	  -5.5089824e-01	  -3.5282640e-03	  -5.5225245e-01	
   7.5295000e+01	  -5.3941401e-01	  -3.8357665e-03	  -5.5394194e-01	
   7.5350000e+01	  -5.2662951e-01	  -2.2211133e-03	  -5.5502329e-01	
   7.5405000e+01	  -5.1275653e-01	   1.2978096e-03	  -5.5561440e-01	
   7.5460000e+01	  -4.9805001e-01	   6.6682526e-03	  -5.5586183e-01	
   7.5515000e+01	  -4.8280054e-01	   1.3804384e-02	  -5.5592976e-01	
   7.5570000e+01	  -4.6731998e-01	   2.2594350e-02	  -5.5598471e-01	
   7.5625000e+01	  -4.5192060e-01	   3.2912586e-02	  -5.5617837e-01	
   7.5680000e+01	  -4.3689101e-01	   4.4634269e-02	  -5.5663105e-01	
   7.5735000e+01	  -4.2247337e-01	   5.7647442e-02	  -5.5741778e-01	
   7.5790000e+01	  -4.0884575e-01	   7.1860022e-02	  -5.5855850e-01	
   7.5845000e+01	  -3.9611180e-01	   8.7201012e-02	  -5.6001397e-01	
   7.5900000e+01	  -3.8429881e-01	   1.0361586e-01	  -5.6169107e-01	
   7.5955000e+01	  -3.7336407e-01	   1.2105701e-01	  -5.6345895e-01	
   7.6010000e+01	  -3.6320721e-01	   1.3947317e-01	  -5.6517151e-01	
   7.6065000e+01	  -3.5368609e-01	   1.5880101e-01	  -5.6668897e-01	
   7.6120000e+01	  -3.4463422e-01	   1.7895996e-01	  -5.6789457e-01	
   7.6175000e+01	  -3.3587895e-01	   1.9984836e-01	  -5.6870634e-01	
   7.6230000e+01	  -3.2725867e-01	   2.2133952e-01	  -5.6908370e-01	
   7.6285000e+01	  -3.1863698e-01	   2.4327808e-01	  -5.6902752e-01	
   7.6340000e+01	  -3.0991240e-01	   2.6547762e-01	  -5.6857285e-01	
   7.6395000e+01	  -3.0102156e-01	   2.8772155e-01	  -5.6777391e-01	
   7.6450000e+01	  -2.9193472e-01	   3.0976946e-01	  -5.6668267e-01	
   7.6505000e+01	  -2.8264481e-01	   3.3136975e-01	  -5.6532499e-01	
   7.6560000e+01	  -2.7315368e-01	   3.5227662e-01	  -5.6368060e-01	
   7.6615000e+01	  -2.6346004e-01	   3.7226754e-01	  -5.6167278e-01	
   7.6670000e+01	  -2.5355147e-01	   3.9115746e-01	  -5.5916995e-01	
   7.6725000e+01	  -2.4340149e-01	   4.0880793e-01	  -5.5599763e-01	
   7.6780000e+01	  -2.3297126e-01	   4.2513179e-01	  -5.5195686e-01	
   7.6835000e+01	  -2.2221514e-01	   4.4009618e-01	  -5.4684505e-01	
   7.6890000e+01	  -2.1108895e-01	   4.5372506e-01	  -5.4047610e-01	
   7.6945000e+01	  -1.9955990e-01	   4.6610013e-01	  -5.3269885e-01	
   7.7000000e+01	  -1.8761722e-01	   4.7735706e-01	  -5.2341330e-01	
   7.7055000e+01	  -1.7528194e-01	   4.8767595e-01	  -5.1258300e-01	
   7.7110000e+01	  -1.6261358e-01	   4.9726704e-01	  -5.0024122e-01	
   7.7165000e+01	  -1.4971236e-01	   5.0635434e-01	  -4.8648990e-01	
   7.7220000e+01	  -1.3671609e-01	   5.1516081e-01	  -4.7149148e-01	
   7.7275000e+01	  -1.2379159e-01	   5.2389815e-01	  -4.5545410e-01	
   7.7330000e+01	  -1.1112106e-01	   5.3276119e-01	  -4.3861189e-01	
   7.7385000e+01	  -9.8885759e-02	   5.4192487e-01	  -4.2120482e-01	
   7.7440000e+01	  -8.7250020e-02	   5.5154205e-01	  -4.0346383e-01	
   7.7495000e+01	  -7.6347465e-02	   5.6174102e-01	  -3.8560417e-01	
   7.7550000e+01	  -6.6270479e-02	   5.7262249e-01	  -3.6782588e-01	
   7.7605000e+01	  -5.7063706e-02	   5.8425577e-01	  -3.5031750e-01	
   7.7660000e+01	  -4.8722511e-02	   5.9667449e-01	  -3.3326014e-01	
   7.7715000e+01	  -4.1196826e-02	   6.0987300e-01	  -3.1683042e-01	
   7.7770000e+01	  -3.4399697e-02	   6.2380439e-01	  -3.0120142e-01	
   7.7825000e+01	  -2.8219188e-02	   6.3838002e-01	  -2.8654144e-01	
   7.7880000e+01	  -2.2532242e-02	   6.5347011e-01	  -2.7301118e-01	
   7.7935000e+01	  -1.7219002e-02	   6.6890638e-01	  -2.6076022e-01	
   7.7990000e+01	  -1.2175798e-02	   6.8448765e-01	  -2.4992262e-01	
   7.8045000e+01	  -7.3247816e-03	   6.9998840e-01	  -2.4061174e-01	
   7.8100000e+01	  -2.6185163e-03	   7.1516882e-01	  -2.3291478e-01	
   7.8155000e+01	   1.9613195e-03	   7.2978500e-01	  -2.2688814e-01	
   7.8210000e+01	   6.4103721e-03	   7.4359857e-01	  -2.2255335e-01	
   7.8265000e+01	   1.0710837e-02	   7.5638568e-01	  -2.1989378e-01	
   7.8320000e+01	   1.4840745e-02	   7.6794486e-01	  -2.1885306e-01	
   7.8375000e+01	   1.8781535e-02	   7.7810340e-01	  -2.1933497e-01	
   7.8430000e+01	   2.2522859e-02	   7.8672107e-01	  -2.2120485e-01	
   7.8485000e+01	   2.6064008e-02	   7.9369054e-01	  -2.2429340e-01	
   7.8540000e+01	   2.9412459e-02	   7.9893436e-01	  -2.2840476e-01	
   7.8595000e+01	   3.2581455e-02	   8.0240053e-01	  -2.3332863e-01	
   7.8650000e+01	   3.5588205e-02	   8.0405888e-01	  -2.3885363e-01	
   7.8705000e+01	   3.8452462e-02	   8.0390013e-01	  -2.4477848e-01	
   7.8760000e+01	   4.1194529e-02	   8.0193753e-01	  -2.5091899e-01	
   7.8815000e+01	   4.3833537e-02	   7.9821077e-01	  -2.5710939e-01	
   7.8870000e+01	   4.6388672e-02	   7.9279177e-01	  -2.6319781e-01	
   7.8925000e+01	   4.8884840e-02	   7.8579060e-01	  -2.6903788e-01	
   7.8980000e+01	   5.1361134e-02	   7.7735938e-01	  -2.7448005e-01	
   7.9035000e+01	   5.3878940e-02	   7.6769327e-01	  -2.7936613e-01	
   7.9090000e+01	   5.6527134e-02	   7.5702892e-01	  -2.8352915e-01	
   7.9145000e+01	   5.9422833e-02	   7.4564043e-01	  -2.8679941e-01	
   7.9200000e+01	   6.2706827e-02	   7.3383195e-01	  -2.8901569e-01	
   7.9255000e+01	   6.6533791e-02	   7.2192694e-01	  -2.9003822e-01	
   7.9310000e+01	   7.1058536e-02	   7.1025423e-01	  -2.8976040e-01	
   7.9365000e+01	   7.6420038e-02	   6.9913094e-01	  -2.8811900e-01	
   7.9420000e+01	   8.2725126e-02	   6.8884379e-01	  -2.8510276e-01	
   7.9475000e+01	   9.0034170e-02	   6.7963240e-01	  -2.8075769e-01	
   7.9530000e+01	   9.8351305e-02	   6.7167886e-01	  -2.7518733e-01	
   7.9585000e+01	   1.0762108e-01	   6.6510524e-01	  -2.6854738e-01	
   7.9640000e+01	   1.1773279e-01	   6.5997836e-01	  -2.6103517e-01	
   7.9695000e+01	   1.2853285e-01	   6.5632105e-01	  -2.5287412e-01	
   7.9750000e+01	   1.3984338e-01	   6.5412767e-01	  -2.4429518e-01	
   7.9805000e+01	   1.5148283e-01	   6.5338034e-01	  -2.3551971e-01	
   7.9860000e+01	   1.6328420e-01	   6.5406111e-01	  -2.2674780e-01	
   7.9915000e+01	   1.7510862e-01	   6.5615821e-01	  -2.1815269e-01	
   7.9970000e+01	   1.8685372e-01	   6.5966650e-01	  -2.0987993e-01	
   8.0025000e+01	   1.9845577e-01	   6.6458322e-01	  -2.0204981e-01	
   8.0080000e+01	   2.0988520e-01	   6.7089927e-01	  -1.9476191e-01	
   8.0135000e+01	   2.2113598e-01	   6.7858753e-01	  -1.8809982e-01	
   8.0190000e+01	   2.3221088e-01	   6.8759091e-01	  -1.8213333e-01	
   8.0245000e+01	   2.4310521e-01	   6.9781230e-01	  -1.7691761e-01	
   8.0300000e+01	   2.5379222e-01	   7.0910806e-01	  -1.7249160e-01	
   8.0355000e+01	   2.6421351e-01	   7.2128625e-01	  -1.6887722e-01	
   8.0410000e+01	   2.7427706e-01	   7.3411165e-01	  -1.6607899e-01	
   8.0465000e+01	   2.8386359e-01	   7.4731864e-01	  -1.6408188e-01	
   8.0520000e+01	   2.9284046e-01	   7.6063040e-01	  -1.6284645e-01	
   8.0575000e+01	   3.0108029e-01	   7.7378129e-01	  -1.6230220e-01	
   8.0630000e+01	   3.0848083e-01	   7.8653814e-01	  -1.6234116e-01	
   8.0685000e+01	   3.1498156e-01	   7.9871742e-01	  -1.6281439e-01	
   8.0740000e+01	   3.2057376e-01	   8.1019584e-01	  -1.6353356e-01	
   8.0795000e+01	   3.2530271e-01	   8.2091382e-01	  -1.6427886e-01	
   8.0850000e+01	   3.2926232e-01	   8.3087163e-01	  -1.6481208e-01	
   8.0905000e+01	   3.3258399e-01	   8.4011802e-01	  -1.6489256e-01	
   8.0960000e+01	   3.3542153e-01	   8.4873263e-01	  -1.6429332e-01	
   8.1015000e+01	   3.3793402e-01	   8.5680507e-01	  -1.6281579e-01	
   8.1070000e+01	   3.4026780e-01	   8.6441371e-01	  -1.6030268e-01	
   8.1125000e+01	   3.4253900e-01	   8.7160679e-01	  -1.5664918e-01	
   8.1180000e+01	   3.4481849e-01	   8.7838731e-01	  -1.5181184e-01	
   8.1235000e+01	   3.4712189e-01	   8.8470395e-01	  -1.4581341e-01	
   8.1290000e+01	   3.4940756e-01	   8.9045018e-01	  -1.3874145e-01	
   8.1345000e+01	   3.5158425e-01	   8.9547291e-01	  -1.3073964e-01	
   8.1400000e+01	   3.5352719e-01	   8.9959010e-01	  -1.2199286e-01	
   8.1455000e+01	   3.5509837e-01	   9.0261511e-01	  -1.1270884e-01	
   8.1510000e+01	   3.5616584e-01	   9.0438232e-01	  -1.0309946e-01	
   8.1565000e+01	   3.5661852e-01	   9.0476820e-01	  -9.3365308e-02	
   8.1620000e+01	   3.5637599e-01	   9.0370421e-01	  -8.3685851e-02	
   8.1675000e+01	   3.5539390e-01	   9.0118110e-01	  -7.4215675e-02	
   8.1730000e+01	   3.5366483e-01	   8.9724520e-01	  -6.5086454e-02	
   8.1785000e+01	   3.5121452e-01	   8.9198768e-01	  -5.6413298e-02	
   8.1840000e+01	   3.4809411e-01	   8.8552978e-01	  -4.8302007e-02	
   8.1895000e+01	   3.4437054e-01	   8.7800759e-01	  -4.0852795e-02	
   8.1950000e+01	   3.4011628e-01	   8.6955898e-01	  -3.4158925e-02	
   8.2005000e+01	   3.3539965e-01	   8.6031367e-01	  -2.8302534e-02	
   8.2060000e+01	   3.3027694e-01	   8.5038743e-01	  -2.3350220e-02	
   8.2115000e+01	   3.2478857e-01	   8.3988050e-01	  -1.9348881e-02	
   8.2170000e+01	   3.1896008e-01	   8.2887948e-01	  -1.6321297e-02	
   8.2225000e+01	   3.1280725e-01	   8.1746150e-01	  -1.4261504e-02	
   8.2280000e+01	   3.0634332e-01	   8.0569967e-01	  -1.3130900e-02	
   8.2335000e+01	   2.9958636e-01	   7.9366888e-01	  -1.2856786e-02	
   8.2390000e+01	   2.9256615e-01	   7.8145062e-01	  -1.3334710e-02	
   8.2445000e+01	   2.8532953e-01	   7.6913402e-01	  -1.4434680e-02	
   8.2500000e+01	   2.7794268e-01	   7.5681137e-01	  -1.6010496e-02	
   8.2555000e+01	   2.7048901e-01	   7.4457026e-01	  -1.7911094e-02	
   8.2610000e+01	   2.6306269e-01	   7.3248624e-01	  -1.9992452e-02	
   8.2665000e+01	   2.5575822e-01	   7.2061803e-01	  -2.2128537e-02	
   8.2720000e+01	   2.4865760e-01	   7.0900407e-01	  -2.4220238e-02	
   8.2775000e+01	   2.4181758e-01	   6.9765909e-01	  -2.6200925e-02	
   8.2830000e+01	   2.3526027e-01	   6.8657125e-01	  -2.8037241e-02	
   8.2885000e+01	   2.2896880e-01	   6.7570185e-01	  -2.9724672e-02	
   8.2940000e+01	   2.2288995e-01	   6.6498964e-01	  -3.1278508e-02	
   8.2995000e+01	   2.1694407e-01	   6.5436151e-01	  -3.2721331e-02	
   8.3050000e+01	   2.1104073e-01	   6.4374742e-01	  -3.4069674e-02	
   8.3105000e+01	   2.0509506e-01	   6.3309511e-01	  -3.5324055e-02	
   8.3160000e+01	   1.9904099e-01	   6.2238051e-01	  -3.6465318e-02	
   8.3215000e+01	   1.9283995e-01	   6.1161207e-01	  -3.7456713e-02	
   8.3270000e+01	   1.8648462e-01	   6.0082786e-01	  -3.8248952e-02	
   8.3325000e+01	   1.7999717e-01	   5.9008580e-01	  -3.8785971e-02	
   8.3380000e+01	   1.7342201e-01	   5.7945000e-01	  -3.9010132e-02	
   8.3435000e+01	   1.6681464e-01	   5.6897742e-01	  -3.8866014e-02	
   8.3490000e+01	   1.6022866e-01	   5.5870752e-01	  -3.8302878e-02	
   8.3545000e+01	   1.5370231e-01	   5.4865558e-01	  -3.7276969e-02	
   8.3600000e+01	   1.4724577e-01	   5.3880961e-01	  -3.5754272e-02	
   8.3655000e+01	   1.4083196e-01	   5.2913148e-01	  -3.3712751e-02	
   8.3710000e+01	   1.3439380e-01	   5.1956237e-01	  -3.1142643e-02	
   8.3765000e+01	   1.2782977e-01	   5.1003190e-01	  -2.8044326e-02	
   8.3820000e+01	   1.2101702e-01	   5.0046995e-01	  -2.4424418e-02	
   8.3875000e+01	   1.1382946e-01	   4.9081938e-01	  -2.0291368e-02	
   8.3930000e+01	   1.0615670e-01	   4.8104801e-01	  -1.5652206e-02	
   8.3985000e+01	   9.7920244e-02	   4.7115804e-01	  -1.0512079e-02	
   8.4040000e+01	   8.9084377e-02	   4.6119200e-01	  -4.8769387e-03	
   8.4095000e+01	   7.9660166e-02	   4.5123340e-01	   1.2417936e-03	
   8.4150000e+01	   6.9702392e-02	   4.4140065e-01	   7.8213392e-03	
   8.4205000e+01	   5.9299967e-02	   4.3183390e-01	   1.4820022e-02	
   8.4260000e+01	   4.8561547e-02	   4.2267730e-01	   2.2168521e-02	
   8.4315000e+01	   3.7598469e-02	   4.1406053e-01	   2.9762379e-02	
   8.4370000e+01	   2.6507161e-02	   4.0608204e-01	   3.7458166e-02	
   8.4425000e+01	   1.5353190e-02	   3.9879606e-01	   4.5073881e-02	
   8.4480000e+01	   4.1591047e-03	   3.9220472e-01	   5.2393202e-02	
   8.4535000e+01	  -7.1021054e-03	   3.8625567e-01	   5.9173873e-02	
   8.4590000e+01	  -1.8506176e-02	   3.8084520e-01	   6.5160784e-02	
   8.4645000e+01	  -3.0167924e-02	   3.7582744e-01	   7.0103146e-02	
   8.4700000e+01	  -4.2222998e-02	   3.7103032e-01	   7.3773875e-02	
   8.4755000e+01	  -5.4804278e-02	   3.6627650e-01	   7.5988619e-02	
   8.4810000e+01	  -6.8018519e-02	   3.6140579e-01	   7.6621127e-02	
   8.4865000e+01	  -8.1928360e-02	   3.5629439e-01	   7.5612078e-02	
   8.4920000e+01	  -9.6541902e-02	   3.5086766e-01	   7.2970711e-02	
   8.4975000e+01	  -1.1180960e-01	   3.4510413e-01	   6.8769630e-02	
   8.5030000e+01	  -1.2762767e-01	   3.3903119e-01	   6.3132565e-02	
   8.5085000e+01	  -1.4384721e-01	   3.3271557e-01	   5.6216803e-02	
   8.5140000e+01	  -1.6028807e-01	   3.2625241e-01	   4.8195251e-02	
   8.5195000e+01	  -1.7675573e-01	   3.1975414e-01	   3.9242816e-02	
   8.5250000e+01	  -1.9305953e-01	   3.1333982e-01	   2.9527795e-02	
   8.5305000e+01	  -2.0903069e-01	   3.0712600e-01	   1.9206030e-02	
   8.5360000e+01	  -2.2453771e-01	   3.0122080e-01	   8.4164083e-03	
   8.5415000e+01	  -2.3949707e-01	   2.9572181e-01	  -2.7215911e-03	
   8.5470000e+01	  -2.5387689e-01	   2.9071705e-01	  -1.4107524e-02	
   8.5525000e+01	  -2.6769231e-01	   2.8628782e-01	  -2.5656630e-02	
   8.5580000e+01	  -2.8099267e-01	   2.8251156e-01	  -3.7294127e-02	
   8.5635000e+01	  -2.9384378e-01	   2.7946262e-01	  -4.8949179e-02	
   8.5690000e+01	  -3.0631049e-01	   2.7720890e-01	  -6.0551101e-02	
   8.5745000e+01	  -3.1844339e-01	   2.7580455e-01	  -7.2028660e-02	
   8.5800000e+01	  -3.3027121e-01	   2.7528112e-01	  -8.3311531e-02	
   8.5855000e+01	  -3.4179898e-01	   2.7563953e-01	  -9.4332819e-02	
   8.5910000e+01	  -3.5301164e-01	   2.7684273e-01	  -1.0503244e-01	
   8.5965000e+01	  -3.6388195e-01	   2.7880924e-01	  -1.1536146e-01	
   8.6020000e+01	  -3.7437998e-01	   2.8140891e-01	  -1.2528685e-01	
   8.6075000e+01	  -3.8448209e-01	   2.8446264e-01	  -1.3479569e-01	
   8.6130000e+01	  -3.9417851e-01	   2.8774744e-01	  -1.4389808e-01	
   8.6185000e+01	  -4.0347871e-01	   2.9100731e-01	  -1.5262719e-01	
   8.6240000e+01	  -4.1241273e-01	   2.9396945e-01	  -1.6103491e-01	
   8.6295000e+01	  -4.2102673e-01	   2.9636447e-01	  -1.6918330e-01	
   8.6350000e+01	  -4.2937306e-01	   2.9794705e-01	  -1.7713329e-01	
   8.6405000e+01	  -4.3749744e-01	   2.9851317e-01	  -1.8493228e-01	
   8.6460000e+01	  -4.4542670e-01	   2.9791136e-01	  -1.9260282e-01	
   8.6515000e+01	  -4.5315954e-01	   2.9604772e-01	  -2.0013523e-01	
   8.6570000e+01	  -4.6066200e-01	   2.9288530e-01	  -2.0748612e-01	
   8.6625000e+01	  -4.6786798e-01	   2.8843994e-01	  -2.1458209e-01	
   8.6680000e+01	  -4.7468381e-01	   2.8277391e-01	  -2.2132631e-01	
   8.6735000e+01	  -4.8099631e-01	   2.7598687e-01	  -2.2760629e-01	
   8.6790000e+01	  -4.8668445e-01	   2.6820373e-01	  -2.3330287e-01	
   8.6845000e+01	  -4.9163416e-01	   2.5956150e-01	  -2.3830034e-01	
   8.6900000e+01	  -4.9575410e-01	   2.5019894e-01	  -2.4249681e-01	
   8.6955000e+01	  -4.9898965e-01	   2.4025078e-01	  -2.4581386e-01	
   8.7010000e+01	  -5.0133231e-01	   2.2984609e-01	  -2.4820395e-01	
   8.7065000e+01	  -5.0282274e-01	   2.1910965e-01	  -2.4965284e-01	
   8.7120000e+01	  -5.0354599e-01	   2.0816586e-01	  -2.5017562e-01	
   8.7175000e+01	  -5.0361900e-01	   1.9714345e-01	  -2.4980840e-01	
   8.7230000e+01	  -5.0317221e-01	   1.8617973e-01	  -2.4860003e-01	
   8.7285000e+01	  -5.0232920e-01	   1.7542372e-01	  -2.4660713e-01	
   8.7340000e+01	  -5.0118882e-01	   1.6503827e-01	  -2.4389199e-01	
   8.7395000e+01	  -4.9981311e-01	   1.5520013e-01	  -2.4052120e-01	
   8.7450000e+01	  -4.9822263e-01	   1.4609685e-01	  -2.3656424e-01	
   8.7505000e+01	  -4.9639846e-01	   1.3792162e-01	  -2.3209229e-01	
   8.7560000e+01	  -4.9428926e-01	   1.3086805e-01	  -2.2717800e-01	
   8.7615000e+01	  -4.9182200e-01	   1.2512598e-01	  -2.2189710e-01	
   8.7670000e+01	  -4.8891550e-01	   1.2087787e-01	  -2.1633218e-01	
   8.7725000e+01	  -4.8549509e-01	   1.1829441e-01	  -2.1057626e-01	
   8.7780000e+01	  -4.8150618e-01	   1.1752866e-01	  -2.0473403e-01	
   8.7835000e+01	  -4.7692477e-01	   1.1870753e-01	  -1.9892108e-01	
   8.7890000e+01	  -4.7176380e-01	   1.2192087e-01	  -1.9326190e-01	
   8.7945000e+01	  -4.6607403e-01	   1.2721094e-01	  -1.8788564e-01	
   8.8000000e+01	  -4.5993796e-01	   1.3456767e-01	  -1.8291734e-01	
   8.8055000e+01	  -4.5345715e-01	   1.4393155e-01	  -1.7846469e-01	
   8.8110000e+01	  -4.4673584e-01	   1.5520197e-01	  -1.7460472e-01	
   8.8165000e+01	  -4.3986516e-01	   1.6824723e-01	  -1.7137526e-01	
   8.8220000e+01	  -4.3291090e-01	   1.8291346e-01	  -1.6877246e-01	
   8.8275000e+01	  -4.2590619e-01	   1.9903022e-01	  -1.6675260e-01	
   8.8330000e+01	  -4.1884967e-01	   2.1641169e-01	  -1.6523641e-01	
   8.8385000e+01	  -4.1170861e-01	   2.3485577e-01	  -1.6411547e-01	
   8.8440000e+01	  -4.0442595e-01	   2.5414398e-01	  -1.6326143e-01	
   8.8495000e+01	  -3.9693023e-01	   2.7404261e-01	  -1.6253725e-01	
   8.8550000e+01	  -3.8914726e-01	   2.9430362e-01	  -1.6180809e-01	
   8.8605000e+01	  -3.8101192e-01	   3.1466495e-01	  -1.6094975e-01	
   8.8660000e+01	  -3.7247908e-01	   3.3485080e-01	  -1.5985595e-01	
   8.8715000e+01	  -3.6353321e-01	   3.5457253e-01	  -1.5844662e-01	
   8.8770000e+01	  -3.5419531e-01	   3.7353093e-01	  -1.5667637e-01	
   8.8825000e+01	  -3.4452443e-01	   3.9142220e-01	  -1.5453882e-01	
   8.8880000e+01	  -3.3461168e-01	   4.0794992e-01	  -1.5206237e-01	
   8.8935000e+01	  -3.2456740e-01	   4.2284206e-01	  -1.4929712e-01	
   8.8990000e+01	  -3.1450501e-01	   4.3586940e-01	  -1.4629876e-01	
   8.9045000e+01	  -3.0452550e-01	   4.4686081e-01	  -1.4311575e-01	
   8.9100000e+01	  -2.9470530e-01	   4.5571216e-01	  -1.3978218e-01	
   8.9155000e+01	  -2.8508934e-01	   4.6238772e-01	  -1.3631489e-01	
   8.9210000e+01	  -2.7569030e-01	   4.6691565e-01	  -1.3271337e-01	
   8.9265000e+01	  -2.6649369e-01	   4.6938094e-01	  -1.2896156e-01	
   8.9320000e+01	  -2.5746743e-01	   4.6991697e-01	  -1.2503146e-01	
   8.9375000e+01	  -2.4857392e-01	   4.6869527e-01	  -1.2088935e-01	
   8.9430000e+01	  -2.3978222e-01	   4.6591295e-01	  -1.1650441e-01	
   8.9485000e+01	  -2.3107804e-01	   4.6178027e-01	  -1.1185824e-01	
   8.9540000e+01	  -2.2246937e-01	   4.5651153e-01	  -1.0695184e-01	
   8.9595000e+01	  -2.1398682e-01	   4.5032013e-01	  -1.0180678e-01	
   8.9650000e+01	  -2.0567865e-01	   4.4341663e-01	  -9.6458243e-02	
   8.9705000e+01	  -1.9760148e-01	   4.3600793e-01	  -9.0940689e-02	
   8.9760000e+01	  -1.8980859e-01	   4.2829568e-01	  -8.5271123e-02	
   8.9815000e+01	  -1.8233873e-01	   4.2047291e-01	  -7.9436541e-02	
   8.9870000e+01	  -1.7520788e-01	   4.1271883e-01	  -7.3389231e-02	
   8.9925000e+01	  -1.6840580e-01	   4.0519214e-01	  -6.7049835e-02	
   8.9980000e+01	  -1.6189769e-01	   3.9802326e-01	  -6.0315950e-02	
   9.0035000e+01	  -1.5563072e-01	   3.9130673e-01	  -5.3073570e-02	
   9.0090000e+01	  -1.4954420e-01	   3.8509513e-01	  -4.5209731e-02	
   9.0145000e+01	  -1.4358185e-01	   3.7939664e-01	  -3.6626376e-02	
   9.0200000e+01	  -1.3770394e-01	   3.7417619e-01	  -2.7255423e-02	
   9.0255000e+01	  -1.3189728e-01	   3.6935882e-01	  -1.7073054e-02	
   9.0310000e+01	  -1.2618077e-01	   3.6483410e-01	  -6.1096264e-03	
   9.0365000e+01	  -1.2060481e-01	   3.6046178e-01	   5.5481510e-03	
   9.0420000e+01	  -1.1524407e-01	   3.5607931e-01	   1.7764624e-02	
   9.0475000e+01	  -1.1018510e-01	   3.5151169e-01	   3.0371229e-02	
   9.0530000e+01	  -1.0551159e-01	   3.4658432e-01	   4.3187595e-02	
   9.0585000e+01	  -1.0128998e-01	   3.4113975e-01	   5.6043319e-02	
   9.0640000e+01	  -9.7557254e-02	   3.3505715e-01	   6.8796202e-02	
   9.0695000e+01	  -9.4312892e-02	   3.2827026e-01	   8.1344077e-02	
   9.0750000e+01	  -9.1516218e-02	   3.2077928e-01	   9.3629805e-02	
   9.0805000e+01	  -8.9089211e-02	   3.1265424e-01	   1.0564027e-01	
   9.0860000e+01	  -8.6923939e-02	   3.0403014e-01	   1.1739964e-01	
   9.0915000e+01	  -8.4894032e-02	   2.9509494e-01	   1.2895765e-01	
   9.0970000e+01	  -8.2869430e-02	   2.8607248e-01	   1.4037498e-01	
   9.1025000e+01	  -8.0732549e-02	   2.7720239e-01	   1.5170800e-01	
   9.1080000e+01	  -7.8393493e-02	   2.6871910e-01	   1.6299433e-01	
   9.1135000e+01	  -7.5802517e-02	   2.6083167e-01	   1.7424100e-01	
   9.1190000e+01	  -7.2958078e-02	   2.5370678e-01	   1.8541749e-01	
   9.1245000e+01	  -6.9908550e-02	   2.4745772e-01	   1.9645505e-01	
   9.1300000e+01	  -6.6746159e-02	   2.4214068e-01	   2.0725159e-01	
   9.1355000e+01	  -6.3593343e-02	   2.3775760e-01	   2.1768092e-01	
   9.1410000e+01	  -6.0583610e-02	   2.3426429e-01	   2.2760593e-01	
   9.1465000e+01	  -5.7840378e-02	   2.3158288e-01	   2.3689486e-01	
   9.1520000e+01	  -5.5457673e-02	   2.2961738e-01	   2.4543797e-01	
   9.1575000e+01	  -5.3485840e-02	   2.2827012e-01	   2.5316088e-01	
   9.1630000e+01	  -5.1924056e-02	   2.2745618e-01	   2.6003206e-01	
   9.1685000e+01	  -5.0719901e-02	   2.2711304e-01	   2.6606342e-01	
   9.1740000e+01	  -4.9775307e-02	   2.2720287e-01	   2.7130462e-01	
   9.1795000e+01	  -4.8958069e-02	   2.2770713e-01	   2.7583264e-01	
   9.1850000e+01	  -4.8117770e-02	   2.2861574e-01	   2.7973844e-01	
   9.1905000e+01	  -4.7104273e-02	   2.2991484e-01	   2.8311324e-01	
   9.1960000e+01	  -4.5786856e-02	   2.3157578e-01	   2.8603695e-01	
   9.2015000e+01	  -4.4072490e-02	   2.3354591e-01	   2.8857025e-01	
   9.2070000e+01	  -4.1921457e-02	   2.3574189e-01	   2.9075062e-01	
   9.2125000e+01	  -3.9357542e-02	   2.3804720e-01	   2.9259100e-01	
   9.2180000e+01	  -3.6469828e-02	   2.4031455e-01	   2.9408015e-01	
   9.2235000e+01	  -3.3404463e-02	   2.4237302e-01	   2.9518580e-01	
   9.2290000e+01	  -3.0347284e-02	   2.4403863e-01	   2.9586374e-01	
   9.2345000e+01	  -2.7501091e-02	   2.4512729e-01	   2.9607342e-01	
   9.2400000e+01	  -2.5062947e-02	   2.4546816e-01	   2.9579578e-01	
   9.2455000e+01	  -2.3205376e-02	   2.4491515e-01	   2.9504682e-01	
   9.2510000e+01	  -2.2062644e-02	   2.4335564e-01	   2.9388412e-01	
   9.2565000e+01	  -2.1722397e-02	   2.4071621e-01	   2.9240656e-01	
   9.2620000e+01	  -2.2223383e-02	   2.3696485e-01	   2.9074856e-01	
   9.2675000e+01	  -2.3559489e-02	   2.3210872e-01	   2.8906899e-01	
   9.2730000e+01	  -2.5688696e-02	   2.2618735e-01	   2.8753615e-01	
   9.2785000e+01	  -2.8544646e-02	   2.1926207e-01	   2.8631131e-01	
   9.2840000e+01	  -3.2048983e-02	   2.1140296e-01	   2.8553283e-01	
   9.2895000e+01	  -3.6123198e-02	   2.0267554e-01	   2.8530169e-01	
   9.2950000e+01	  -4.0698215e-02	   1.9312986e-01	   2.8566949e-01	
   9.3005000e+01	  -4.5719362e-02	   1.8279484e-01	   2.8662985e-01	
   9.3060000e+01	  -5.1144922e-02	   1.7167896e-01	   2.8811476e-01	
   9.3115000e+01	  -5.6938601e-02	   1.5977642e-01	   2.8999821e-01	
   9.3170000e+01	  -6.3058731e-02	   1.4707610e-01	   2.9210974e-01	
   9.3225000e+01	  -6.9448292e-02	   1.3357074e-01	   2.9425610e-01	
   9.3280000e+01	  -7.6028898e-02	   1.1926388e-01	   2.9624518e-01	
   9.3335000e+01	  -8.2699958e-02	   1.0417355e-01	   2.9790571e-01	
   9.3390000e+01	  -8.9342541e-02	   8.8332752e-02	   2.9909906e-01	
   9.3445000e+01	  -9.5826685e-02	   7.1787637e-02	   2.9972270e-01	
   9.3500000e+01	  -1.0202082e-01	   5.4594608e-02	   2.9970725e-01	
   9.3555000e+01	  -1.0780213e-01	   3.6817178e-02	   2.9901047e-01	
   9.3610000e+01	  -1.1306649e-01	   1.8523687e-02	   2.9761167e-01	
   9.3665000e+01	  -1.1773665e-01	  -2.1310646e-04	   2.9550825e-01	
   9.3720000e+01	  -1.2176726e-01	  -1.9313935e-02	   2.9271339e-01	
   9.3775000e+01	  -1.2514537e-01	  -3.8688453e-02	   2.8925408e-01	
   9.3830000e+01	  -1.2788564e-01	  -5.8228791e-02	   2.8517083e-01	
   9.3885000e+01	  -1.3002038e-01	  -7.7803373e-02	   2.8052117e-01	
   9.3940000e+01	  -1.3158666e-01	  -9.7254116e-02	   2.7538610e-01	
   9.3995000e+01	  -1.3261326e-01	  -1.1639888e-01	   2.6987638e-01	
   9.4050000e+01	  -1.3311024e-01	  -1.3503851e-01	   2.6413577e-01	
   9.4105000e+01	  -1.3306291e-01	  -1.5296638e-01	   2.5833966e-01	
   9.4160000e+01	  -1.3243128e-01	  -1.6997861e-01	   2.5268749e-01	
   9.4215000e+01	  -1.3115492e-01	  -1.8588491e-01	   2.4738907e-01	
   9.4270000e+01	  -1.2916229e-01	  -2.0051945e-01	   2.4264702e-01	
   9.4325000e+01	  -1.2638322e-01	  -2.1374960e-01	   2.3863858e-01	
   9.4380000e+01	  -1.2276335e-01	  -2.2548010e-01	   2.3549852e-01	
   9.4435000e+01	  -1.1827878e-01	  -2.3565289e-01	   2.3330426e-01	
   9.4490000e+01	  -1.1294806e-01	  -2.4424503e-01	   2.3206424e-01	
   9.4545000e+01	  -1.0683868e-01	  -2.5126624e-01	   2.3171252e-01	
   9.4600000e+01	  -1.0006583e-01	  -2.5675538e-01	   2.3211278e-01	
   9.4655000e+01	  -9.2782973e-02	  -2.6077461e-01	   2.3307429e-01	
   9.4710000e+01	  -8.5164835e-02	  -2.6340169e-01	   2.3437811e-01	
   9.4765000e+01	  -7.7386361e-02	  -2.6472169e-01	   2.3580795e-01	
   9.4820000e+01	  -6.9602056e-02	  -2.6481995e-01	   2.3717798e-01	
   9.4875000e+01	  -6.1930047e-02	  -2.6377793e-01	   2.3835200e-01	
   9.4930000e+01	  -5.4443029e-02	  -2.6167335e-01	   2.3925191e-01	
   9.4985000e+01	  -4.7166688e-02	  -2.5858603e-01	   2.3985644e-01	
   9.5040000e+01	  -4.0085559e-02	  -2.5460879e-01	   2.4019164e-01	
   9.5095000e+01	  -3.3155457e-02	  -2.4986017e-01	   2.4031542e-01	
   9.5150000e+01	  -2.6320302e-02	  -2.4449484e-01	   2.4029881e-01	
   9.5205000e+01	  -1.9530503e-02	  -2.3870980e-01	   2.4020686e-01	
   9.5260000e+01	  -1.2759933e-02	  -2.3274614e-01	   2.4008163e-01	
   9.5315000e+01	  -6.0187552e-03	  -2.2688597e-01	   2.3993033e-01	
   9.5370000e+01	   6.4008400e-04	  -2.2144420e-01	   2.3972047e-01	
   9.5425000e+01	   7.1224823e-03	  -2.1675507e-01	   2.3938244e-01	
   9.5480000e+01	   1.3303944e-02	  -2.1315410e-01	   2.3881882e-01	
   9.5535000e+01	   1.9048126e-02	  -2.1095540e-01	   2.3791975e-01	
