
0   3   6
   0.0000000e+00	  -1.3715576e-01	  -6.5818697e-02	
   5.5000000e-02	  -1.3905574e-01	  -7.6020298e-02	
   1.1000000e-01	  -1.4232333e-01	  -8.6303898e-02	
   1.6500000e-01	  -1.4646347e-01	  -9.6366569e-02	
   2.2000000e-01	  -1.5098679e-01	  -1.0592805e-01	
   2.7500000e-01	  -1.5543542e-01	  -1.1474368e-01	
   3.3000000e-01	  -1.5940197e-01	  -1.2261280e-01	
   3.8500000e-01	  -1.6254047e-01	  -1.2938298e-01	
   4.4000000e-01	  -1.6457027e-01	  -1.3495067e-01	
   4.9500000e-01	  -1.6527577e-01	  -1.3925889e-01	
   5.5000000e-01	  -1.6450451e-01	  -1.4229240e-01	
   6.0500000e-01	  -1.6216646e-01	  -1.4407207e-01	
   6.6000000e-01	  -1.5823513e-01	  -1.4464938e-01	
   7.1500000e-01	  -1.5274767e-01	  -1.4410126e-01	
   7.7000000e-01	  -1.4580078e-01	  -1.4252457e-01	
   8.2500000e-01	  -1.3754333e-01	  -1.4003069e-01	
   8.8000000e-01	  -1.2816846e-01	  -1.3674099e-01	
   9.3500000e-01	  -1.1790659e-01	  -1.3278344e-01	
   9.9000000e-01	  -1.0701925e-01	  -1.2829039e-01	
   1.0450000e+00	  -9.5793038e-02	  -1.2339727e-01	
   1.1000000e+00	  -8.4531342e-02	  -1.1824145e-01	
   1.1550000e+00	  -7.3541225e-02	  -1.1295971e-01	
   1.2100000e+00	  -6.3115736e-02	  -1.0768409e-01	
   1.2650000e+00	  -5.3516445e-02	  -1.0253650e-01	
   1.3200000e+00	  -4.4960606e-02	  -9.7623463e-02	
   1.3750000e+00	  -3.7613749e-02	  -9.3031043e-02	
   1.4300000e+00	  -3.1586603e-02	  -8.8820791e-02	
   1.4850000e+00	  -2.6935593e-02	  -8.5027275e-02	
   1.5400000e+00	  -2.3666082e-02	  -8.1658138e-02	
   1.5950000e+00	  -2.1737686e-02	  -7.8696960e-02	
   1.6500000e+00	  -2.1071839e-02	  -7.6108420e-02	
   1.7050000e+00	  -2.1561170e-02	  -7.3844844e-02	
   1.7600000e+00	  -2.3078595e-02	  -7.1853084e-02	
   1.8150000e+00	  -2.5483883e-02	  -7.0080781e-02	
   1.8700000e+00	  -2.8626850e-02	  -6.8481246e-02	
   1.9250000e+00	  -3.2347649e-02	  -6.7016293e-02	
   1.9800000e+00	  -3.6475363e-02	  -6.5656311e-02	
   2.0350000e+00	  -4.0826389e-02	  -6.4377369e-02	
   2.0900000e+00	  -4.5204005e-02	  -6.3156736e-02	
   2.1450000e+00	  -4.9400219e-02	  -6.1969049e-02	
   2.2000000e+00	  -5.3200161e-02	  -6.0784366e-02	
   2.2550000e+00	  -5.6388397e-02	  -5.9567793e-02	
   2.3100000e+00	  -5.8756781e-02	  -5.8280115e-02	
   2.3650000e+00	  -6.0114239e-02	  -5.6879347e-02	
   2.4200000e+00	  -6.0298333e-02	  -5.5322949e-02	
   2.4750000e+00	  -5.9187178e-02	  -5.3570112e-02	
   2.5300000e+00	  -5.6710422e-02	  -5.1584193e-02	
   2.5850000e+00	  -5.2859027e-02	  -4.9336370e-02	
   2.6400000e+00	  -4.7692752e-02	  -4.6810842e-02	
   2.6950000e+00	  -4.1341953e-02	  -4.4009731e-02	
   2.7500000e+00	  -3.4000639e-02	  -4.0955140e-02	
   2.8050000e+00	  -2.5911947e-02	  -3.7687975e-02	
   2.8600000e+00	  -1.7350417e-02	  -3.4265101e-02	
   2.9150000e+00	  -8.6048775e-03	  -3.0755555e-02	
   2.9700000e+00	   3.6283100e-05	  -2.7235660e-02	
   3.0250000e+00	   8.2966702e-03	  -2.3783723e-02	
   3.0800000e+00	   1.5920238e-02	  -2.0475671e-02	
   3.1350000e+00	   2.2677725e-02	  -1.7381838e-02	
   3.1900000e+00	   2.8372872e-02	  -1.4564361e-02	
   3.2450000e+00	   3.2848742e-02	  -1.2075437e-02	
   3.3000000e+00	   3.5993155e-02	  -9.9568895e-03	
   3.3550000e+00	   3.7741883e-02	  -8.2404479e-03	
   3.4100000e+00	   3.8078249e-02	  -6.9480645e-03	
   3.4650000e+00	   3.7029112e-02	  -6.0923532e-03	
   3.5200000e+00	   3.4659617e-02	  -5.6769226e-03	
   3.5750000e+00	   3.1069090e-02	  -5.6955672e-03	
   3.6300000e+00	   2.6388226e-02	  -6.1301287e-03	
   3.6850000e+00	   2.0776573e-02	  -6.9482888e-03	
   3.7400000e+00	   1.4419582e-02	  -8.1025229e-03	
   3.7950000e+00	   7.5244030e-03	  -9.5305209e-03	
   3.8500000e+00	   3.1343951e-04	  -1.1157185e-02	
   3.9050000e+00	  -6.9845228e-03	  -1.2898536e-02	
   3.9600000e+00	  -1.4144494e-02	  -1.4667286e-02	
   4.0150000e+00	  -2.0955006e-02	  -1.6378820e-02	
   4.0700000e+00	  -2.7226157e-02	  -1.7956260e-02	
   4.1250000e+00	  -3.2795456e-02	  -1.9334045e-02	
   4.1800000e+00	  -3.7530930e-02	  -2.0460041e-02	
   4.2350000e+00	  -4.1330981e-02	  -2.1296403e-02	
   4.2900000e+00	  -4.4121855e-02	  -2.1819740e-02	
   4.3450000e+00	  -4.5854968e-02	  -2.2020990e-02	
   4.4000000e+00	  -4.6505729e-02	  -2.1904637e-02	
   4.4550000e+00	  -4.6073717e-02	  -2.1486460e-02	
   4.5100000e+00	  -4.4583427e-02	  -2.0790101e-02	
   4.5650000e+00	  -4.2085225e-02	  -1.9843951e-02	
   4.6200000e+00	  -3.8655904e-02	  -1.8679339e-02	
   4.6750000e+00	  -3.4397920e-02	  -1.7329682e-02	
   4.7300000e+00	  -2.9436975e-02	  -1.5829926e-02	
   4.7850000e+00	  -2.3918499e-02	  -1.4216054e-02	
   4.8400000e+00	  -1.8003730e-02	  -1.2524614e-02	
   4.8950000e+00	  -1.1865627e-02	  -1.0792353e-02	
   4.9500000e+00	  -5.6846166e-03	  -9.0562139e-03	
   5.0050000e+00	   3.5544934e-04	  -7.3533832e-03	
   5.0600000e+00	   6.0712419e-03	  -5.7204445e-03	
   5.1150000e+00	   1.1285663e-02	  -4.1911492e-03	
   5.1700000e+00	   1.5837274e-02	  -2.7936056e-03	
   5.2250000e+00	   1.9592860e-02	  -1.5481953e-03	
   5.2800000e+00	   2.2459385e-02	  -4.6685574e-04	
   5.3350000e+00	   2.4390634e-02	   4.4658143e-04	
   5.3900000e+00	   2.5386027e-02	   1.1953442e-03	
   5.4450000e+00	   2.5482600e-02	   1.7876313e-03	
   5.5000000e+00	   2.4743501e-02	   2.2332766e-03	
   5.5550000e+00	   2.3246329e-02	   2.5398904e-03	
   5.6100000e+00	   2.1073369e-02	   2.7093409e-03	
   5.6650000e+00	   1.8304667e-02	   2.7348672e-03	
   5.7200000e+00	   1.5014372e-02	   2.5991615e-03	
   5.7750000e+00	   1.1270608e-02	   2.2744260e-03	
   5.8300000e+00	   7.1384419e-03	   1.7253897e-03	
   5.8850000e+00	   2.6838167e-03	   9.1507266e-04	
   5.9400000e+00	  -2.0245407e-03	  -1.8841729e-04	
   5.9950000e+00	  -6.9163047e-03	  -1.6062251e-03	
   6.0500000e+00	  -1.1922578e-02	  -3.3453590e-03	
   6.1050000e+00	  -1.6979189e-02	  -5.3972555e-03	
   6.1600000e+00	  -2.2029147e-02	  -7.7375032e-03	
   6.2150000e+00	  -2.7023889e-02	  -1.0326667e-02	
   6.2700000e+00	  -3.1924648e-02	  -1.3113048e-02	
   6.3250000e+00	  -3.6705844e-02	  -1.6037880e-02	
   6.3800000e+00	  -4.1360003e-02	  -1.9042098e-02	
   6.4350000e+00	  -4.5901569e-02	  -2.2073001e-02	
   6.4900000e+00	  -5.0367791e-02	  -2.5089770e-02	
   6.5450000e+00	  -5.4816482e-02	  -2.8067648e-02	
   6.6000000e+00	  -5.9320190e-02	  -3.1000238e-02	
   6.6550000e+00	  -6.3956433e-02	  -3.3898454e-02	
   6.7100000e+00	  -6.8795682e-02	  -3.6785400e-02	
   6.7650000e+00	  -7.3890234e-02	  -3.9688459e-02	
   6.8200000e+00	  -7.9266041e-02	  -4.2630821e-02	
   6.8750000e+00	  -8.4917759e-02	  -4.5624390e-02	
   6.9300000e+00	  -9.0806700e-02	  -4.8665459e-02	
   6.9850000e+00	  -9.6861217e-02	  -5.1733866e-02	
   7.0400000e+00	  -1.0297837e-01	  -5.4794840e-02	
   7.0950000e+00	  -1.0902621e-01	  -5.7801996e-02	
   7.1500000e+00	  -1.1484865e-01	  -6.0700797e-02	
   7.2050000e+00	  -1.2027598e-01	  -6.3432799e-02	
   7.2600000e+00	  -1.2514084e-01	  -6.5940597e-02	
   7.3150000e+00	  -1.2929488e-01	  -6.8172503e-02	
   7.3700000e+00	  -1.3262143e-01	  -7.0086365e-02	
   7.4250000e+00	  -1.3504252e-01	  -7.1652376e-02	
   7.4800000e+00	  -1.3652076e-01	  -7.2853874e-02	
   7.5350000e+00	  -1.3705695e-01	  -7.3684909e-02	
   7.5900000e+00	  -1.3668519e-01	  -7.4145301e-02	
   7.6450000e+00	  -1.3546769e-01	  -7.4235737e-02	
   7.7000000e+00	  -1.3348965e-01	  -7.3954871e-02	
   7.7550000e+00	  -1.3085330e-01	  -7.3299116e-02	
   7.8100000e+00	  -1.2767209e-01	  -7.2264852e-02	
   7.8650000e+00	  -1.2406685e-01	  -7.0851796e-02	
   7.9200000e+00	  -1.2016439e-01	  -6.9065920e-02	
   7.9750000e+00	  -1.1609606e-01	  -6.6920874e-02	
   8.0300000e+00	  -1.1199449e-01	  -6.4437826e-02	
   8.0850000e+00	  -1.0798807e-01	  -6.1644099e-02	
   8.1400000e+00	  -1.0419463e-01	  -5.8570709e-02	
   8.1950000e+00	  -1.0071483e-01	  -5.5248656e-02	
   8.2500000e+00	  -9.7625304e-02	  -5.1704412e-02	
   8.3050000e+00	  -9.4972582e-02	  -4.7956105e-02	
   8.3600000e+00	  -9.2770574e-02	  -4.4011736e-02	
   8.4150000e+00	  -9.1002867e-02	  -3.9869531e-02	
   8.4700000e+00	  -8.9627947e-02	  -3.5520084e-02	
   8.5250000e+00	  -8.8583479e-02	  -3.0950120e-02	
   8.5800000e+00	  -8.7787018e-02	  -2.6147041e-02	
   8.6350000e+00	  -8.7133749e-02	  -2.1102861e-02	
   8.6900000e+00	  -8.6494719e-02	  -1.5816905e-02	
   8.7450000e+00	  -8.5719157e-02	  -1.0297960e-02	
   8.8000000e+00	  -8.4642092e-02	  -4.5661870e-03	
   8.8550000e+00	  -8.3095630e-02	   1.3462063e-03	
   8.9100000e+00	  -8.0920538e-02	   7.3969141e-03	
   8.9650000e+00	  -7.7974565e-02	   1.3538115e-02	
   9.0200000e+00	  -7.4135609e-02	   1.9722390e-02	
   9.0750000e+00	  -6.9300469e-02	   2.5908434e-02	
   9.1300000e+00	  -6.3382508e-02	   3.2065257e-02	
   9.1850000e+00	  -5.6312154e-02	   3.8173573e-02	
   9.2400000e+00	  -4.8041797e-02	   4.4223713e-02	
   9.2950000e+00	  -3.8553671e-02	   5.0210951e-02	
   9.3500000e+00	  -2.7868989e-02	   5.6129927e-02	
   9.4050000e+00	  -1.6057306e-02	   6.1969183e-02	
   9.4600000e+00	  -3.2438684e-03	   6.7706285e-02	
   9.5150000e+00	   1.0388455e-02	   7.3304287e-02	
   9.5700000e+00	   2.4604068e-02	   7.8710262e-02	
   9.6250000e+00	   3.9124110e-02	   8.3856328e-02	
   9.6800000e+00	   5.3637325e-02	   8.8663390e-02	
   9.7350000e+00	   6.7811619e-02	   9.3047311e-02	
   9.7900000e+00	   8.1307537e-02	   9.6926368e-02	
   9.8450000e+00	   9.3794686e-02	   1.0022860e-01	
   9.9000000e+00	   1.0497020e-01	   1.0289791e-01	
   9.9550000e+00	   1.1457639e-01	   1.0489800e-01	
   1.0010000e+01	   1.2241458e-01	   1.0621330e-01	
   1.0065000e+01	   1.2835327e-01	   1.0684733e-01	
   1.0120000e+01	   1.3232980e-01	   1.0681970e-01	
   1.0175000e+01	   1.3434581e-01	   1.0616378e-01	
   1.0230000e+01	   1.3445817e-01	   1.0492512e-01	
   1.0285000e+01	   1.3276735e-01	   1.0315987e-01	
   1.0340000e+01	   1.2940602e-01	   1.0093224e-01	
   1.0395000e+01	   1.2453131e-01	   9.8311524e-02	
   1.0450000e+01	   1.1832256e-01	   9.5369840e-02	
   1.0505000e+01	   1.1098191e-01	   9.2181380e-02	
   1.0560000e+01	   1.0273339e-01	   8.8822707e-02	
   1.0615000e+01	   9.3818680e-02	   8.5373233e-02	
   1.0670000e+01	   8.4491099e-02	   8.1914553e-02	
   1.0725000e+01	   7.5008843e-02	   7.8527681e-02	
   1.0780000e+01	   6.5627572e-02	   7.5288549e-02	
   1.0835000e+01	   5.6592516e-02	   7.2263402e-02	
   1.0890000e+01	   4.8131262e-02	   6.9505374e-02	
   1.0945000e+01	   4.0447801e-02	   6.7052187e-02	
   1.1000000e+01	   3.3718258e-02	   6.4924530e-02	
   1.1055000e+01	   2.8088959e-02	   6.3125165e-02	
   1.1110000e+01	   2.3676238e-02	   6.1638845e-02	
   1.1165000e+01	   2.0566241e-02	   6.0433028e-02	
   1.1220000e+01	   1.8814272e-02	   5.9459655e-02	
   1.1275000e+01	   1.8445103e-02	   5.8658512e-02	
   1.1330000e+01	   1.9455370e-02	   5.7962220e-02	
   1.1385000e+01	   2.1817345e-02	   5.7301912e-02	
   1.1440000e+01	   2.5482225e-02	   5.6612422e-02	
   1.1495000e+01	   3.0381357e-02	   5.5836503e-02	
   1.1550000e+01	   3.6424812e-02	   5.4928196e-02	
   1.1605000e+01	   4.3497964e-02	   5.3855229e-02	
   1.1660000e+01	   5.1457455e-02	   5.2600171e-02	
   1.1715000e+01	   6.0127667e-02	   5.1160606e-02	
   1.1770000e+01	   6.9298846e-02	   4.9548778e-02	
   1.1825000e+01	   7.8728445e-02	   4.7790201e-02	
   1.1880000e+01	   8.8147112e-02	   4.5920230e-02	
   1.1935000e+01	   9.7269266e-02	   4.3978940e-02	
   1.1990000e+01	   1.0580597e-01	   4.2006081e-02	
   1.2045000e+01	   1.1347652e-01	   4.0037835e-02	
   1.2100000e+01	   1.2001732e-01	   3.8106394e-02	
   1.2155000e+01	   1.2519046e-01	   3.6242681e-02	
   1.2210000e+01	   1.2879394e-01	   3.4480979e-02	
   1.2265000e+01	   1.3067210e-01	   3.2862376e-02	
   1.2320000e+01	   1.3072357e-01	   3.1434534e-02	
   1.2375000e+01	   1.2890602e-01	   3.0248134e-02	
   1.2430000e+01	   1.2523877e-01	   2.9352398e-02	
   1.2485000e+01	   1.1980325e-01	   2.8791160e-02	
   1.2540000e+01	   1.1274026e-01	   2.8599414e-02	
   1.2595000e+01	   1.0424368e-01	   2.8800052e-02	
   1.2650000e+01	   9.4550527e-02	   2.9401136e-02	
   1.2705000e+01	   8.3928867e-02	   3.0394313e-02	
   1.2760000e+01	   7.2665095e-02	   3.1755008e-02	
   1.2815000e+01	   6.1051813e-02	   3.3445008e-02	
   1.2870000e+01	   4.9377300e-02	   3.5417390e-02	
   1.2925000e+01	   3.7917284e-02	   3.7622541e-02	
   1.2980000e+01	   2.6928729e-02	   4.0013681e-02	
   1.3035000e+01	   1.6644476e-02	   4.2551286e-02	
   1.3090000e+01	   7.2683019e-03	   4.5206631e-02	
   1.3145000e+01	  -1.0284807e-03	   4.7963924e-02	
   1.3200000e+01	  -8.1077477e-03	   5.0820009e-02	
   1.3255000e+01	  -1.3863338e-02	   5.3781676e-02	
   1.3310000e+01	  -1.8219871e-02	   5.6861752e-02	
   1.3365000e+01	  -2.1132935e-02	   6.0074944e-02	
   1.3420000e+01	  -2.2590471e-02	   6.3433882e-02	
   1.3475000e+01	  -2.2614264e-02	   6.6945755e-02	
   1.3530000e+01	  -2.1260420e-02	   7.0609746e-02	
   1.3585000e+01	  -1.8618223e-02	   7.4415242e-02	
   1.3640000e+01	  -1.4807388e-02	   7.8341164e-02	
   1.3695000e+01	  -9.9735372e-03	   8.2357136e-02	
   1.3750000e+01	  -4.2817896e-03	   8.6426530e-02	
   1.3805000e+01	   2.0905507e-03	   9.0510668e-02	
   1.3860000e+01	   8.9610902e-03	   9.4573353e-02	
   1.3915000e+01	   1.6149806e-02	   9.8585159e-02	
   1.3970000e+01	   2.3487372e-02	   1.0252667e-01	
   1.4025000e+01	   3.0822189e-02	   1.0638917e-01	
   1.4080000e+01	   3.8023365e-02	   1.1017124e-01	
   1.4135000e+01	   4.4979846e-02	   1.1387141e-01	
   1.4190000e+01	   5.1598055e-02	   1.1747890e-01	
   1.4245000e+01	   5.7799580e-02	   1.2096503e-01	
   1.4300000e+01	   6.3518994e-02	   1.2427713e-01	
   1.4355000e+01	   6.8701895e-02	   1.2733624e-01	
   1.4410000e+01	   7.3303829e-02	   1.3003879e-01	
   1.4465000e+01	   7.7290720e-02	   1.3226211e-01	
   1.4520000e+01	   8.0640670e-02	   1.3387303e-01	
   1.4575000e+01	   8.3346093e-02	   1.3473863e-01	
   1.4630000e+01	   8.5414606e-02	   1.3473749e-01	
   1.4685000e+01	   8.6867435e-02	   1.3377002e-01	
   1.4740000e+01	   8.7735938e-02	   1.3176673e-01	
   1.4795000e+01	   8.8059019e-02	   1.2869429e-01	
   1.4850000e+01	   8.7883631e-02	   1.2455884e-01	
   1.4905000e+01	   8.7266953e-02	   1.1940604e-01	
   1.4960000e+01	   8.6277138e-02	   1.1331746e-01	
   1.5015000e+01	   8.4991973e-02	   1.0640466e-01	
   1.5070000e+01	   8.3497380e-02	   9.8802887e-02	
   1.5125000e+01	   8.1887330e-02	   9.0665650e-02	
   1.5180000e+01	   8.0265594e-02	   8.2160489e-02	
   1.5235000e+01	   7.8749541e-02	   7.3466917e-02	
   1.5290000e+01	   7.7476139e-02	   6.4777336e-02	
   1.5345000e+01	   7.6608969e-02	   5.6300393e-02	
   1.5400000e+01	   7.6343783e-02	   4.8265200e-02	
   1.5455000e+01	   7.6910813e-02	   4.0925261e-02	
   1.5510000e+01	   7.8573567e-02	   3.4561143e-02	
   1.5565000e+01	   8.1623830e-02	   2.9480029e-02	
   1.5620000e+01	   8.6372369e-02	   2.6010201e-02	
   1.5675000e+01	   9.3136503e-02	   2.4490426e-02	
   1.5730000e+01	   1.0222675e-01	   2.5255858e-02	
   1.5785000e+01	   1.1393258e-01	   2.8622138e-02	
   1.5840000e+01	   1.2850497e-01	   3.4868967e-02	
   1.5895000e+01	   1.4613452e-01	   4.4224353e-02	
   1.5950000e+01	   1.6692714e-01	   5.6850487e-02	
   1.6005000e+01	   1.9088108e-01	   7.2831426e-02	
   1.6060000e+01	   2.1786870e-01	   9.2162843e-02	
   1.6115000e+01	   2.4762583e-01	   1.1474509e-01	
   1.6170000e+01	   2.7975026e-01	   1.4038115e-01	
   1.6225000e+01	   3.1370869e-01	   1.6877945e-01	
   1.6280000e+01	   3.4884979e-01	   1.9955992e-01	
   1.6335000e+01	   3.8442494e-01	   2.3226215e-01	
   1.6390000e+01	   4.1962058e-01	   2.6635599e-01	
   1.6445000e+01	   4.5360423e-01	   3.0125568e-01	
   1.6500000e+01	   4.8558206e-01	   3.3633841e-01	
   1.6555000e+01	   5.1485959e-01	   3.7096811e-01	
   1.6610000e+01	   5.4088980e-01	   4.0452311e-01	
   1.6665000e+01	   5.6329527e-01	   4.3642347e-01	
   1.6720000e+01	   5.8186572e-01	   4.6615351e-01	
   1.6775000e+01	   5.9654356e-01	   4.9327757e-01	
   1.6830000e+01	   6.0740657e-01	   5.1744983e-01	
   1.6885000e+01	   6.1465023e-01	   5.3841949e-01	
   1.6940000e+01	   6.1857016e-01	   5.5603228e-01	
   1.6995000e+01	   6.1954461e-01	   5.7022922e-01	
   1.7050000e+01	   6.1801636e-01	   5.8104245e-01	
   1.7105000e+01	   6.1447310e-01	   5.8858811e-01	
   1.7160000e+01	   6.0942766e-01	   5.9305640e-01	
   1.7215000e+01	   6.0340031e-01	   5.9470011e-01	
   1.7270000e+01	   5.9690231e-01	   5.9382224e-01	
   1.7325000e+01	   5.9041868e-01	   5.9076205e-01	
   1.7380000e+01	   5.8438889e-01	   5.8587893e-01	
   1.7435000e+01	   5.7918612e-01	   5.7953515e-01	
   1.7490000e+01	   5.7509694e-01	   5.7208011e-01	
   1.7545000e+01	   5.7230548e-01	   5.6383838e-01	
   1.7600000e+01	   5.7088652e-01	   5.5510219e-01	
   1.7655000e+01	   5.7080981e-01	   5.4612842e-01	
   1.7710000e+01	   5.7195356e-01	   5.3713874e-01	
   1.7765000e+01	   5.7412202e-01	   5.2832125e-01	
   1.7820000e+01	   5.7706364e-01	   5.1983227e-01	
   1.7875000e+01	   5.8048957e-01	   5.1179792e-01	
   1.7930000e+01	   5.8409351e-01	   5.0431570e-01	
   1.7985000e+01	   5.8757131e-01	   4.9745554e-01	
   1.8040000e+01	   5.9063721e-01	   4.9126054e-01	
   1.8095000e+01	   5.9303596e-01	   4.8574783e-01	
   1.8150000e+01	   5.9455186e-01	   4.8090986e-01	
   1.8205000e+01	   5.9501553e-01	   4.7671566e-01	
   1.8260000e+01	   5.9430771e-01	   4.7311202e-01	
   1.8315000e+01	   5.9236007e-01	   4.7002488e-01	
   1.8370000e+01	   5.8915383e-01	   4.6736176e-01	
   1.8425000e+01	   5.8471744e-01	   4.6501558e-01	
   1.8480000e+01	   5.7912431e-01	   4.6287004e-01	
   1.8535000e+01	   5.7249095e-01	   4.6080662e-01	
   1.8590000e+01	   5.6497446e-01	   4.5871215e-01	
   1.8645000e+01	   5.5676790e-01	   4.5648483e-01	
   1.8700000e+01	   5.4809224e-01	   4.5403728e-01	
   1.8755000e+01	   5.3918642e-01	   4.5129721e-01	
   1.8810000e+01	   5.3029816e-01	   4.4820727e-01	
   1.8865000e+01	   5.2167618e-01	   4.4472466e-01	
   1.8920000e+01	   5.1356314e-01	   4.4082006e-01	
   1.8975000e+01	   5.0618977e-01	   4.3647656e-01	
   1.9030000e+01	   4.9977082e-01	   4.3168954e-01	
   1.9085000e+01	   4.9450178e-01	   4.2646689e-01	
   1.9140000e+01	   4.9055423e-01	   4.2082857e-01	
   1.9195000e+01	   4.8807017e-01	   4.1480477e-01	
   1.9250000e+01	   4.8715648e-01	   4.0843445e-01	
   1.9305000e+01	   4.8788225e-01	   4.0176596e-01	
   1.9360000e+01	   4.9028052e-01	   3.9486113e-01	
   1.9415000e+01	   4.9435426e-01	   3.8780266e-01	
   1.9470000e+01	   5.0008369e-01	   3.8070257e-01	
   1.9525000e+01	   5.0743136e-01	   3.7370822e-01	
   1.9580000e+01	   5.1634200e-01	   3.6700299e-01	
   1.9635000e+01	   5.2673671e-01	   3.6080146e-01	
   1.9690000e+01	   5.3850360e-01	   3.5533977e-01	
   1.9745000e+01	   5.5148758e-01	   3.5086105e-01	
   1.9800000e+01	   5.6548014e-01	   3.4759483e-01	
   1.9855000e+01	   5.8020938e-01	   3.4573089e-01	
   1.9910000e+01	   5.9533408e-01	   3.4539044e-01	
   1.9965000e+01	   6.1045061e-01	   3.4660066e-01	
   2.0020000e+01	   6.2512213e-01	   3.4927959e-01	
   2.0075000e+01	   6.3893125e-01	   3.5323635e-01	
   2.0130000e+01	   6.5154138e-01	   3.5818678e-01	
   2.0185000e+01	   6.6273820e-01	   3.6378056e-01	
   2.0240000e+01	   6.7243362e-01	   3.6963332e-01	
   2.0295000e+01	   6.8064189e-01	   3.7535874e-01	
   2.0350000e+01	   6.8744885e-01	   3.8059675e-01	
   2.0405000e+01	   6.9298558e-01	   3.8503574e-01	
   2.0460000e+01	   6.9740768e-01	   3.8842787e-01	
   2.0515000e+01	   7.0087821e-01	   3.9059795e-01	
   2.0570000e+01	   7.0355365e-01	   3.9144726e-01	
   2.0625000e+01	   7.0557391e-01	   3.9095333e-01	
   2.0680000e+01	   7.0705625e-01	   3.8916578e-01	
   2.0735000e+01	   7.0809211e-01	   3.8619771e-01	
   2.0790000e+01	   7.0874630e-01	   3.8221247e-01	
   2.0845000e+01	   7.0906052e-01	   3.7740653e-01	
   2.0900000e+01	   7.0906611e-01	   3.7199099e-01	
   2.0955000e+01	   7.0881389e-01	   3.6617672e-01	
   2.1010000e+01	   7.0841884e-01	   3.6016838e-01	
   2.1065000e+01	   7.0809702e-01	   3.5416723e-01	
   2.1120000e+01	   7.0817090e-01	   3.4837750e-01	
   2.1175000e+01	   7.0904296e-01	   3.4301104e-01	
   2.1230000e+01	   7.1115301e-01	   3.3828842e-01	
   2.1285000e+01	   7.1493078e-01	   3.3443627e-01	
   2.1340000e+01	   7.2074866e-01	   3.3168081e-01	
   2.1395000e+01	   7.2887843e-01	   3.3023773e-01	
   2.1450000e+01	   7.3945429e-01	   3.3029821e-01	
   2.1505000e+01	   7.5244078e-01	   3.3201005e-01	
   2.1560000e+01	   7.6760287e-01	   3.3545369e-01	
   2.1615000e+01	   7.8448157e-01	   3.4061600e-01	
   2.1670000e+01	   8.0238990e-01	   3.4736859e-01	
   2.1725000e+01	   8.2044429e-01	   3.5545833e-01	
   2.1780000e+01	   8.3763250e-01	   3.6451404e-01	
   2.1835000e+01	   8.5289851e-01	   3.7406810e-01	
   2.1890000e+01	   8.6521397e-01	   3.8358783e-01	
   2.1945000e+01	   8.7361719e-01	   3.9250970e-01	
   2.2000000e+01	   8.7722617e-01	   4.0027110e-01	
   2.2055000e+01	   8.7524538e-01	   4.0633705e-01	
   2.2110000e+01	   8.6697981e-01	   4.1022177e-01	
   2.2165000e+01	   8.5185842e-01	   4.1150512e-01	
   2.2220000e+01	   8.2946354e-01	   4.0984321e-01	
   2.2275000e+01	   7.9956282e-01	   4.0497275e-01	
   2.2330000e+01	   7.6214176e-01	   3.9671019e-01	
   2.2385000e+01	   7.1743540e-01	   3.8494784e-01	
   2.2440000e+01	   6.6595244e-01	   3.6965153e-01	
   2.2495000e+01	   6.0847719e-01	   3.5086299e-01	
   2.2550000e+01	   5.4603910e-01	   3.2870637e-01	
   2.2605000e+01	   4.7985829e-01	   3.0339552e-01	
   2.2660000e+01	   4.1128479e-01	   2.7523885e-01	
   2.2715000e+01	   3.4173894e-01	   2.4463967e-01	
   2.2770000e+01	   2.7264941e-01	   2.1209009e-01	
   2.2825000e+01	   2.0538418e-01	   1.7815621e-01	
   2.2880000e+01	   1.4117942e-01	   1.4345384e-01	
   2.2935000e+01	   8.1083244e-02	   1.0861788e-01	
   2.2990000e+01	   2.5929359e-02	   7.4270567e-02	
   2.3045000e+01	  -2.3661969e-02	   4.0993600e-02	
   2.3100000e+01	  -6.7270167e-02	   9.3060445e-03	
   2.3155000e+01	  -1.0465867e-01	  -2.0351652e-02	
   2.3210000e+01	  -1.3575941e-01	  -4.7627870e-02	
   2.3265000e+01	  -1.6065639e-01	  -7.2265059e-02	
   2.3320000e+01	  -1.7956851e-01	  -9.4100746e-02	
   2.3375000e+01	  -1.9283222e-01	  -1.1306399e-01	
   2.3430000e+01	  -2.0088298e-01	  -1.2916643e-01	
   2.3485000e+01	  -2.0423461e-01	  -1.4248894e-01	
   2.3540000e+01	  -2.0345718e-01	  -1.5316687e-01	
   2.3595000e+01	  -1.9915478e-01	  -1.6137666e-01	
   2.3650000e+01	  -1.9194413e-01	  -1.6732455e-01	
   2.3705000e+01	  -1.8243557e-01	  -1.7123699e-01	
   2.3760000e+01	  -1.7121800e-01	  -1.7335241e-01	
   2.3815000e+01	  -1.5884759e-01	  -1.7391464e-01	
   2.3870000e+01	  -1.4583871e-01	  -1.7316779e-01	
   2.3925000e+01	  -1.3265622e-01	  -1.7135254e-01	
   2.3980000e+01	  -1.1970818e-01	  -1.6870390e-01	
   2.4035000e+01	  -1.0733798e-01	  -1.6544977e-01	
   2.4090000e+01	  -9.5816461e-02	  -1.6180932e-01	
   2.4145000e+01	  -8.5336613e-02	  -1.5799063e-01	
   2.4200000e+01	  -7.6012942e-02	  -1.5418802e-01	
   2.4255000e+01	  -6.7886153e-02	  -1.5057919e-01	
   2.4310000e+01	  -6.0931386e-02	  -1.4732127e-01	
   2.4365000e+01	  -5.5068164e-02	  -1.4454517e-01	
   2.4420000e+01	  -5.0171545e-02	  -1.4234896e-01	
   2.4475000e+01	  -4.6084427e-02	  -1.4079230e-01	
   2.4530000e+01	  -4.2630218e-02	  -1.3989337e-01	
   2.4585000e+01	  -3.9626170e-02	  -1.3962966e-01	
   2.4640000e+01	  -3.6898926e-02	  -1.3994311e-01	
   2.4695000e+01	  -3.4301421e-02	  -1.4074854e-01	
   2.4750000e+01	  -3.1726547e-02	  -1.4194311e-01	
   2.4805000e+01	  -2.9114267e-02	  -1.4341585e-01	
   2.4860000e+01	  -2.6453328e-02	  -1.4505690e-01	
   2.4915000e+01	  -2.3779914e-02	  -1.4676653e-01	
   2.4970000e+01	  -2.1173486e-02	  -1.4846360e-01	
   2.5025000e+01	  -1.8749603e-02	  -1.5009280e-01	
   2.5080000e+01	  -1.6651065e-02	  -1.5162981e-01	
   2.5135000e+01	  -1.5038633e-02	  -1.5308246e-01	
   2.5190000e+01	  -1.4081041e-02	  -1.5448621e-01	
   2.5245000e+01	  -1.3943735e-02	  -1.5589409e-01	
   2.5300000e+01	  -1.4776396e-02	  -1.5736367e-01	
   2.5355000e+01	  -1.6699171e-02	  -1.5894440e-01	
   2.5410000e+01	  -1.9787823e-02	  -1.6066772e-01	
   2.5465000e+01	  -2.4060120e-02	  -1.6254102e-01	
   2.5520000e+01	  -2.9467382e-02	  -1.6454625e-01	
   2.5575000e+01	  -3.5893631e-02	  -1.6664279e-01	
   2.5630000e+01	  -4.3161964e-02	  -1.6877390e-01	
   2.5685000e+01	  -5.1046711e-02	  -1.7087509e-01	
   2.5740000e+01	  -5.9289586e-02	  -1.7288334e-01	
   2.5795000e+01	  -6.7616818e-02	  -1.7474574e-01	
   2.5850000e+01	  -7.5754006e-02	  -1.7642649e-01	
   2.5905000e+01	  -8.3437796e-02	  -1.7791121e-01	
   2.5960000e+01	  -9.0425114e-02	  -1.7920830e-01	
   2.6015000e+01	  -9.6499892e-02	  -1.8034750e-01	
   2.6070000e+01	  -1.0147713e-01	  -1.8137590e-01	
   2.6125000e+01	  -1.0520629e-01	  -1.8235224e-01	
   2.6180000e+01	  -1.0757702e-01	  -1.8334037e-01	
   2.6235000e+01	  -1.0852771e-01	  -1.8440303e-01	
   2.6290000e+01	  -1.0805409e-01	  -1.8559643e-01	
   2.6345000e+01	  -1.0621434e-01	  -1.8696672e-01	
   2.6400000e+01	  -1.0312958e-01	  -1.8854867e-01	
   2.6455000e+01	  -9.8980117e-02	  -1.9036629e-01	
   2.6510000e+01	  -9.3997285e-02	  -1.9243447e-01	
   2.6565000e+01	  -8.8451541e-02	  -1.9476075e-01	
   2.6620000e+01	  -8.2639405e-02	  -1.9734674e-01	
   2.6675000e+01	  -7.6872281e-02	  -2.0018930e-01	
   2.6730000e+01	  -7.1466687e-02	  -2.0328090e-01	
   2.6785000e+01	  -6.6732666e-02	  -2.0660903e-01	
   2.6840000e+01	  -6.2958720e-02	  -2.1015497e-01	
   2.6895000e+01	  -6.0395006e-02	  -2.1389215e-01	
   2.6950000e+01	  -5.9237337e-02	  -2.1778462e-01	
   2.7005000e+01	  -5.9613264e-02	  -2.2178641e-01	
   2.7060000e+01	  -6.1571062e-02	  -2.2584274e-01	
   2.7115000e+01	  -6.5072677e-02	  -2.2989330e-01	
   2.7170000e+01	  -6.9991758e-02	  -2.3387645e-01	
   2.7225000e+01	  -7.6117756e-02	  -2.3773324e-01	
   2.7280000e+01	  -8.3166536e-02	  -2.4141116e-01	
   2.7335000e+01	  -9.0796636e-02	  -2.4486730e-01	
   2.7390000e+01	  -9.8629275e-02	  -2.4807059e-01	
   2.7445000e+01	  -1.0627028e-01	  -2.5100300e-01	
   2.7500000e+01	  -1.1333253e-01	  -2.5366018e-01	
   2.7555000e+01	  -1.1945847e-01	  -2.5605198e-01	
   2.7610000e+01	  -1.2434273e-01	  -2.5820243e-01	
   2.7665000e+01	  -1.2775331e-01	  -2.6014807e-01	
   2.7720000e+01	  -1.2954660e-01	  -2.6193359e-01	
   2.7775000e+01	  -1.2967218e-01	  -2.6360496e-01	
   2.7830000e+01	  -1.2816742e-01	  -2.6520156e-01	
   2.7885000e+01	  -1.2514509e-01	  -2.6674948e-01	
   2.7940000e+01	  -1.2077791e-01	  -2.6825808e-01	
   2.7995000e+01	  -1.1528299e-01	  -2.6971963e-01	
   2.8050000e+01	  -1.0890734e-01	  -2.7111050e-01	
   2.8105000e+01	  -1.0191396e-01	  -2.7239313e-01	
   2.8160000e+01	  -9.4568405e-02	  -2.7351945e-01	
   2.8215000e+01	  -8.7127052e-02	  -2.7443631e-01	
   2.8270000e+01	  -7.9827993e-02	  -2.7509235e-01	
   2.8325000e+01	  -7.2885155e-02	  -2.7544467e-01	
   2.8380000e+01	  -6.6486752e-02	  -2.7546451e-01	
   2.8435000e+01	  -6.0797544e-02	  -2.7514175e-01	
   2.8490000e+01	  -5.5961704e-02	  -2.7448776e-01	
   2.8545000e+01	  -5.2103242e-02	  -2.7353564e-01	
   2.8600000e+01	  -4.9323137e-02	  -2.7233704e-01	
   2.8655000e+01	  -4.7693884e-02	  -2.7095482e-01	
   2.8710000e+01	  -4.7252926e-02	  -2.6945284e-01	
   2.8765000e+01	  -4.7997088e-02	  -2.6788553e-01	
   2.8820000e+01	  -4.9880090e-02	  -2.6629026e-01	
   2.8875000e+01	  -5.2813684e-02	  -2.6468363e-01	
   2.8930000e+01	  -5.6671356e-02	  -2.6306117e-01	
   2.8985000e+01	  -6.1293545e-02	  -2.6139989e-01	
   2.9040000e+01	  -6.6494672e-02	  -2.5966357e-01	
   2.9095000e+01	  -7.2072898e-02	  -2.5780990e-01	
   2.9150000e+01	  -7.7822361e-02	  -2.5579816e-01	
   2.9205000e+01	  -8.3545099e-02	  -2.5359590e-01	
   2.9260000e+01	  -8.9059340e-02	  -2.5118370e-01	
   2.9315000e+01	  -9.4203984e-02	  -2.4855702e-01	
   2.9370000e+01	  -9.8841367e-02	  -2.4572560e-01	
   2.9425000e+01	  -1.0285889e-01	  -2.4271103e-01	
   2.9480000e+01	  -1.0616843e-01	  -2.3954345e-01	
   2.9535000e+01	  -1.0870387e-01	  -2.3625752e-01	
   2.9590000e+01	  -1.1041870e-01	  -2.3288810e-01	
   2.9645000e+01	  -1.1128489e-01	  -2.2946612e-01	
   2.9700000e+01	  -1.1129232e-01	  -2.2601552e-01	
   2.9755000e+01	  -1.1044834e-01	  -2.2255190e-01	
   2.9810000e+01	  -1.0877763e-01	  -2.1908313e-01	
   2.9865000e+01	  -1.0632195e-01	  -2.1561210e-01	
   2.9920000e+01	  -1.0313900e-01	  -2.1214064e-01	
   2.9975000e+01	  -9.9300149e-02	  -2.0867304e-01	
   3.0030000e+01	  -9.4886730e-02	  -2.0521747e-01	
   3.0085000e+01	  -8.9984696e-02	  -2.0178519e-01	
   3.0140000e+01	  -8.4677562e-02	  -1.9838922e-01	
   3.0195000e+01	  -7.9038625e-02	  -1.9504352e-01	
   3.0250000e+01	  -7.3124608e-02	  -1.9176241e-01	
   3.0305000e+01	  -6.6972358e-02	  -1.8855921e-01	
   3.0360000e+01	  -6.0598249e-02	  -1.8544383e-01	
   3.0415000e+01	  -5.3998268e-02	  -1.8242048e-01	
   3.0470000e+01	  -4.7147430e-02	  -1.7948653e-01	
   3.0525000e+01	  -3.9999999e-02	  -1.7663261e-01	
   3.0580000e+01	  -3.2494071e-02	  -1.7384400e-01	
   3.0635000e+01	  -2.4562206e-02	  -1.7110344e-01	
   3.0690000e+01	  -1.6146034e-02	  -1.6839465e-01	
   3.0745000e+01	  -7.2109197e-03	  -1.6570505e-01	
   3.0800000e+01	   2.2421954e-03	  -1.6302722e-01	
   3.0855000e+01	   1.2169037e-02	  -1.6035950e-01	
   3.0910000e+01	   2.2479800e-02	  -1.5770610e-01	
   3.0965000e+01	   3.3044489e-02	  -1.5507683e-01	
   3.1020000e+01	   4.3705466e-02	  -1.5248633e-01	
   3.1075000e+01	   5.4293071e-02	  -1.4995280e-01	
   3.1130000e+01	   6.4639388e-02	  -1.4749567e-01	
   3.1185000e+01	   7.4587736e-02	  -1.4513273e-01	
   3.1240000e+01	   8.3997955e-02	  -1.4287772e-01	
   3.1295000e+01	   9.2748921e-02	  -1.4073952e-01	
   3.1350000e+01	   1.0074030e-01	  -1.3872252e-01	
   3.1405000e+01	   1.0789487e-01	  -1.3682733e-01	
   3.1460000e+01	   1.1416154e-01	  -1.3505111e-01	
   3.1515000e+01	   1.1951889e-01	  -1.3338747e-01	
   3.1570000e+01	   1.2397917e-01	  -1.3182600e-01	
   3.1625000e+01	   1.2759078e-01	  -1.3035217e-01	
   3.1680000e+01	   1.3043674e-01	  -1.2894842e-01	
   3.1735000e+01	   1.3262846e-01	  -1.2759681e-01	
   3.1790000e+01	   1.3429634e-01	  -1.2628204e-01	
   3.1845000e+01	   1.3557926e-01	  -1.2499350e-01	
   3.1900000e+01	   1.3661439e-01	  -1.2372539e-01	
   3.1955000e+01	   1.3752920e-01	  -1.2247491e-01	
   3.2010000e+01	   1.3843656e-01	  -1.2123924e-01	
   3.2065000e+01	   1.3943243e-01	  -1.2001283e-01	
   3.2120000e+01	   1.4059450e-01	  -1.1878575e-01	
   3.2175000e+01	   1.4198157e-01	  -1.1754345e-01	
   3.2230000e+01	   1.4363527e-01	  -1.1626709e-01	
   3.2285000e+01	   1.4558561e-01	  -1.1493388e-01	
   3.2340000e+01	   1.4785910e-01	  -1.1351808e-01	
   3.2395000e+01	   1.5048716e-01	  -1.1199341e-01	
   3.2450000e+01	   1.5351352e-01	  -1.1033638e-01	
   3.2505000e+01	   1.5699871e-01	  -1.0853014e-01	
   3.2560000e+01	   1.6102011e-01	  -1.0656867e-01	
   3.2615000e+01	   1.6566706e-01	  -1.0446115e-01	
   3.2670000e+01	   1.7103214e-01	  -1.0223485e-01	
   3.2725000e+01	   1.7719975e-01	  -9.9935006e-02	
   3.2780000e+01	   1.8423329e-01	  -9.7621578e-02	
   3.2835000e+01	   1.9216254e-01	  -9.5363934e-02	
   3.2890000e+01	   2.0097315e-01	  -9.3234346e-02	
   3.2945000e+01	   2.1060071e-01	  -9.1301758e-02	
   3.3000000e+01	   2.2093068e-01	  -8.9627233e-02	
   3.3055000e+01	   2.3180283e-01	  -8.8261766e-02	
   3.3110000e+01	   2.4301765e-01	  -8.7245998e-02	
   3.3165000e+01	   2.5434351e-01	  -8.6611140e-02	
   3.3220000e+01	   2.6552375e-01	  -8.6380912e-02	
   3.3275000e+01	   2.7628356e-01	  -8.6574444e-02	
   3.3330000e+01	   2.8633678e-01	  -8.7209341e-02	
   3.3385000e+01	   2.9539375e-01	  -8.8303663e-02	
   3.3440000e+01	   3.0317012e-01	  -8.9876188e-02	
   3.3495000e+01	   3.0939619e-01	  -9.1945466e-02	
   3.3550000e+01	   3.1382625e-01	  -9.4528330e-02	
   3.3605000e+01	   3.1624836e-01	  -9.7637949e-02	
   3.3660000e+01	   3.1649494e-01	  -1.0128129e-01	
   3.3715000e+01	   3.1445402e-01	  -1.0545639e-01	
   3.3770000e+01	   3.1007904e-01	  -1.1015016e-01	
   3.3825000e+01	   3.0339440e-01	  -1.1533685e-01	
   3.3880000e+01	   2.9449454e-01	  -1.2097703e-01	
   3.3935000e+01	   2.8353660e-01	  -1.2701696e-01	
   3.3990000e+01	   2.7072904e-01	  -1.3338885e-01	
   3.4045000e+01	   2.5631898e-01	  -1.4001184e-01	
   3.4100000e+01	   2.4058208e-01	  -1.4679390e-01	
   3.4155000e+01	   2.2381682e-01	  -1.5363474e-01	
   3.4210000e+01	   2.0634207e-01	  -1.6042994e-01	
   3.4265000e+01	   1.8849420e-01	  -1.6707527e-01	
   3.4320000e+01	   1.7062130e-01	  -1.7347087e-01	
   3.4375000e+01	   1.5307420e-01	  -1.7952487e-01	
   3.4430000e+01	   1.3619522e-01	  -1.8515513e-01	
   3.4485000e+01	   1.2030568e-01	  -1.9028775e-01	
   3.4540000e+01	   1.0569371e-01	  -1.9485331e-01	
   3.4595000e+01	   9.2603978e-02	  -1.9878340e-01	
   3.4650000e+01	   8.1230616e-02	  -2.0200959e-01	
   3.4705000e+01	   7.1713827e-02	  -2.0446508e-01	
   3.4760000e+01	   6.4138879e-02	  -2.0608841e-01	
   3.4815000e+01	   5.8536308e-02	  -2.0682868e-01	
   3.4870000e+01	   5.4883865e-02	  -2.0665111e-01	
   3.4925000e+01	   5.3111169e-02	  -2.0554229e-01	
   3.4980000e+01	   5.3105684e-02	  -2.0351424e-01	
   3.5035000e+01	   5.4717378e-02	  -2.0060675e-01	
   3.5090000e+01	   5.7761763e-02	  -1.9688688e-01	
   3.5145000e+01	   6.2023635e-02	  -1.9244609e-01	
   3.5200000e+01	   6.7263910e-02	  -1.8739543e-01	
   3.5255000e+01	   7.3230312e-02	  -1.8185951e-01	
   3.5310000e+01	   7.9671383e-02	  -1.7596926e-01	
   3.5365000e+01	   8.6352081e-02	  -1.6985414e-01	
   3.5420000e+01	   9.3067733e-02	  -1.6363535e-01	
   3.5475000e+01	   9.9653157e-02	  -1.5742166e-01	
   3.5530000e+01	   1.0598637e-01	  -1.5130824e-01	
   3.5585000e+01	   1.1198833e-01	  -1.4537731e-01	
   3.5640000e+01	   1.1761937e-01	  -1.3969967e-01	
   3.5695000e+01	   1.2287173e-01	  -1.3433658e-01	
   3.5750000e+01	   1.2775970e-01	  -1.2934145e-01	
   3.5805000e+01	   1.3231058e-01	  -1.2476071e-01	
   3.5860000e+01	   1.3655847e-01	  -1.2063332e-01	
   3.5915000e+01	   1.4054023e-01	  -1.1698901e-01	
   3.5970000e+01	   1.4429360e-01	  -1.1384506e-01	
   3.6025000e+01	   1.4785819e-01	  -1.1120150e-01	
   3.6080000e+01	   1.5127943e-01	  -1.0903608e-01	
   3.6135000e+01	   1.5461304e-01	  -1.0730127e-01	
   3.6190000e+01	   1.5792734e-01	  -1.0592413e-01	
   3.6245000e+01	   1.6130219e-01	  -1.0480883e-01	
   3.6300000e+01	   1.6482444e-01	  -1.0384155e-01	
   3.6355000e+01	   1.6858077e-01	  -1.0289752e-01	
   3.6410000e+01	   1.7264997e-01	  -1.0184866e-01	
   3.6465000e+01	   1.7709649e-01	  -1.0057024e-01	
   3.6520000e+01	   1.8196614e-01	  -9.8946256e-02	
   3.6575000e+01	   1.8728296e-01	  -9.6874428e-02	
   3.6630000e+01	   1.9304658e-01	  -9.4271761e-02	
   3.6685000e+01	   1.9922989e-01	  -9.1080264e-02	
   3.6740000e+01	   2.0577770e-01	  -8.7271746e-02	
   3.6795000e+01	   2.1260668e-01	  -8.2850183e-02	
   3.6850000e+01	   2.1960723e-01	  -7.7850429e-02	
   3.6905000e+01	   2.2664849e-01	  -7.2333094e-02	
   3.6960000e+01	   2.3358647e-01	  -6.6376910e-02	
   3.7015000e+01	   2.4027418e-01	  -6.0070670e-02	
   3.7070000e+01	   2.4657251e-01	  -5.3505849e-02	
   3.7125000e+01	   2.5236045e-01	  -4.6770009e-02	
   3.7180000e+01	   2.5754145e-01	  -3.9941715e-02	
   3.7235000e+01	   2.6204299e-01	  -3.3088345e-02	
   3.7290000e+01	   2.6581111e-01	  -2.6266974e-02	
   3.7345000e+01	   2.6880450e-01	  -1.9527032e-02	
   3.7400000e+01	   2.7099171e-01	  -1.2913861e-02	
   3.7455000e+01	   2.7235117e-01	  -6.4726830e-03	
   3.7510000e+01	   2.7287171e-01	  -2.5131194e-04	
   3.7565000e+01	   2.7255181e-01	   5.7006381e-03	
   3.7620000e+01	   2.7139718e-01	   1.1336054e-02	
   3.7675000e+01	   2.6941820e-01	   1.6615659e-02	
   3.7730000e+01	   2.6662909e-01	   2.1512153e-02	
   3.7785000e+01	   2.6304955e-01	   2.6012597e-02	
   3.7840000e+01	   2.5870822e-01	   3.0119104e-02	
   3.7895000e+01	   2.5364653e-01	   3.3847677e-02	
   3.7950000e+01	   2.4792137e-01	   3.7225398e-02	
   3.8005000e+01	   2.4160567e-01	   4.0286592e-02	
   3.8060000e+01	   2.3478624e-01	   4.3068335e-02	
   3.8115000e+01	   2.2755935e-01	   4.5605395e-02	
   3.8170000e+01	   2.2002497e-01	   4.7925472e-02	
   3.8225000e+01	   2.1228082e-01	   5.0046127e-02	
   3.8280000e+01	   2.0441724e-01	   5.1973642e-02	
   3.8335000e+01	   1.9651306e-01	   5.3703097e-02	
   3.8390000e+01	   1.8863385e-01	   5.5219809e-02	
   3.8445000e+01	   1.8083367e-01	   5.6502750e-02	
   3.8500000e+01	   1.7315976e-01	   5.7529170e-02	
   3.8555000e+01	   1.6565796e-01	   5.8278791e-02	
   3.8610000e+01	   1.5837691e-01	   5.8736892e-02	
   3.8665000e+01	   1.5137120e-01	   5.8896295e-02	
   3.8720000e+01	   1.4470303e-01	   5.8757873e-02	
   3.8775000e+01	   1.3844141e-01	   5.8329422e-02	
   3.8830000e+01	   1.3265868e-01	   5.7623796e-02	
   3.8885000e+01	   1.2742552e-01	   5.6657251e-02	
   3.8940000e+01	   1.2280477e-01	   5.5447632e-02	
   3.8995000e+01	   1.1884326e-01	   5.4011375e-02	
   3.9050000e+01	   1.1556346e-01	   5.2359433e-02	
   3.9105000e+01	   1.1295845e-01	   5.0493522e-02	
   3.9160000e+01	   1.1099188e-01	   4.8403902e-02	
   3.9215000e+01	   1.0960212e-01	   4.6069359e-02	
   3.9270000e+01	   1.0870909e-01	   4.3460020e-02	
   3.9325000e+01	   1.0822294e-01	   4.0543373e-02	
   3.9380000e+01	   1.0805335e-01	   3.7292554e-02	
   3.9435000e+01	   1.0811781e-01	   3.3694599e-02	
   3.9490000e+01	   1.0834763e-01	   2.9756631e-02	
   3.9545000e+01	   1.0869104e-01	   2.5509189e-02	
   3.9600000e+01	   1.0911393e-01	   2.1006606e-02	
   3.9655000e+01	   1.0959877e-01	   1.6324444e-02	
   3.9710000e+01	   1.1014267e-01	   1.1554497e-02	
   3.9765000e+01	   1.1075511e-01	   6.7983242e-03	
   3.9820000e+01	   1.1145499e-01	   2.1600823e-03	
   3.9875000e+01	   1.1226495e-01	  -2.2608733e-03	
   3.9930000e+01	   1.1320267e-01	  -6.3769492e-03	
   3.9985000e+01	   1.1427091e-01	  -1.0118280e-02	
   4.0040000e+01	   1.1544925e-01	  -1.3437743e-02	
   4.0095000e+01	   1.1668986e-01	  -1.6314828e-02	
   4.0150000e+01	   1.1791736e-01	  -1.8757206e-02	
   4.0205000e+01	   1.1903243e-01	  -2.0798849e-02	
   4.0260000e+01	   1.1991810e-01	  -2.2494844e-02	
   4.0315000e+01	   1.2044754e-01	  -2.3914383e-02	
   4.0370000e+01	   1.2049278e-01	  -2.5133772e-02	
   4.0425000e+01	   1.1993497e-01	  -2.6230360e-02	
   4.0480000e+01	   1.1867623e-01	  -2.7277394e-02	
   4.0535000e+01	   1.1665002e-01	  -2.8339728e-02	
   4.0590000e+01	   1.1382695e-01	  -2.9470680e-02	
   4.0645000e+01	   1.1021563e-01	  -3.0710275e-02	
   4.0700000e+01	   1.0585893e-01	  -3.2085054e-02	
   4.0755000e+01	   1.0082669e-01	  -3.3609672e-02	
   4.0810000e+01	   9.5205311e-02	  -3.5290094e-02	
   4.0865000e+01	   8.9086188e-02	  -3.7127332e-02	
   4.0920000e+01	   8.2554782e-02	  -3.9120338e-02	
   4.0975000e+01	   7.5682437e-02	  -4.1267185e-02	
   4.1030000e+01	   6.8522395e-02	  -4.3564179e-02	
   4.1085000e+01	   6.1109267e-02	  -4.6003404e-02	
   4.1140000e+01	   5.3458823e-02	  -4.8570440e-02	
   4.1195000e+01	   4.5566369e-02	  -5.1243848e-02	
   4.1250000e+01	   3.7406005e-02	  -5.3996179e-02	
   4.1305000e+01	   2.8934266e-02	  -5.6795306e-02	
   4.1360000e+01	   2.0098843e-02	  -5.9605882e-02	
   4.1415000e+01	   1.0850049e-02	  -6.2391852e-02	
   4.1470000e+01	   1.1519786e-03	  -6.5120295e-02	
   4.1525000e+01	  -9.0091271e-03	  -6.7765635e-02	
   4.1580000e+01	  -1.9620768e-02	  -7.0313090e-02	
   4.1635000e+01	  -3.0643838e-02	  -7.2760536e-02	
   4.1690000e+01	  -4.2013345e-02	  -7.5117800e-02	
   4.1745000e+01	  -5.3637583e-02	  -7.7402621e-02	
   4.1800000e+01	  -6.5396081e-02	  -7.9633823e-02	
   4.1855000e+01	  -7.7139113e-02	  -8.1823757e-02	
   4.1910000e+01	  -8.8690373e-02	  -8.3971995e-02	
   4.1965000e+01	  -9.9851844e-02	  -8.6061117e-02	
   4.2020000e+01	  -1.1040968e-01	  -8.8055102e-02	
   4.2075000e+01	  -1.2014145e-01	  -8.9901116e-02	
   4.2130000e+01	  -1.2882601e-01	  -9.1534851e-02	
   4.2185000e+01	  -1.3625621e-01	  -9.2888394e-02	
   4.2240000e+01	  -1.4225331e-01	  -9.3899436e-02	
   4.2295000e+01	  -1.4668063e-01	  -9.4520731e-02	
   4.2350000e+01	  -1.4945398e-01	  -9.4728422e-02	
   4.2405000e+01	  -1.5054809e-01	  -9.4527737e-02	
   4.2460000e+01	  -1.5000024e-01	  -9.3955221e-02	
   4.2515000e+01	  -1.4791233e-01	  -9.3077182e-02	
   4.2570000e+01	  -1.4445017e-01	  -9.1984172e-02	
   4.2625000e+01	  -1.3983793e-01	  -9.0781658e-02	
   4.2680000e+01	  -1.3434765e-01	  -8.9578332e-02	
   4.2735000e+01	  -1.2828671e-01	  -8.8474577e-02	
   4.2790000e+01	  -1.2198580e-01	  -8.7553021e-02	
   4.2845000e+01	  -1.1578788e-01	  -8.6871750e-02	
   4.2900000e+01	  -1.1003692e-01	  -8.6460253e-02	
   4.2955000e+01	  -1.0506658e-01	  -8.6318285e-02	
   4.3010000e+01	  -1.0118979e-01	  -8.6417874e-02	
   4.3065000e+01	  -9.8688983e-02	  -8.6708403e-02	
   4.3120000e+01	  -9.7805098e-02	  -8.7124404e-02	
   4.3175000e+01	  -9.8726200e-02	  -8.7595105e-02	
   4.3230000e+01	  -1.0157864e-01	  -8.8053959e-02	
   4.3285000e+01	  -1.0642319e-01	  -8.8446117e-02	
   4.3340000e+01	  -1.1325551e-01	  -8.8732711e-02	
   4.3395000e+01	  -1.2200912e-01	  -8.8892093e-02	
   4.3450000e+01	  -1.3255987e-01	  -8.8918632e-02	
   4.3505000e+01	  -1.4473106e-01	  -8.8819616e-02	
   4.3560000e+01	  -1.5829913e-01	  -8.8611241e-02	
   4.3615000e+01	  -1.7300154e-01	  -8.8314753e-02	
   4.3670000e+01	  -1.8854737e-01	  -8.7953165e-02	
   4.3725000e+01	  -2.0462875e-01	  -8.7548651e-02	
   4.3780000e+01	  -2.2092995e-01	  -8.7121274e-02	
   4.3835000e+01	  -2.3713404e-01	  -8.6689729e-02	
   4.3890000e+01	  -2.5292863e-01	  -8.6273670e-02	
   4.3945000e+01	  -2.6801227e-01	  -8.5896454e-02	
   4.4000000e+01	  -2.8210262e-01	  -8.5587389e-02	
   4.4055000e+01	  -2.9494633e-01	  -8.5382806e-02	
   4.4110000e+01	  -3.0632941e-01	  -8.5325179e-02	
   4.4165000e+01	  -3.1608638e-01	  -8.5460023e-02	
   4.4220000e+01	  -3.2410661e-01	  -8.5831598e-02	
   4.4275000e+01	  -3.3033609e-01	  -8.6478952e-02	
   4.4330000e+01	  -3.3477485e-01	  -8.7432656e-02	
   4.4385000e+01	  -3.3747126e-01	  -8.8711842e-02	
   4.4440000e+01	  -3.3851589e-01	  -9.0321905e-02	
   4.4495000e+01	  -3.3803656e-01	  -9.2253727e-02	
   4.4550000e+01	  -3.3619374e-01	  -9.4484344e-02	
   4.4605000e+01	  -3.3317342e-01	  -9.6978283e-02	
   4.4660000e+01	  -3.2917702e-01	  -9.9689428e-02	
   4.4715000e+01	  -3.2441125e-01	  -1.0256400e-01	
   4.4770000e+01	  -3.1908051e-01	  -1.0554436e-01	
   4.4825000e+01	  -3.1338186e-01	  -1.0857182e-01	
   4.4880000e+01	  -3.0750271e-01	  -1.1158759e-01	
   4.4935000e+01	  -3.0162023e-01	  -1.1453265e-01	
   4.4990000e+01	  -2.9589952e-01	  -1.1734802e-01	
   4.5045000e+01	  -2.9048811e-01	  -1.1997499e-01	
   4.5100000e+01	  -2.8550774e-01	  -1.2235546e-01	
   4.5155000e+01	  -2.8104644e-01	  -1.2443291e-01	
   4.5210000e+01	  -2.7715328e-01	  -1.2615434e-01	
   4.5265000e+01	  -2.7383675e-01	  -1.2747314e-01	
   4.5320000e+01	  -2.7106698e-01	  -1.2835315e-01	
   4.5375000e+01	  -2.6878167e-01	  -1.2877377e-01	
   4.5430000e+01	  -2.6689518e-01	  -1.2873500e-01	
   4.5485000e+01	  -2.6530868e-01	  -1.2825996e-01	
   4.5540000e+01	  -2.6391893e-01	  -1.2739330e-01	
   4.5595000e+01	  -2.6262498e-01	  -1.2619596e-01	
   4.5650000e+01	  -2.6133383e-01	  -1.2473840e-01	
   4.5705000e+01	  -2.5996439e-01	  -1.2309402e-01	
   4.5760000e+01	  -2.5844920e-01	  -1.2133385e-01	
   4.5815000e+01	  -2.5673418e-01	  -1.1952313e-01	
   4.5870000e+01	  -2.5477813e-01	  -1.1771971e-01	
   4.5925000e+01	  -2.5255225e-01	  -1.1597348e-01	
   4.5980000e+01	  -2.5004002e-01	  -1.1432638e-01	
   4.6035000e+01	  -2.4723780e-01	  -1.1281278e-01	
   4.6090000e+01	  -2.4415561e-01	  -1.1145996e-01	
   4.6145000e+01	  -2.4081696e-01	  -1.1028846e-01	
   4.6200000e+01	  -2.3725683e-01	  -1.0931242e-01	
   4.6255000e+01	  -2.3351790e-01	  -1.0854046e-01	
   4.6310000e+01	  -2.2964480e-01	  -1.0797653e-01	
   4.6365000e+01	  -2.2567582e-01	  -1.0761975e-01	
   4.6420000e+01	  -2.2163282e-01	  -1.0746286e-01	
   4.6475000e+01	  -2.1751204e-01	  -1.0748953e-01	
   4.6530000e+01	  -2.1327858e-01	  -1.0767194e-01	
   4.6585000e+01	  -2.0886591e-01	  -1.0796919e-01	
   4.6640000e+01	  -2.0417994e-01	  -1.0832758e-01	
   4.6695000e+01	  -1.9910763e-01	  -1.0868353e-01	
   4.6750000e+01	  -1.9353069e-01	  -1.0896918e-01	
   4.6805000e+01	  -1.8734228e-01	  -1.0911912e-01	
   4.6860000e+01	  -1.8046267e-01	  -1.0907664e-01	
   4.6915000e+01	  -1.7285147e-01	  -1.0879956e-01	
   4.6970000e+01	  -1.6451652e-01	  -1.0826559e-01	
   4.7025000e+01	  -1.5551968e-01	  -1.0747608e-01	
   4.7080000e+01	  -1.4597960e-01	  -1.0645699e-01	
   4.7135000e+01	  -1.3607109e-01	  -1.0525660e-01	
   4.7190000e+01	  -1.2602002e-01	  -1.0394073e-01	
   4.7245000e+01	  -1.1609236e-01	  -1.0258630e-01	
   4.7300000e+01	  -1.0657739e-01	  -1.0127440e-01	
   4.7355000e+01	  -9.7767744e-02	  -1.0008360e-01	
   4.7410000e+01	  -8.9938464e-02	  -9.9084224e-02	
   4.7465000e+01	  -8.3327386e-02	  -9.8333253e-02	
   4.7520000e+01	  -7.8118466e-02	  -9.7870095e-02	
   4.7575000e+01	  -7.4430045e-02	  -9.7714110e-02	
   4.7630000e+01	  -7.2309246e-02	  -9.7864527e-02	
   4.7685000e+01	  -7.1732620e-02	  -9.8302243e-02	
   4.7740000e+01	  -7.2612478e-02	  -9.8992866e-02	
   4.7795000e+01	  -7.4808499e-02	  -9.9890874e-02	
   4.7850000e+01	  -7.8143611e-02	  -1.0094433e-01	
   4.7905000e+01	  -8.2420946e-02	  -1.0209886e-01	
   4.7960000e+01	  -8.7437589e-02	  -1.0330021e-01	
   4.8015000e+01	  -9.2993644e-02	  -1.0449568e-01	
   4.8070000e+01	  -9.8898078e-02	  -1.0563510e-01	
   4.8125000e+01	  -1.0497256e-01	  -1.0667167e-01	
   4.8180000e+01	  -1.1105366e-01	  -1.0756315e-01	
   4.8235000e+01	  -1.1699450e-01	  -1.0827422e-01	
   4.8290000e+01	  -1.2266699e-01	  -1.0877955e-01	
   4.8345000e+01	  -1.2796479e-01	  -1.0906701e-01	
   4.8400000e+01	  -1.3280649e-01	  -1.0913984e-01	
   4.8455000e+01	  -1.3713877e-01	  -1.0901794e-01	
   4.8510000e+01	  -1.4093800e-01	  -1.0873769e-01	
   4.8565000e+01	  -1.4420941e-01	  -1.0834947e-01	
   4.8620000e+01	  -1.4698419e-01	  -1.0791270e-01	
   4.8675000e+01	  -1.4931634e-01	  -1.0748910e-01	
   4.8730000e+01	  -1.5128023e-01	  -1.0713595e-01	
   4.8785000e+01	  -1.5296846e-01	  -1.0690041e-01	
   4.8840000e+01	  -1.5448852e-01	  -1.0681549e-01	
   4.8895000e+01	  -1.5595675e-01	  -1.0689732e-01	
   4.8950000e+01	  -1.5748923e-01	  -1.0714386e-01	
   4.9005000e+01	  -1.5919130e-01	  -1.0753491e-01	
   4.9060000e+01	  -1.6114801e-01	  -1.0803451e-01	
   4.9115000e+01	  -1.6341769e-01	  -1.0859575e-01	
   4.9170000e+01	  -1.6602923e-01	  -1.0916756e-01	
   4.9225000e+01	  -1.6898258e-01	  -1.0970197e-01	
   4.9280000e+01	  -1.7225212e-01	  -1.1016043e-01	
   4.9335000e+01	  -1.7579307e-01	  -1.1051836e-01	
   4.9390000e+01	  -1.7955014e-01	  -1.1076766e-01	
   4.9445000e+01	  -1.8346565e-01	  -1.1091655e-01	
   4.9500000e+01	  -1.8748425e-01	  -1.1098697e-01	
   4.9555000e+01	  -1.9155379e-01	  -1.1101002e-01	
   4.9610000e+01	  -1.9562392e-01	  -1.1102091e-01	
   4.9665000e+01	  -1.9964437e-01	  -1.1105468e-01	
   4.9720000e+01	  -2.0356374e-01	  -1.1114299e-01	
   4.9775000e+01	  -2.0733027e-01	  -1.1131223e-01	
   4.9830000e+01	  -2.1089556e-01	  -1.1158245e-01	
   4.9885000e+01	  -2.1422086e-01	  -1.1196693e-01	
   4.9940000e+01	  -2.1728347e-01	  -1.1247271e-01	
   4.9995000e+01	  -2.2008147e-01	  -1.1310276e-01	
   5.0050000e+01	  -2.2263606e-01	  -1.1386013e-01	
   5.0105000e+01	  -2.2499197e-01	  -1.1475256e-01	
   5.0160000e+01	  -2.2721649e-01	  -1.1579612e-01	
   5.0215000e+01	  -2.2939791e-01	  -1.1701675e-01	
   5.0270000e+01	  -2.3164367e-01	  -1.1844912e-01	
   5.0325000e+01	  -2.3407716e-01	  -1.2013277e-01	
   5.0380000e+01	  -2.3683249e-01	  -1.2210692e-01	
   5.0435000e+01	  -2.4004792e-01	  -1.2440563e-01	
   5.0490000e+01	  -2.4385866e-01	  -1.2705395e-01	
   5.0545000e+01	  -2.4838870e-01	  -1.3006443e-01	
   5.0600000e+01	  -2.5374215e-01	  -1.3343412e-01	
   5.0655000e+01	  -2.5999598e-01	  -1.3714310e-01	
   5.0710000e+01	  -2.6719545e-01	  -1.4115552e-01	
   5.0765000e+01	  -2.7535183e-01	  -1.4542246e-01	
   5.0820000e+01	  -2.8444209e-01	  -1.4988613e-01	
   5.0875000e+01	  -2.9441178e-01	  -1.5448524e-01	
   5.0930000e+01	  -3.0518158e-01	  -1.5916058e-01	
   5.0985000e+01	  -3.1665559e-01	  -1.6385897e-01	
   5.1040000e+01	  -3.2872877e-01	  -1.6853378e-01	
   5.1095000e+01	  -3.4129216e-01	  -1.7314212e-01	
   5.1150000e+01	  -3.5423548e-01	  -1.7764026e-01	
   5.1205000e+01	  -3.6744639e-01	  -1.8197911e-01	
   5.1260000e+01	  -3.8080703e-01	  -1.8610142e-01	
   5.1315000e+01	  -3.9418958e-01	  -1.8994146e-01	
   5.1370000e+01	  -4.0745215e-01	  -1.9342731e-01	
   5.1425000e+01	  -4.2043611e-01	  -1.9648478e-01	
   5.1480000e+01	  -4.3296665e-01	  -1.9904263e-01	
   5.1535000e+01	  -4.4485837e-01	  -2.0103847e-01	
   5.1590000e+01	  -4.5592527e-01	  -2.0242451e-01	
   5.1645000e+01	  -4.6599245e-01	  -2.0317204e-01	
   5.1700000e+01	  -4.7490681e-01	  -2.0327379e-01	
   5.1755000e+01	  -4.8254545e-01	  -2.0274369e-01	
   5.1810000e+01	  -4.8882213e-01	  -2.0161381e-01	
   5.1865000e+01	  -4.9369201e-01	  -1.9992886e-01	
   5.1920000e+01	  -4.9715441e-01	  -1.9774017e-01	
   5.1975000e+01	  -4.9925377e-01	  -1.9510133e-01	
   5.2030000e+01	  -5.0007826e-01	  -1.9206648e-01	
   5.2085000e+01	  -4.9975418e-01	  -1.8869059e-01	
   5.2140000e+01	  -4.9843676e-01	  -1.8503075e-01	
   5.2195000e+01	  -4.9630004e-01	  -1.8114839e-01	
   5.2250000e+01	  -4.9352841e-01	  -1.7711170e-01	
   5.2305000e+01	  -4.9030954e-01	  -1.7299762e-01	
   5.2360000e+01	  -4.8682872e-01	  -1.6889239e-01	
   5.2415000e+01	  -4.8326561e-01	  -1.6489031e-01	
   5.2470000e+01	  -4.7979309e-01	  -1.6109102e-01	
   5.2525000e+01	  -4.7657632e-01	  -1.5759547e-01	
   5.2580000e+01	  -4.7377067e-01	  -1.5450041e-01	
   5.2635000e+01	  -4.7151800e-01	  -1.5189132e-01	
   5.2690000e+01	  -4.6994163e-01	  -1.4983520e-01	
   5.2745000e+01	  -4.6914142e-01	  -1.4837454e-01	
   5.2800000e+01	  -4.6919121e-01	  -1.4752353e-01	
   5.2855000e+01	  -4.7013965e-01	  -1.4726671e-01	
   5.2910000e+01	  -4.7201312e-01	  -1.4756099e-01	
   5.2965000e+01	  -4.7481814e-01	  -1.4834106e-01	
   5.3020000e+01	  -4.7854231e-01	  -1.4952755e-01	
   5.3075000e+01	  -4.8315513e-01	  -1.5103681e-01	
   5.3130000e+01	  -4.8861061e-01	  -1.5279057e-01	
   5.3185000e+01	  -4.9485092e-01	  -1.5472379e-01	
   5.3240000e+01	  -5.0180924e-01	  -1.5678971e-01	
   5.3295000e+01	  -5.0941023e-01	  -1.5896173e-01	
   5.3350000e+01	  -5.1756844e-01	  -1.6123243e-01	
   5.3405000e+01	  -5.2618428e-01	  -1.6360970e-01	
   5.3460000e+01	  -5.3513792e-01	  -1.6611008e-01	
   5.3515000e+01	  -5.4428273e-01	  -1.6875073e-01	
   5.3570000e+01	  -5.5344102e-01	  -1.7154214e-01	
   5.3625000e+01	  -5.6240328e-01	  -1.7448270e-01	
   5.3680000e+01	  -5.7093222e-01	  -1.7755535e-01	
   5.3735000e+01	  -5.7877319e-01	  -1.8072649e-01	
   5.3790000e+01	  -5.8567092e-01	  -1.8394746e-01	
   5.3845000e+01	  -5.9138927e-01	  -1.8715812e-01	
   5.3900000e+01	  -5.9572871e-01	  -1.9029156e-01	
   5.3955000e+01	  -5.9853848e-01	  -1.9327939e-01	
   5.4010000e+01	  -5.9972270e-01	  -1.9605661e-01	
   5.4065000e+01	  -5.9924116e-01	  -1.9856567e-01	
   5.4120000e+01	  -5.9710619e-01	  -2.0075966e-01	
   5.4175000e+01	  -5.9337776e-01	  -2.0260475e-01	
   5.4230000e+01	  -5.8815884e-01	  -2.0408114e-01	
   5.4285000e+01	  -5.8159206e-01	  -2.0518204e-01	
   5.4340000e+01	  -5.7385771e-01	  -2.0591184e-01	
   5.4395000e+01	  -5.6517235e-01	  -2.0628477e-01	
   5.4450000e+01	  -5.5578678e-01	  -2.0632425e-01	
   5.4505000e+01	  -5.4598169e-01	  -2.0606225e-01	
   5.4560000e+01	  -5.3605954e-01	  -2.0553784e-01	
   5.4615000e+01	  -5.2633272e-01	  -2.0479549e-01	
   5.4670000e+01	  -5.1710909e-01	  -2.0388425e-01	
   5.4725000e+01	  -5.0867786e-01	  -2.0285840e-01	
   5.4780000e+01	  -5.0129913e-01	  -2.0177890e-01	
   5.4835000e+01	  -4.9519884e-01	  -2.0071473e-01	
   5.4890000e+01	  -4.9056791e-01	  -1.9974295e-01	
   5.4945000e+01	  -4.8756252e-01	  -1.9894635e-01	
   5.5000000e+01	  -4.8630254e-01	  -1.9840863e-01	
   5.5055000e+01	  -4.8686772e-01	  -1.9820742e-01	
   5.5110000e+01	  -4.8929353e-01	  -1.9840641e-01	
   5.5165000e+01	  -4.9356862e-01	  -1.9904813e-01	
   5.5220000e+01	  -4.9963444e-01	  -2.0014904e-01	
   5.5275000e+01	  -5.0738615e-01	  -2.0169782e-01	
   5.5330000e+01	  -5.1667436e-01	  -2.0365685e-01	
   5.5385000e+01	  -5.2730757e-01	  -2.0596559e-01	
   5.5440000e+01	  -5.3905568e-01	  -2.0854437e-01	
   5.5495000e+01	  -5.5165591e-01	  -2.1129793e-01	
   5.5550000e+01	  -5.6482223e-01	  -2.1411934e-01	
   5.5605000e+01	  -5.7825811e-01	  -2.1689516e-01	
   5.5660000e+01	  -5.9167112e-01	  -2.1951148e-01	
   5.5715000e+01	  -6.0478719e-01	  -2.2186012e-01	
   5.5770000e+01	  -6.1736241e-01	  -2.2384371e-01	
   5.5825000e+01	  -6.2919066e-01	  -2.2537861e-01	
   5.5880000e+01	  -6.4010722e-01	  -2.2639543e-01	
   5.5935000e+01	  -6.4998876e-01	  -2.2683794e-01	
   5.5990000e+01	  -6.5875117e-01	  -2.2666199e-01	
   5.6045000e+01	  -6.6634622e-01	  -2.2583519e-01	
   5.6100000e+01	  -6.7275813e-01	  -2.2433770e-01	
   5.6155000e+01	  -6.7799979e-01	  -2.2216347e-01	
   5.6210000e+01	  -6.8210688e-01	  -2.1932083e-01	
   5.6265000e+01	  -6.8512888e-01	  -2.1583122e-01	
   5.6320000e+01	  -6.8711822e-01	  -2.1172605e-01	
   5.6375000e+01	  -6.8811976e-01	  -2.0704343e-01	
   5.6430000e+01	  -6.8816223e-01	  -2.0182577e-01	
   5.6485000e+01	  -6.8725133e-01	  -1.9611801e-01	
   5.6540000e+01	  -6.8536562e-01	  -1.8996584e-01	
   5.6595000e+01	  -6.8245733e-01	  -1.8341364e-01	
   5.6650000e+01	  -6.7845928e-01	  -1.7650188e-01	
   5.6705000e+01	  -6.7329633e-01	  -1.6926401e-01	
   5.6760000e+01	  -6.6689869e-01	  -1.6172391e-01	
   5.6815000e+01	  -6.5921561e-01	  -1.5389557e-01	
   5.6870000e+01	  -6.5022726e-01	  -1.4578557e-01	
   5.6925000e+01	  -6.3995228e-01	  -1.3739719e-01	
   5.6980000e+01	  -6.2844952e-01	  -1.2873449e-01	
   5.7035000e+01	  -6.1581536e-01	  -1.1980610e-01	
   5.7090000e+01	  -6.0217868e-01	  -1.1062850e-01	
   5.7145000e+01	  -5.8769420e-01	  -1.0122803e-01	
   5.7200000e+01	  -5.7253441e-01	  -9.1640415e-02	
   5.7255000e+01	  -5.5687999e-01	  -8.1907849e-02	
   5.7310000e+01	  -5.4090914e-01	  -7.2073686e-02	
   5.7365000e+01	  -5.2478668e-01	  -6.2175508e-02	
   5.7420000e+01	  -5.0865514e-01	  -5.2238888e-02	
   5.7475000e+01	  -4.9263030e-01	  -4.2274696e-02	
   5.7530000e+01	  -4.7680128e-01	  -3.2280865e-02	
   5.7585000e+01	  -4.6123252e-01	  -2.2247138e-02	
   5.7640000e+01	  -4.4596646e-01	  -1.2160766e-02	
   5.7695000e+01	  -4.3102823e-01	  -2.0119795e-03	
   5.7750000e+01	  -4.1643326e-01	   8.2011021e-03	
   5.7805000e+01	  -4.0219554e-01	   1.8468402e-02	
   5.7860000e+01	  -3.8833360e-01	   2.8765031e-02	
   5.7915000e+01	  -3.7487404e-01	   3.9049854e-02	
   5.7970000e+01	  -3.6185270e-01	   4.9265692e-02	
   5.8025000e+01	  -3.4931396e-01	   5.9341783e-02	
   5.8080000e+01	  -3.3730871e-01	   6.9198846e-02	
   5.8135000e+01	  -3.2589196e-01	   7.8756002e-02	
   5.8190000e+01	  -3.1511921e-01	   8.7938328e-02	
   5.8245000e+01	  -3.0504013e-01	   9.6684055e-02	
   5.8300000e+01	  -2.9568970e-01	   1.0495059e-01	
   5.8355000e+01	  -2.8707974e-01	   1.1271835e-01	
   5.8410000e+01	  -2.7919378e-01	   1.1999180e-01	
   5.8465000e+01	  -2.7198515e-01	   1.2679813e-01	
   5.8520000e+01	  -2.6537769e-01	   1.3318401e-01	
   5.8575000e+01	  -2.5926921e-01	   1.3921069e-01	
   5.8630000e+01	  -2.5353861e-01	   1.4494806e-01	
   5.8685000e+01	  -2.4805498e-01	   1.5046900e-01	
   5.8740000e+01	  -2.4268586e-01	   1.5584521e-01	
   5.8795000e+01	  -2.3730275e-01	   1.6114484e-01	
   5.8850000e+01	  -2.3178316e-01	   1.6643127e-01	
   5.8905000e+01	  -2.2601017e-01	   1.7176234e-01	
   5.8960000e+01	  -2.1987179e-01	   1.7719000e-01	
   5.9015000e+01	  -2.1326272e-01	   1.8275978e-01	
   5.9070000e+01	  -2.0608913e-01	   1.8850971e-01	
   5.9125000e+01	  -1.9827370e-01	   1.9446881e-01	
   5.9180000e+01	  -1.8975812e-01	   2.0065567e-01	
   5.9235000e+01	  -1.8050329e-01	   2.0707728e-01	
   5.9290000e+01	  -1.7048940e-01	   2.1372782e-01	
   5.9345000e+01	  -1.5971819e-01	   2.2058720e-01	
   5.9400000e+01	  -1.4821734e-01	   2.2761990e-01	
   5.9455000e+01	  -1.3604561e-01	   2.3477413e-01	
   5.9510000e+01	  -1.2329650e-01	   2.4198109e-01	
   5.9565000e+01	  -1.1009894e-01	   2.4915499e-01	
   5.9620000e+01	  -9.6614031e-02	   2.5619491e-01	
   5.9675000e+01	  -8.3027439e-02	   2.6298896e-01	
   5.9730000e+01	  -6.9538550e-02	   2.6942060e-01	
   5.9785000e+01	  -5.6348942e-02	   2.7537583e-01	
   5.9840000e+01	  -4.3652314e-02	   2.8074951e-01	
   5.9895000e+01	  -3.1627082e-02	   2.8544883e-01	
   5.9950000e+01	  -2.0432089e-02	   2.8939393e-01	
   6.0005000e+01	  -1.0203879e-02	   2.9251759e-01	
   6.0060000e+01	  -1.0530369e-03	   2.9476615e-01	
   6.0115000e+01	   6.9404210e-03	   2.9610171e-01	
   6.0170000e+01	   1.3730244e-02	   2.9650455e-01	
   6.0225000e+01	   1.9303983e-02	   2.9597441e-01	
   6.0280000e+01	   2.3679212e-02	   2.9453019e-01	
   6.0335000e+01	   2.6895475e-02	   2.9220755e-01	
   6.0390000e+01	   2.9003240e-02	   2.8905505e-01	
   6.0445000e+01	   3.0054385e-02	   2.8513044e-01	
   6.0500000e+01	   3.0099019e-02	   2.8049863e-01	
   6.0555000e+01	   2.9189084e-02	   2.7523137e-01	
   6.0610000e+01	   2.7384460e-02	   2.6940765e-01	
   6.0665000e+01	   2.4756644e-02	   2.6311304e-01	
   6.0720000e+01	   2.1387808e-02	   2.5643786e-01	
   6.0775000e+01	   1.7365762e-02	   2.4947486e-01	
   6.0830000e+01	   1.2776883e-02	   2.4231724e-01	
   6.0885000e+01	   7.6999471e-03	   2.3505743e-01	
   6.0940000e+01	   2.2027642e-03	   2.2778620e-01	
   6.0995000e+01	  -3.6592183e-03	   2.2059107e-01	
   6.1050000e+01	  -9.8444889e-03	   2.1355331e-01	
   6.1105000e+01	  -1.6327787e-02	   2.0674377e-01	
   6.1160000e+01	  -2.3102128e-02	   2.0021840e-01	
   6.1215000e+01	  -3.0179183e-02	   1.9401431e-01	
   6.1270000e+01	  -3.7586555e-02	   1.8814773e-01	
   6.1325000e+01	  -4.5360696e-02	   1.8261540e-01	
   6.1380000e+01	  -5.3535896e-02	   1.7739873e-01	
   6.1435000e+01	  -6.2131687e-02	   1.7246908e-01	
   6.1490000e+01	  -7.1140993e-02	   1.6779224e-01	
   6.1545000e+01	  -8.0520344e-02	   1.6333211e-01	
   6.1600000e+01	  -9.0183545e-02	   1.5905384e-01	
   6.1655000e+01	  -1.0000032e-01	   1.5492589e-01	
   6.1710000e+01	  -1.0980023e-01	   1.5092002e-01	
   6.1765000e+01	  -1.1938037e-01	   1.4700931e-01	
   6.1820000e+01	  -1.2851492e-01	   1.4316480e-01	
   6.1875000e+01	  -1.3696603e-01	   1.3935128e-01	
   6.1930000e+01	  -1.4449744e-01	   1.3552307e-01	
   6.1985000e+01	  -1.5089136e-01	   1.3162151e-01	
   6.2040000e+01	  -1.5596785e-01	   1.2757569e-01	
   6.2095000e+01	  -1.5960343e-01	   1.2330626e-01	
   6.2150000e+01	  -1.6174440e-01	   1.1873112e-01	
   6.2205000e+01	  -1.6241167e-01	   1.1377178e-01	
   6.2260000e+01	  -1.6169770e-01	   1.0835976e-01	
   6.2315000e+01	  -1.5975728e-01	   1.0244209e-01	
   6.2370000e+01	  -1.5679434e-01	   9.5986089e-02	
   6.2425000e+01	  -1.5304584e-01	   8.8983300e-02	
   6.2480000e+01	  -1.4876528e-01	   8.1452699e-02	
   6.2535000e+01	  -1.4420877e-01	   7.3441363e-02	
   6.2590000e+01	  -1.3962482e-01	   6.5021570e-02	
   6.2645000e+01	  -1.3524656e-01	   5.6285197e-02	
   6.2700000e+01	  -1.3128414e-01	   4.7337150e-02	
   6.2755000e+01	  -1.2791733e-01	   3.8288287e-02	
   6.2810000e+01	  -1.2529043e-01	   2.9247717e-02	
   6.2865000e+01	  -1.2351031e-01	   2.0315660e-02	
   6.2920000e+01	  -1.2264662e-01	   1.1578899e-02	
   6.2975000e+01	  -1.2273253e-01	   3.1099314e-03	
   6.3030000e+01	  -1.2376518e-01	  -5.0307297e-03	
   6.3085000e+01	  -1.2570543e-01	  -1.2790560e-02	
   6.3140000e+01	  -1.2847751e-01	  -2.0121145e-02	
   6.3195000e+01	  -1.3196919e-01	  -2.6976041e-02	
   6.3250000e+01	  -1.3603248e-01	  -3.3311258e-02	
   6.3305000e+01	  -1.4048537e-01	  -3.9087857e-02	
   6.3360000e+01	  -1.4511764e-01	  -4.4275208e-02	
   6.3415000e+01	  -1.4970371e-01	  -4.8853776e-02	
   6.3470000e+01	  -1.5402325e-01	  -5.2817426e-02	
   6.3525000e+01	  -1.5788544e-01	  -5.6175798e-02	
   6.3580000e+01	  -1.6115070e-01	  -5.8957158e-02	
   6.3635000e+01	  -1.6374502e-01	  -6.1211443e-02	
   6.3690000e+01	  -1.6566560e-01	  -6.3012475e-02	
   6.3745000e+01	  -1.6697855e-01	  -6.4457720e-02	
   6.3800000e+01	  -1.6781111e-01	  -6.5664462e-02	
   6.3855000e+01	  -1.6833982e-01	  -6.6762521e-02	
   6.3910000e+01	  -1.6877549e-01	  -6.7884694e-02	
   6.3965000e+01	  -1.6934572e-01	  -6.9156712e-02	
   6.4020000e+01	  -1.7027709e-01	  -7.0689231e-02	
   6.4075000e+01	  -1.7177964e-01	  -7.2573794e-02	
   6.4130000e+01	  -1.7403551e-01	  -7.4882444e-02	
   6.4185000e+01	  -1.7719222e-01	  -7.7668897e-02	
   6.4240000e+01	  -1.8135887e-01	  -8.0969601e-02	
   6.4295000e+01	  -1.8660235e-01	  -8.4804589e-02	
   6.4350000e+01	  -1.9294268e-01	  -8.9178937e-02	
   6.4405000e+01	  -2.0034979e-01	  -9.4085519e-02	
   6.4460000e+01	  -2.0874392e-01	  -9.9509165e-02	
   6.4515000e+01	  -2.1799934e-01	  -1.0543126e-01	
   6.4570000e+01	  -2.2794995e-01	  -1.1183304e-01	
   6.4625000e+01	  -2.3839656e-01	  -1.1869638e-01	
   6.4680000e+01	  -2.4911610e-01	  -1.2600241e-01	
   6.4735000e+01	  -2.5987206e-01	  -1.3372865e-01	
   6.4790000e+01	  -2.7042540e-01	  -1.4184541e-01	
   6.4845000e+01	  -2.8054563e-01	  -1.5031185e-01	
   6.4900000e+01	  -2.9002281e-01	  -1.5907287e-01	
   6.4955000e+01	  -2.9868015e-01	  -1.6805741e-01	
   6.5010000e+01	  -3.0638409e-01	  -1.7717804e-01	
   6.5065000e+01	  -3.1304814e-01	  -1.8633148e-01	
   6.5120000e+01	  -3.1862912e-01	  -1.9540058e-01	
   6.5175000e+01	  -3.2311936e-01	  -2.0425855e-01	
   6.5230000e+01	  -3.2653888e-01	  -2.1277519e-01	
   6.5285000e+01	  -3.2892936e-01	  -2.2082413e-01	
   6.5340000e+01	  -3.3034973e-01	  -2.2828941e-01	
   6.5395000e+01	  -3.3087278e-01	  -2.3507050e-01	
   6.5450000e+01	  -3.3058096e-01	  -2.4108484e-01	
   6.5505000e+01	  -3.2955978e-01	  -2.4626778e-01	
   6.5560000e+01	  -3.2789066e-01	  -2.5057083e-01	
   6.5615000e+01	  -3.2564727e-01	  -2.5395954e-01	
   6.5670000e+01	  -3.2289690e-01	  -2.5641190e-01	
   6.5725000e+01	  -3.1970504e-01	  -2.5791686e-01	
   6.5780000e+01	  -3.1614070e-01	  -2.5847367e-01	
   6.5835000e+01	  -3.1228229e-01	  -2.5809278e-01	
   6.5890000e+01	  -3.0822408e-01	  -2.5679831e-01	
   6.5945000e+01	  -3.0408094e-01	  -2.5463080e-01	
   6.6000000e+01	  -2.9998859e-01	  -2.5164962e-01	
   6.6055000e+01	  -2.9609928e-01	  -2.4793551e-01	
   6.6110000e+01	  -2.9257488e-01	  -2.4359371e-01	
   6.6165000e+01	  -2.8957830e-01	  -2.3875599e-01	
   6.6220000e+01	  -2.8726393e-01	  -2.3357919e-01	
   6.6275000e+01	  -2.8576873e-01	  -2.2823950e-01	
   6.6330000e+01	  -2.8520445e-01	  -2.2292311e-01	
   6.6385000e+01	  -2.8565031e-01	  -2.1781443e-01	
   6.6440000e+01	  -2.8714670e-01	  -2.1308298e-01	
   6.6495000e+01	  -2.8969129e-01	  -2.0887108e-01	
   6.6550000e+01	  -2.9323809e-01	  -2.0528400e-01	
   6.6605000e+01	  -2.9769780e-01	  -2.0238368e-01	
   6.6660000e+01	  -3.0293872e-01	  -2.0018647e-01	
   6.6715000e+01	  -3.0878890e-01	  -1.9866486e-01	
   6.6770000e+01	  -3.1504098e-01	  -1.9775264e-01	
   6.6825000e+01	  -3.2146028e-01	  -1.9735286e-01	
   6.6880000e+01	  -3.2779578e-01	  -1.9734760e-01	
   6.6935000e+01	  -3.3379361e-01	  -1.9760892e-01	
   6.6990000e+01	  -3.3921274e-01	  -1.9801022e-01	
   6.7045000e+01	  -3.4384233e-01	  -1.9843687e-01	
   6.7100000e+01	  -3.4751820e-01	  -1.9879504e-01	
   6.7155000e+01	  -3.5013361e-01	  -1.9901765e-01	
   6.7210000e+01	  -3.5164167e-01	  -1.9906581e-01	
   6.7265000e+01	  -3.5205029e-01	  -1.9892590e-01	
   6.7320000e+01	  -3.5141356e-01	  -1.9860412e-01	
   6.7375000e+01	  -3.4982227e-01	  -1.9812097e-01	
   6.7430000e+01	  -3.4739362e-01	  -1.9750634e-01	
   6.7485000e+01	  -3.4425985e-01	  -1.9679500e-01	
   6.7540000e+01	  -3.4055643e-01	  -1.9602271e-01	
   6.7595000e+01	  -3.3641139e-01	  -1.9522361e-01	
   6.7650000e+01	  -3.3193707e-01	  -1.9442839e-01	
   6.7705000e+01	  -3.2722502e-01	  -1.9366224e-01	
   6.7760000e+01	  -3.2234377e-01	  -1.9294273e-01	
   6.7815000e+01	  -3.1733881e-01	  -1.9227854e-01	
   6.7870000e+01	  -3.1223286e-01	  -1.9166933e-01	
   6.7925000e+01	  -3.0702485e-01	  -1.9110543e-01	
   6.7980000e+01	  -3.0168938e-01	  -1.9056677e-01	
   6.8035000e+01	  -2.9618003e-01	  -1.9002125e-01	
   6.8090000e+01	  -2.9043790e-01	  -1.8942374e-01	
   6.8145000e+01	  -2.8440261e-01	  -1.8871655e-01	
   6.8200000e+01	  -2.7802308e-01	  -1.8783217e-01	
   6.8255000e+01	  -2.7126592e-01	  -1.8669833e-01	
   6.8310000e+01	  -2.6412083e-01	  -1.8524373e-01	
   6.8365000e+01	  -2.5660251e-01	  -1.8340337e-01	
   6.8420000e+01	  -2.4874861e-01	  -1.8112280e-01	
   6.8475000e+01	  -2.4061314e-01	  -1.7836103e-01	
   6.8530000e+01	  -2.3225625e-01	  -1.7509228e-01	
   6.8585000e+01	  -2.2373420e-01	  -1.7130648e-01	
   6.8640000e+01	  -2.1509277e-01	  -1.6700889e-01	
   6.8695000e+01	  -2.0636336e-01	  -1.6221881e-01	
   6.8750000e+01	  -1.9755901e-01	  -1.5696698e-01	
   6.8805000e+01	  -1.8866985e-01	  -1.5129076e-01	
   6.8860000e+01	  -1.7965918e-01	  -1.4522762e-01	
   6.8915000e+01	  -1.7046218e-01	  -1.3880869e-01	
   6.8970000e+01	  -1.6098760e-01	  -1.3205428e-01	
   6.9025000e+01	  -1.5112246e-01	  -1.2497190e-01	
   6.9080000e+01	  -1.4073955e-01	  -1.1755719e-01	
   6.9135000e+01	  -1.2970904e-01	  -1.0979796e-01	
   6.9190000e+01	  -1.1791469e-01	  -1.0168076e-01	
   6.9245000e+01	  -1.0527149e-01	  -9.3197786e-02	
   6.9300000e+01	  -9.1739881e-02	  -8.4352265e-02	
   6.9355000e+01	  -7.7333743e-02	  -7.5161604e-02	
   6.9410000e+01	  -6.2122463e-02	  -6.5658672e-02	
   6.9465000e+01	  -4.6228296e-02	  -5.5891872e-02	
   6.9520000e+01	  -2.9819623e-02	  -4.5924021e-02	
   6.9575000e+01	  -1.3100664e-02	  -3.5829482e-02	
   6.9630000e+01	   3.7016814e-03	  -2.5688892e-02	
   6.9685000e+01	   2.0352515e-02	  -1.5582149e-02	
   6.9740000e+01	   3.6623214e-02	  -5.5817652e-03	
   6.9795000e+01	   5.2304039e-02	   4.2518316e-03	
   6.9850000e+01	   6.7215311e-02	   1.3873213e-02	
   6.9905000e+01	   8.1217409e-02	   2.3253502e-02	
   6.9960000e+01	   9.4218145e-02	   3.2379904e-02	
   7.0015000e+01	   1.0617572e-01	   4.1252505e-02	
   7.0070000e+01	   1.1709787e-01	   4.9879277e-02	
   7.0125000e+01	   1.2703945e-01	   5.8271213e-02	
   7.0180000e+01	   1.3609797e-01	   6.6438343e-02	
   7.0235000e+01	   1.4440514e-01	   7.4385987e-02	
   7.0290000e+01	   1.5211425e-01	   8.2111127e-02	
   7.0345000e+01	   1.5938617e-01	   8.9599937e-02	
   7.0400000e+01	   1.6637568e-01	   9.6827379e-02	
   7.0455000e+01	   1.7321834e-01	   1.0375933e-01	
   7.0510000e+01	   1.8001894e-01	   1.1035752e-01	
   7.0565000e+01	   1.8684359e-01	   1.1658632e-01	
   7.0620000e+01	   1.9371602e-01	   1.2241929e-01	
   7.0675000e+01	   2.0061773e-01	   1.2784346e-01	
   7.0730000e+01	   2.0749298e-01	   1.3286137e-01	
   7.0785000e+01	   2.1426023e-01	   1.3749124e-01	
   7.0840000e+01	   2.2082783e-01	   1.4176498e-01	
   7.0895000e+01	   2.2710841e-01	   1.4572395e-01	
   7.0950000e+01	   2.3302893e-01	   1.4941350e-01	
   7.1005000e+01	   2.3853617e-01	   1.5287704e-01	
   7.1060000e+01	   2.4359826e-01	   1.5614972e-01	
   7.1115000e+01	   2.4820189e-01	   1.5925205e-01	
   7.1170000e+01	   2.5234697e-01	   1.6218520e-01	
   7.1225000e+01	   2.5604165e-01	   1.6492993e-01	
   7.1280000e+01	   2.5930029e-01	   1.6744993e-01	
   7.1335000e+01	   2.6214451e-01	   1.6969867e-01	
   7.1390000e+01	   2.6460711e-01	   1.7162787e-01	
   7.1445000e+01	   2.6673640e-01	   1.7319538e-01	
   7.1500000e+01	   2.6859826e-01	   1.7437149e-01	
   7.1555000e+01	   2.7027449e-01	   1.7514301e-01	
   7.1610000e+01	   2.7185868e-01	   1.7551529e-01	
   7.1665000e+01	   2.7345069e-01	   1.7551149e-01	
   7.1720000e+01	   2.7514891e-01	   1.7516937e-01	
   7.1775000e+01	   2.7704052e-01	   1.7453679e-01	
   7.1830000e+01	   2.7919237e-01	   1.7366768e-01	
   7.1885000e+01	   2.8164485e-01	   1.7261953e-01	
   7.1940000e+01	   2.8440886e-01	   1.7145165e-01	
   7.1995000e+01	   2.8746421e-01	   1.7022331e-01	
   7.2050000e+01	   2.9075935e-01	   1.6899138e-01	
   7.2105000e+01	   2.9421350e-01	   1.6780815e-01	
   7.2160000e+01	   2.9772220e-01	   1.6671991e-01	
   7.2215000e+01	   3.0116612e-01	   1.6576658e-01	
   7.2270000e+01	   3.0442132e-01	   1.6498189e-01	
   7.2325000e+01	   3.0736900e-01	   1.6439389e-01	
   7.2380000e+01	   3.0990283e-01	   1.6402531e-01	
   7.2435000e+01	   3.1193513e-01	   1.6389427e-01	
   7.2490000e+01	   3.1340393e-01	   1.6401572e-01	
   7.2545000e+01	   3.1428036e-01	   1.6440339e-01	
   7.2600000e+01	   3.1457304e-01	   1.6507100e-01	
   7.2655000e+01	   3.1432586e-01	   1.6603160e-01	
   7.2710000e+01	   3.1360956e-01	   1.6729500e-01	
   7.2765000e+01	   3.1250996e-01	   1.6886444e-01	
   7.2820000e+01	   3.1111610e-01	   1.7073278e-01	
   7.2875000e+01	   3.0950994e-01	   1.7287879e-01	
   7.2930000e+01	   3.0775999e-01	   1.7526420e-01	
   7.2985000e+01	   3.0591974e-01	   1.7783261e-01	
   7.3040000e+01	   3.0403059e-01	   1.8051191e-01	
   7.3095000e+01	   3.0212803e-01	   1.8322123e-01	
   7.3150000e+01	   3.0024945e-01	   1.8588156e-01	
   7.3205000e+01	   2.9844141e-01	   1.8842668e-01	
   7.3260000e+01	   2.9676436e-01	   1.9081146e-01	
   7.3315000e+01	   2.9529555e-01	   1.9301636e-01	
   7.3370000e+01	   2.9413134e-01	   1.9504871e-01	
   7.3425000e+01	   2.9338722e-01	   1.9694124e-01	
   7.3480000e+01	   2.9319253e-01	   1.9874750e-01	
   7.3535000e+01	   2.9367901e-01	   2.0053505e-01	
   7.3590000e+01	   2.9496592e-01	   2.0237766e-01	
   7.3645000e+01	   2.9714492e-01	   2.0434711e-01	
   7.3700000e+01	   3.0026719e-01	   2.0650474e-01	
   7.3755000e+01	   3.0433437e-01	   2.0889290e-01	
   7.3810000e+01	   3.0929414e-01	   2.1152776e-01	
   7.3865000e+01	   3.1504043e-01	   2.1439459e-01	
   7.3920000e+01	   3.2141767e-01	   2.1744707e-01	
   7.3975000e+01	   3.2822840e-01	   2.2061106e-01	
   7.4030000e+01	   3.3524292e-01	   2.2379286e-01	
   7.4085000e+01	   3.4220990e-01	   2.2688990e-01	
   7.4140000e+01	   3.4886821e-01	   2.2980160e-01	
   7.4195000e+01	   3.5496156e-01	   2.3243877e-01	
   7.4250000e+01	   3.6025674e-01	   2.3473130e-01	
   7.4305000e+01	   3.6456293e-01	   2.3663349e-01	
   7.4360000e+01	   3.6774700e-01	   2.3812569e-01	
   7.4415000e+01	   3.6974052e-01	   2.3921151e-01	
   7.4470000e+01	   3.7053825e-01	   2.3991171e-01	
   7.4525000e+01	   3.7019030e-01	   2.4025643e-01	
   7.4580000e+01	   3.6879061e-01	   2.4027748e-01	
   7.4635000e+01	   3.6646413e-01	   2.4000179e-01	
   7.4690000e+01	   3.6335484e-01	   2.3944737e-01	
   7.4745000e+01	   3.5961672e-01	   2.3862210e-01	
   7.4800000e+01	   3.5540900e-01	   2.3752556e-01	
   7.4855000e+01	   3.5089596e-01	   2.3615306e-01	
   7.4910000e+01	   3.4624829e-01	   2.3450090e-01	
   7.4965000e+01	   3.4164221e-01	   2.3257097e-01	
   7.5020000e+01	   3.3725364e-01	   2.3037338e-01	
   7.5075000e+01	   3.3324951e-01	   2.2792692e-01	
   7.5130000e+01	   3.2977991e-01	   2.2525817e-01	
   7.5185000e+01	   3.2697202e-01	   2.2239973e-01	
   7.5240000e+01	   3.2492390e-01	   2.1938787e-01	
   7.5295000e+01	   3.2369819e-01	   2.1625996e-01	
   7.5350000e+01	   3.2331766e-01	   2.1305246e-01	
   7.5405000e+01	   3.2376523e-01	   2.0979939e-01	
   7.5460000e+01	   3.2498938e-01	   2.0653167e-01	
   7.5515000e+01	   3.2691385e-01	   2.0327779e-01	
   7.5570000e+01	   3.2944863e-01	   2.0006626e-01	
   7.5625000e+01	   3.3249909e-01	   1.9692894e-01	
   7.5680000e+01	   3.3597265e-01	   1.9390481e-01	
   7.5735000e+01	   3.3978548e-01	   1.9104389e-01	
   7.5790000e+01	   3.4387267e-01	   1.8841073e-01	
   7.5845000e+01	   3.4820112e-01	   1.8608590e-01	
   7.5900000e+01	   3.5278072e-01	   1.8416435e-01	
   7.5955000e+01	   3.5766908e-01	   1.8275087e-01	
   7.6010000e+01	   3.6296776e-01	   1.8195354e-01	
   7.6065000e+01	   3.6881002e-01	   1.8187617e-01	
   7.6120000e+01	   3.7534273e-01	   1.8261051e-01	
   7.6175000e+01	   3.8270608e-01	   1.8422917e-01	
   7.6230000e+01	   3.9101448e-01	   1.8677893e-01	
   7.6285000e+01	   4.0034056e-01	   1.9027485e-01	
   7.6340000e+01	   4.1070413e-01	   1.9469587e-01	
   7.6395000e+01	   4.2206833e-01	   1.9998442e-01	
   7.6450000e+01	   4.3434349e-01	   2.0605031e-01	
   7.6505000e+01	   4.4739610e-01	   2.1277740e-01	
   7.6560000e+01	   4.6105932e-01	   2.2003110e-01	
   7.6615000e+01	   4.7514300e-01	   2.2766608e-01	
   7.6670000e+01	   4.8944494e-01	   2.3553363e-01	
   7.6725000e+01	   5.0376445e-01	   2.4348792e-01	
   7.6780000e+01	   5.1791651e-01	   2.5139047e-01	
   7.6835000e+01	   5.3174203e-01	   2.5911331e-01	
   7.6890000e+01	   5.4511221e-01	   2.6654120e-01	
   7.6945000e+01	   5.5792839e-01	   2.7357268e-01	
   7.7000000e+01	   5.7012038e-01	   2.8011975e-01	
   7.7055000e+01	   5.8164455e-01	   2.8610640e-01	
   7.7110000e+01	   5.9248038e-01	   2.9146614e-01	
   7.7165000e+01	   6.0262292e-01	   2.9613901e-01	
   7.7220000e+01	   6.1207130e-01	   3.0006941e-01	
   7.7275000e+01	   6.2081746e-01	   3.0320702e-01	
   7.7330000e+01	   6.2883889e-01	   3.0551100e-01	
   7.7385000e+01	   6.3609587e-01	   3.0695532e-01	
   7.7440000e+01	   6.4253138e-01	   3.0753268e-01	
   7.7495000e+01	   6.4807300e-01	   3.0725654e-01	
   7.7550000e+01	   6.5263609e-01	   3.0616125e-01	
   7.7605000e+01	   6.5612810e-01	   3.0430086e-01	
   7.7660000e+01	   6.5845471e-01	   3.0174671e-01	
   7.7715000e+01	   6.5952869e-01	   2.9858399e-01	
   7.7770000e+01	   6.5928073e-01	   2.9490711e-01	
   7.7825000e+01	   6.5766842e-01	   2.9081318e-01	
   7.7880000e+01	   6.5468062e-01	   2.8639406e-01	
   7.7935000e+01	   6.5033789e-01	   2.8172871e-01	
   7.7990000e+01	   6.4469185e-01	   2.7687834e-01	
   7.8045000e+01	   6.3782461e-01	   2.7188524e-01	
   7.8100000e+01	   6.2984728e-01	   2.6677496e-01	
   7.8155000e+01	   6.2089624e-01	   2.6156034e-01	
   7.8210000e+01	   6.1112717e-01	   2.5624607e-01	
   7.8265000e+01	   6.0070882e-01	   2.5083297e-01	
   7.8320000e+01	   5.8981830e-01	   2.4532217e-01	
   7.8375000e+01	   5.7863785e-01	   2.3971972e-01	
   7.8430000e+01	   5.6735097e-01	   2.3404068e-01	
   7.8485000e+01	   5.5613675e-01	   2.2831070e-01	
   7.8540000e+01	   5.4516326e-01	   2.2256438e-01	
   7.8595000e+01	   5.3458227e-01	   2.1684133e-01	
   7.8650000e+01	   5.2452499e-01	   2.1118150e-01	
   7.8705000e+01	   5.1509773e-01	   2.0562117e-01	
   7.8760000e+01	   5.0637829e-01	   2.0019089e-01	
   7.8815000e+01	   4.9841633e-01	   1.9491632e-01	
   7.8870000e+01	   4.9123831e-01	   1.8982106e-01	
   7.8925000e+01	   4.8485423e-01	   1.8492991e-01	
   7.8980000e+01	   4.7926337e-01	   1.8027096e-01	
   7.9035000e+01	   4.7445857e-01	   1.7587616e-01	
   7.9090000e+01	   4.7042950e-01	   1.7178121e-01	
   7.9145000e+01	   4.6716398e-01	   1.6802521e-01	
   7.9200000e+01	   4.6464693e-01	   1.6464998e-01	
   7.9255000e+01	   4.6285741e-01	   1.6169848e-01	
   7.9310000e+01	   4.6176459e-01	   1.5921176e-01	
   7.9365000e+01	   4.6132335e-01	   1.5722480e-01	
   7.9420000e+01	   4.6147155e-01	   1.5576188e-01	
   7.9475000e+01	   4.6213060e-01	   1.5483257e-01	
   7.9530000e+01	   4.6320953e-01	   1.5442886e-01	
   7.9585000e+01	   4.6461070e-01	   1.5452409e-01	
   7.9640000e+01	   4.6623516e-01	   1.5507443e-01	
   7.9695000e+01	   4.6798658e-01	   1.5602312e-01	
   7.9750000e+01	   4.6977421e-01	   1.5730604e-01	
   7.9805000e+01	   4.7151551e-01	   1.5885703e-01	
   7.9860000e+01	   4.7313834e-01	   1.6061241e-01	
   7.9915000e+01	   4.7458268e-01	   1.6251552e-01	
   7.9970000e+01	   4.7580194e-01	   1.6452100e-01	
   8.0025000e+01	   4.7676319e-01	   1.6659730e-01	
   8.0080000e+01	   4.7744568e-01	   1.6872654e-01	
   8.0135000e+01	   4.7783650e-01	   1.7090139e-01	
   8.0190000e+01	   4.7792360e-01	   1.7311908e-01	
   8.0245000e+01	   4.7768769e-01	   1.7537375e-01	
   8.0300000e+01	   4.7709678e-01	   1.7764955e-01	
   8.0355000e+01	   4.7610550e-01	   1.7991681e-01	
   8.0410000e+01	   4.7465932e-01	   1.8213168e-01	
   8.0465000e+01	   4.7270214e-01	   1.8423887e-01	
   8.0520000e+01	   4.7018641e-01	   1.8617692e-01	
   8.0575000e+01	   4.6708427e-01	   1.8788447e-01	
   8.0630000e+01	   4.6339697e-01	   1.8930566e-01	
   8.0685000e+01	   4.5916052e-01	   1.9039366e-01	
   8.0740000e+01	   4.5444726e-01	   1.9111275e-01	
   8.0795000e+01	   4.4936364e-01	   1.9143979e-01	
   8.0850000e+01	   4.4404366e-01	   1.9136539e-01	
   8.0905000e+01	   4.3863769e-01	   1.9089412e-01	
   8.0960000e+01	   4.3329796e-01	   1.9004366e-01	
   8.1015000e+01	   4.2816269e-01	   1.8884259e-01	
   8.1070000e+01	   4.2334196e-01	   1.8732681e-01	
   8.1125000e+01	   4.1890816e-01	   1.8553495e-01	
   8.1180000e+01	   4.1489260e-01	   1.8350402e-01	
   8.1235000e+01	   4.1128749e-01	   1.8126682e-01	
   8.1290000e+01	   4.0805098e-01	   1.7885155e-01	
   8.1345000e+01	   4.0511442e-01	   1.7628357e-01	
   8.1400000e+01	   4.0239199e-01	   1.7358909e-01	
   8.1455000e+01	   3.9979135e-01	   1.7080016e-01	
   8.1510000e+01	   3.9722246e-01	   1.6795917e-01	
   8.1565000e+01	   3.9460323e-01	   1.6512120e-01	
   8.1620000e+01	   3.9186462e-01	   1.6235390e-01	
   8.1675000e+01	   3.8895831e-01	   1.5973529e-01	
   8.1730000e+01	   3.8586592e-01	   1.5734916e-01	
   8.1785000e+01	   3.8260585e-01	   1.5527873e-01	
   8.1840000e+01	   3.7923380e-01	   1.5359932e-01	
   8.1895000e+01	   3.7583604e-01	   1.5237087e-01	
   8.1950000e+01	   3.7251724e-01	   1.5163083e-01	
   8.2005000e+01	   3.6938626e-01	   1.5138814e-01	
   8.2060000e+01	   3.6654222e-01	   1.5162011e-01	
   8.2115000e+01	   3.6406181e-01	   1.5227342e-01	
   8.2170000e+01	   3.6198937e-01	   1.5326929e-01	
   8.2225000e+01	   3.6033169e-01	   1.5451164e-01	
   8.2280000e+01	   3.5905856e-01	   1.5589693e-01	
   8.2335000e+01	   3.5810704e-01	   1.5732345e-01	
   8.2390000e+01	   3.5738700e-01	   1.5869873e-01	
   8.2445000e+01	   3.5678732e-01	   1.5994462e-01	
   8.2500000e+01	   3.5618468e-01	   1.6100072e-01	
   8.2555000e+01	   3.5545481e-01	   1.6182631e-01	
   8.2610000e+01	   3.5448446e-01	   1.6240027e-01	
   8.2665000e+01	   3.5318094e-01	   1.6271915e-01	
   8.2720000e+01	   3.5147758e-01	   1.6279412e-01	
   8.2775000e+01	   3.4933386e-01	   1.6264735e-01	
   8.2830000e+01	   3.4673148e-01	   1.6230847e-01	
   8.2885000e+01	   3.4366946e-01	   1.6181250e-01	
   8.2940000e+01	   3.4016207e-01	   1.6119924e-01	
   8.2995000e+01	   3.3624026e-01	   1.6051329e-01	
   8.3050000e+01	   3.3195536e-01	   1.5980356e-01	
   8.3105000e+01	   3.2738349e-01	   1.5912253e-01	
   8.3160000e+01	   3.2262955e-01	   1.5852566e-01	
   8.3215000e+01	   3.1782891e-01	   1.5807007e-01	
   8.3270000e+01	   3.1314592e-01	   1.5781199e-01	
   8.3325000e+01	   3.0876824e-01	   1.5780346e-01	
   8.3380000e+01	   3.0489665e-01	   1.5808836e-01	
   8.3435000e+01	   3.0173101e-01	   1.5869746e-01	
   8.3490000e+01	   2.9945437e-01	   1.5964206e-01	
   8.3545000e+01	   2.9821827e-01	   1.6090822e-01	
   8.3600000e+01	   2.9813096e-01	   1.6245381e-01	
   8.3655000e+01	   2.9924922e-01	   1.6420973e-01	
   8.3710000e+01	   3.0157434e-01	   1.6608513e-01	
   8.3765000e+01	   3.0505308e-01	   1.6797630e-01	
   8.3820000e+01	   3.0958294e-01	   1.6977787e-01	
   8.3875000e+01	   3.1501874e-01	   1.7139434e-01	
   8.3930000e+01	   3.2117915e-01	   1.7274945e-01	
   8.3985000e+01	   3.2785451e-01	   1.7379227e-01	
   8.4040000e+01	   3.3481741e-01	   1.7449973e-01	
   8.4095000e+01	   3.4183397e-01	   1.7487584e-01	
   8.4150000e+01	   3.4867308e-01	   1.7494812e-01	
   8.4205000e+01	   3.5511202e-01	   1.7476220e-01	
   8.4260000e+01	   3.6093903e-01	   1.7437584e-01	
   8.4315000e+01	   3.6595382e-01	   1.7385257e-01	
   8.4370000e+01	   3.6996744e-01	   1.7325469e-01	
   8.4425000e+01	   3.7280265e-01	   1.7263667e-01	
   8.4480000e+01	   3.7429598e-01	   1.7203997e-01	
   8.4535000e+01	   3.7430118e-01	   1.7148946e-01	
   8.4590000e+01	   3.7269337e-01	   1.7099142e-01	
   8.4645000e+01	   3.6937386e-01	   1.7053322e-01	
   8.4700000e+01	   3.6427550e-01	   1.7008474e-01	
   8.4755000e+01	   3.5736843e-01	   1.6960100e-01	
   8.4810000e+01	   3.4866595e-01	   1.6902614e-01	
   8.4865000e+01	   3.3822998e-01	   1.6829906e-01	
   8.4920000e+01	   3.2617468e-01	   1.6736069e-01	
   8.4975000e+01	   3.1266595e-01	   1.6616103e-01	
   8.5030000e+01	   2.9791552e-01	   1.6466451e-01	
   8.5085000e+01	   2.8216987e-01	   1.6285276e-01	
   8.5140000e+01	   2.6569609e-01	   1.6072559e-01	
   8.5195000e+01	   2.4876766e-01	   1.5830050e-01	
   8.5250000e+01	   2.3165239e-01	   1.5561035e-01	
   8.5305000e+01	   2.1460256e-01	   1.5269948e-01	
   8.5360000e+01	   1.9784615e-01	   1.4961893e-01	
   8.5415000e+01	   1.8157866e-01	   1.4642164e-01	
   8.5470000e+01	   1.6595815e-01	   1.4315870e-01	
   8.5525000e+01	   1.5110566e-01	   1.3987844e-01	
   8.5580000e+01	   1.3710979e-01	   1.3662858e-01	
   8.5635000e+01	   1.2403175e-01	   1.3345926e-01	
   8.5690000e+01	   1.1190803e-01	   1.3042458e-01	
   8.5745000e+01	   1.0075168e-01	   1.2758249e-01	
   8.5800000e+01	   9.0552704e-02	   1.2499359e-01	
   8.5855000e+01	   8.1278036e-02	   1.2271854e-01	
   8.5910000e+01	   7.2871819e-02	   1.2081357e-01	
   8.5965000e+01	   6.5257053e-02	   1.1932468e-01	
   8.6020000e+01	   5.8338300e-02	   1.1828143e-01	
   8.6075000e+01	   5.2004525e-02	   1.1769148e-01	
   8.6130000e+01	   4.6132608e-02	   1.1753731e-01	
   8.6185000e+01	   4.0593536e-02	   1.1777605e-01	
   8.6240000e+01	   3.5261736e-02	   1.1834245e-01	
   8.6295000e+01	   3.0024531e-02	   1.1915402e-01	
   8.6350000e+01	   2.4788367e-02	   1.2011758e-01	
   8.6405000e+01	   1.9481593e-02	   1.2113703e-01	
   8.6460000e+01	   1.4055451e-02	   1.2212172e-01	
   8.6515000e+01	   8.4843326e-03	   1.2299411e-01	
   8.6570000e+01	   2.7655525e-03	   1.2369575e-01	
   8.6625000e+01	  -3.0815032e-03	   1.2419108e-01	
   8.6680000e+01	  -9.0178089e-03	   1.2446892e-01	
   8.6735000e+01	  -1.4989497e-02	   1.2454147e-01	
   8.6790000e+01	  -2.0934058e-02	   1.2444186e-01	
   8.6845000e+01	  -2.6785855e-02	   1.2422040e-01	
   8.6900000e+01	  -3.2479949e-02	   1.2393930e-01	
   8.6955000e+01	  -3.7954902e-02	   1.2366530e-01	
   8.7010000e+01	  -4.3155086e-02	   1.2346230e-01	
   8.7065000e+01	  -4.8031467e-02	   1.2338644e-01	
   8.7120000e+01	  -5.2539902e-02	   1.2348473e-01	
   8.7175000e+01	  -5.6638205e-02	   1.2379589e-01	
   8.7230000e+01	  -6.0283902e-02	   1.2435185e-01	
   8.7285000e+01	  -6.3433090e-02	   1.2517921e-01	
   8.7340000e+01	  -6.6040206e-02	   1.2630093e-01	
   8.7395000e+01	  -6.8058856e-02	   1.2773767e-01	
   8.7450000e+01	  -6.9443545e-02	   1.2950890e-01	
   8.7505000e+01	  -7.0152234e-02	   1.3163298e-01	
   8.7560000e+01	  -7.0150455e-02	   1.3412512e-01	
   8.7615000e+01	  -6.9416938e-02	   1.3699258e-01	
   8.7670000e+01	  -6.7948320e-02	   1.4022811e-01	
   8.7725000e+01	  -6.5760821e-02	   1.4380419e-01	
   8.7780000e+01	  -6.2890059e-02	   1.4766928e-01	
   8.7835000e+01	  -5.9390932e-02	   1.5174681e-01	
   8.7890000e+01	  -5.5336398e-02	   1.5593754e-01	
   8.7945000e+01	  -5.0813005e-02	   1.6012543e-01	
   8.8000000e+01	  -4.5913563e-02	   1.6418610e-01	
   8.8055000e+01	  -4.0728597e-02	   1.6799627e-01	
   8.8110000e+01	  -3.5337018e-02	   1.7144319e-01	
   8.8165000e+01	  -2.9796296e-02	   1.7443330e-01	
   8.8220000e+01	  -2.4133924e-02	   1.7689913e-01	
   8.8275000e+01	  -1.8342469e-02	   1.7880337e-01	
   8.8330000e+01	  -1.2379080e-02	   1.8013979e-01	
   8.8385000e+01	  -6.1693667e-03	   1.8093162e-01	
   8.8440000e+01	   3.8406098e-04	   1.8122771e-01	
   8.8495000e+01	   7.3882076e-03	   1.8109726e-01	
   8.8550000e+01	   1.4942947e-02	   1.8062384e-01	
   8.8605000e+01	   2.3123734e-02	   1.7989886e-01	
   8.8660000e+01	   3.1966222e-02	   1.7901454e-01	
   8.8715000e+01	   4.1454441e-02	   1.7805706e-01	
   8.8770000e+01	   5.1514059e-02	   1.7710190e-01	
   8.8825000e+01	   6.2012412e-02	   1.7621272e-01	
   8.8880000e+01	   7.2765872e-02	   1.7544280e-01	
   8.8935000e+01	   8.3552888e-02	   1.7483650e-01	
   8.8990000e+01	   9.4130090e-02	   1.7442984e-01	
   8.9045000e+01	   1.0424965e-01	   1.7425038e-01	
   8.9100000e+01	   1.1367644e-01	   1.7431699e-01	
   8.9155000e+01	   1.2220339e-01	   1.7464000e-01	
   8.9210000e+01	   1.2966326e-01	   1.7522148e-01	
   8.9265000e+01	   1.3593574e-01	   1.7605573e-01	
   8.9320000e+01	   1.4094850e-01	   1.7712982e-01	
   8.9375000e+01	   1.4467182e-01	   1.7842443e-01	
   8.9430000e+01	   1.4710883e-01	   1.7991504e-01	
   8.9485000e+01	   1.4828530e-01	   1.8157304e-01	
   8.9540000e+01	   1.4824199e-01	   1.8336672e-01	
   8.9595000e+01	   1.4703009e-01	   1.8526267e-01	
   8.9650000e+01	   1.4471036e-01	   1.8722890e-01	
   8.9705000e+01	   1.4135569e-01	   1.8923897e-01	
   8.9760000e+01	   1.3705598e-01	   1.9127527e-01	
   8.9815000e+01	   1.3192309e-01	   1.9333071e-01	
   8.9870000e+01	   1.2609417e-01	   1.9540874e-01	
   8.9925000e+01	   1.1973212e-01	   1.9752172e-01	
   8.9980000e+01	   1.1302207e-01	   1.9968714e-01	
   9.0035000e+01	   1.0616432e-01	   2.0192239e-01	
   9.0090000e+01	   9.9365090e-02	   2.0423929e-01	
   9.0145000e+01	   9.2827325e-02	   2.0663928e-01	
   9.0200000e+01	   8.6742432e-02	   2.0910933e-01	
   9.0255000e+01	   8.1282777e-02	   2.1161907e-01	
   9.0310000e+01	   7.6596032e-02	   2.1411997e-01	
   9.0365000e+01	   7.2803306e-02	   2.1654753e-01	
   9.0420000e+01	   7.0001208e-02	   2.1882623e-01	
   9.0475000e+01	   6.8265443e-02	   2.2087603e-01	
   9.0530000e+01	   6.7653105e-02	   2.2261922e-01	
   9.0585000e+01	   6.8202023e-02	   2.2398697e-01	
   9.0640000e+01	   6.9926614e-02	   2.2492485e-01	
   9.0695000e+01	   7.2811549e-02	   2.2539742e-01	
   9.0750000e+01	   7.6806996e-02	   2.2539207e-01	
   9.0805000e+01	   8.1828918e-02	   2.2492165e-01	
   9.0860000e+01	   8.7764069e-02	   2.2402469e-01	
   9.0915000e+01	   9.4476020e-02	   2.2276257e-01	
   9.0970000e+01	   1.0180956e-01	   2.2121357e-01	
   9.1025000e+01	   1.0959356e-01	   2.1946440e-01	
   9.1080000e+01	   1.1764241e-01	   2.1759989e-01	
   9.1135000e+01	   1.2575581e-01	   2.1569280e-01	
   9.1190000e+01	   1.3371849e-01	   2.1379634e-01	
   9.1245000e+01	   1.4130324e-01	   2.1194069e-01	
   9.1300000e+01	   1.4827905e-01	   2.1013315e-01	
   9.1355000e+01	   1.5442416e-01	   2.0836178e-01	
   9.1410000e+01	   1.5954140e-01	   2.0660162e-01	
   9.1465000e+01	   1.6347154e-01	   2.0482141e-01	
   9.1520000e+01	   1.6609997e-01	   2.0298903e-01	
   9.1575000e+01	   1.6735633e-01	   2.0107586e-01	
   9.1630000e+01	   1.6720965e-01	   1.9906080e-01	
   9.1685000e+01	   1.6566196e-01	   1.9693368e-01	
   9.1740000e+01	   1.6274224e-01	   1.9469647e-01	
   9.1795000e+01	   1.5850198e-01	   1.9236151e-01	
   9.1850000e+01	   1.5301191e-01	   1.8994724e-01	
   9.1905000e+01	   1.4635838e-01	   1.8747310e-01	
   9.1960000e+01	   1.3863885e-01	   1.8495517e-01	
   9.2015000e+01	   1.2995669e-01	   1.8240298e-01	
   9.2070000e+01	   1.2041629e-01	   1.7981790e-01	
   9.2125000e+01	   1.1012006e-01	   1.7719285e-01	
   9.2180000e+01	   9.9168277e-02	   1.7451346e-01	
   9.2235000e+01	   8.7662358e-02	   1.7176087e-01	
   9.2290000e+01	   7.5710638e-02	   1.6891617e-01	
   9.2345000e+01	   6.3434717e-02	   1.6596487e-01	
   9.2400000e+01	   5.0973427e-02	   1.6289954e-01	
   9.2455000e+01	   3.8482922e-02	   1.5972008e-01	
   9.2510000e+01	   2.6133259e-02	   1.5643243e-01	
   9.2565000e+01	   1.4102475e-02	   1.5304615e-01	
   9.2620000e+01	   2.5689977e-03	   1.4957155e-01	
   9.2675000e+01	  -8.2963388e-03	   1.4601689e-01	
   9.2730000e+01	  -1.8337690e-02	   1.4238633e-01	
   9.2785000e+01	  -2.7421206e-02	   1.3867824e-01	
   9.2840000e+01	  -3.5442493e-02	   1.3488332e-01	
   9.2895000e+01	  -4.2334256e-02	   1.3098289e-01	
   9.2950000e+01	  -4.8072138e-02	   1.2694883e-01	
   9.3005000e+01	  -5.2677208e-02	   1.2274633e-01	
   9.3060000e+01	  -5.6215492e-02	   1.1833946e-01	
   9.3115000e+01	  -5.8795106e-02	   1.1369840e-01	
   9.3170000e+01	  -6.0559869e-02	   1.0880624e-01	
   9.3225000e+01	  -6.1678405e-02	   1.0366346e-01	
   9.3280000e+01	  -6.2329884e-02	   9.8288817e-02	
   9.3335000e+01	  -6.2688991e-02	   9.2717679e-02	
   9.3390000e+01	  -6.2913039e-02	   8.6999365e-02	
   9.3445000e+01	  -6.3134090e-02	   8.1194309e-02	
   9.3500000e+01	  -6.3457666e-02	   7.5370696e-02	
   9.3555000e+01	  -6.3966779e-02	   6.9600051e-02	
   9.3610000e+01	  -6.4728228e-02	   6.3951905e-02	
   9.3665000e+01	  -6.5798502e-02	   5.8488143e-02	
   9.3720000e+01	  -6.7227405e-02	   5.3258228e-02	
   9.3775000e+01	  -6.9057267e-02	   4.8297118e-02	
   9.3830000e+01	  -7.1316472e-02	   4.3626803e-02	
   9.3885000e+01	  -7.4009956e-02	   3.9260278e-02	
   9.3940000e+01	  -7.7112305e-02	   3.5205806e-02	
   9.3995000e+01	  -8.0566787e-02	   3.1470347e-02	
   9.4050000e+01	  -8.4289636e-02	   2.8061989e-02	
   9.4105000e+01	  -8.8178171e-02	   2.4990928e-02	
   9.4160000e+01	  -9.2121647e-02	   2.2268477e-02	
   9.4215000e+01	  -9.6012231e-02	   1.9904552e-02	
   9.4270000e+01	  -9.9753434e-02	   1.7904910e-02	
   9.4325000e+01	  -1.0326579e-01	   1.6268994e-02	
   9.4380000e+01	  -1.0649095e-01	   1.4988750e-02	
   9.4435000e+01	  -1.0939416e-01	   1.4048525e-02	
   9.4490000e+01	  -1.1196507e-01	   1.3425458e-02	
   9.4545000e+01	  -1.1421669e-01	   1.3089349e-02	
   9.4600000e+01	  -1.1618134e-01	   1.3001917e-02	
   9.4655000e+01	  -1.1790202e-01	   1.3116571e-02	
   9.4710000e+01	  -1.1942164e-01	   1.3379280e-02	
   9.4765000e+01	  -1.2077468e-01	   1.3729672e-02	
   9.4820000e+01	  -1.2198358e-01	   1.4101817e-02	
   9.4875000e+01	  -1.2305816e-01	   1.4425408e-02	
   9.4930000e+01	  -1.2399635e-01	   1.4627791e-02	
   9.4985000e+01	  -1.2478595e-01	   1.4636080e-02	
   9.5040000e+01	  -1.2540683e-01	   1.4378550e-02	
   9.5095000e+01	  -1.2583347e-01	   1.3785314e-02	
   9.5150000e+01	  -1.2603881e-01	   1.2788197e-02	
   9.5205000e+01	  -1.2600051e-01	   1.1319607e-02	
   9.5260000e+01	  -1.2570896e-01	   9.3112295e-03	
   9.5315000e+01	  -1.2517485e-01	   6.6942985e-03	
   9.5370000e+01	  -1.2443456e-01	   3.4024006e-03	
   9.5425000e+01	  -1.2355210e-01	  -6.2350466e-04	
   9.5480000e+01	  -1.2261674e-01	  -5.4288213e-03	
   9.5535000e+01	  -1.2173622e-01	  -1.1039085e-02	
   9.5590000e+01	  -1.2102714e-01	  -1.7455197e-02	
   9.5645000e+01	  -1.2060576e-01	  -2.4650794e-02	
   9.5700000e+01	  -1.2058058e-01	  -3.2571233e-02	
   9.5755000e+01	  -1.2104591e-01	  -4.1133714e-02	
   9.5810000e+01	  -1.2207461e-01	  -5.0229224e-02	
   9.5865000e+01	  -1.2371105e-01	  -5.9727144e-02	
   9.5920000e+01	  -1.2596610e-01	  -6.9482129e-02	
   9.5975000e+01	  -1.2881559e-01	  -7.9341727e-02	
   9.6030000e+01	  -1.3220360e-01	  -8.9153642e-02	
   9.6085000e+01	  -1.3605076e-01	  -9.8772640e-02	
   9.6140000e+01	  -1.4026490e-01	  -1.0806706e-01	
   9.6195000e+01	  -1.4475036e-01	  -1.1692436e-01	
   9.6250000e+01	  -1.4941399e-01	  -1.2525526e-01	
   9.6305000e+01	  -1.5416814e-01	  -1.3299596e-01	
   9.6360000e+01	  -1.5893079e-01	  -1.4010718e-01	
   9.6415000e+01	  -1.6362311e-01	  -1.4656955e-01	
   9.6470000e+01	  -1.6816681e-01	  -1.5237671e-01	
   9.6525000e+01	  -1.7248346e-01	  -1.5752855e-01	
   9.6580000e+01	  -1.7649575e-01	  -1.6202615e-01	
   9.6635000e+01	  -1.8012917e-01	  -1.6586933e-01	
   9.6690000e+01	  -1.8331446e-01	  -1.6905729e-01	
   9.6745000e+01	  -1.8599149e-01	  -1.7159112e-01	
   9.6800000e+01	  -1.8811353e-01	  -1.7347657e-01	
   9.6855000e+01	  -1.8965017e-01	  -1.7472618e-01	
   9.6910000e+01	  -1.9058869e-01	  -1.7536123e-01	
   9.6965000e+01	  -1.9093530e-01	  -1.7541441e-01	
   9.7020000e+01	  -1.9071693e-01	  -1.7493290e-01	
   9.7075000e+01	  -1.8998258e-01	  -1.7398047e-01	
   9.7130000e+01	  -1.8880208e-01	  -1.7263666e-01	
   9.7185000e+01	  -1.8726159e-01	  -1.7099223e-01	
   9.7240000e+01	  -1.8545687e-01	  -1.6914209e-01	
   9.7295000e+01	  -1.8348616e-01	  -1.6717731e-01	
   9.7350000e+01	  -1.8144483e-01	  -1.6517827e-01	
   9.7405000e+01	  -1.7942314e-01	  -1.6320964e-01	
   9.7460000e+01	  -1.7750662e-01	  -1.6131838e-01	
   9.7515000e+01	  -1.7577706e-01	  -1.5953455e-01	
   9.7570000e+01	  -1.7431270e-01	  -1.5787508e-01	
   9.7625000e+01	  -1.7318781e-01	  -1.5634946e-01	
   9.7680000e+01	  -1.7247241e-01	  -1.5496583e-01	
   9.7735000e+01	  -1.7223258e-01	  -1.5373593e-01	
   9.7790000e+01	  -1.7253069e-01	  -1.5267872e-01	
   9.7845000e+01	  -1.7342391e-01	  -1.5182287e-01	
   9.7900000e+01	  -1.7495922e-01	  -1.5120700e-01	
   9.7955000e+01	  -1.7716540e-01	  -1.5087656e-01	
   9.8010000e+01	  -1.8004663e-01	  -1.5087802e-01	
   9.8065000e+01	  -1.8358157e-01	  -1.5125158e-01	
   9.8120000e+01	  -1.8772707e-01	  -1.5202410e-01	
   9.8175000e+01	  -1.9242167e-01	  -1.5320361e-01	
   9.8230000e+01	  -1.9758643e-01	  -1.5477687e-01	
   9.8285000e+01	  -2.0312363e-01	  -1.5671030e-01	
   9.8340000e+01	  -2.0891529e-01	  -1.5895311e-01	
   9.8395000e+01	  -2.1482315e-01	  -1.6144201e-01	
   9.8450000e+01	  -2.2069078e-01	  -1.6410673e-01	
   9.8505000e+01	  -2.2634824e-01	  -1.6687585e-01	
   9.8560000e+01	  -2.3161873e-01	  -1.6968181e-01	
   9.8615000e+01	  -2.3632747e-01	  -1.7246449e-01	
   9.8670000e+01	  -2.4031192e-01	  -1.7517340e-01	
   9.8725000e+01	  -2.4342974e-01	  -1.7776829e-01	
   9.8780000e+01	  -2.4556173e-01	  -1.8021818e-01	
   9.8835000e+01	  -2.4661100e-01	  -1.8249946e-01	
   9.8890000e+01	  -2.4650184e-01	  -1.8459466e-01	
   9.8945000e+01	  -2.4518050e-01	  -1.8649180e-01	
   9.9000000e+01	  -2.4261740e-01	  -1.8818316e-01	
   9.9055000e+01	  -2.3881048e-01	  -1.8966267e-01	
   9.9110000e+01	  -2.3378916e-01	  -1.9092310e-01	
   9.9165000e+01	  -2.2761721e-01	  -1.9195421e-01	
   9.9220000e+01	  -2.2039294e-01	  -1.9274218e-01	
   9.9275000e+01	  -2.1224659e-01	  -1.9327029e-01	
   9.9330000e+01	  -2.0333651e-01	  -1.9352068e-01	
   9.9385000e+01	  -1.9384550e-01	  -1.9347675e-01	
   9.9440000e+01	  -1.8397629e-01	  -1.9312474e-01	
   9.9495000e+01	  -1.7394427e-01	  -1.9245346e-01	
   9.9550000e+01	  -1.6396658e-01	  -1.9145261e-01	
   9.9605000e+01	  -1.5424863e-01	  -1.9010987e-01	
   9.9660000e+01	  -1.4497077e-01	  -1.8840785e-01	
   9.9715000e+01	  -1.3627777e-01	  -1.8632144e-01	
   9.9770000e+01	  -1.2827371e-01	  -1.8381722e-01	
   9.9825000e+01	  -1.2102301e-01	  -1.8085566e-01	
   9.9880000e+01	  -1.1455583e-01	  -1.7739545e-01	
   9.9935000e+01	  -1.0887477e-01	  -1.7339870e-01	
   9.9990000e+01	  -1.0396099e-01	  -1.6883699e-01	
   1.0004500e+02	  -9.9779813e-02	  -1.6369770e-01	
   1.0010000e+02	  -9.6286314e-02	  -1.5798980e-01	
   1.0015500e+02	  -9.3430490e-02	  -1.5174790e-01	
   1.0021000e+02	  -9.1161341e-02	  -1.4503349e-01	
   1.0026500e+02	  -8.9428830e-02	  -1.3793262e-01	
   1.0032000e+02	  -8.8182786e-02	  -1.3054995e-01	
   1.0037500e+02	  -8.7369394e-02	  -1.2300082e-01	
   1.0043000e+02	  -8.6927106e-02	  -1.1540313e-01	
   1.0048500e+02	  -8.6782346e-02	  -1.0786985e-01	
   1.0054000e+02	  -8.6844282e-02	  -1.0050234e-01	
   1.0059500e+02	  -8.6999538e-02	  -9.3384986e-02	
   1.0065000e+02	  -8.7109015e-02	  -8.6582119e-02	
   1.0070500e+02	  -8.7008148e-02	  -8.0138067e-02	
   1.0076000e+02	  -8.6510863e-02	  -7.4080255e-02	
   1.0081500e+02	  -8.5417442e-02	  -6.8424598e-02	
   1.0087000e+02	  -8.3526360e-02	  -6.3181896e-02	
   1.0092500e+02	  -8.0649587e-02	  -5.8363642e-02	
   1.0098000e+02	  -7.6630107e-02	  -5.3986168e-02	
   1.0103500e+02	  -7.1359428e-02	  -5.0073044e-02	
   1.0109000e+02	  -6.4791814e-02	  -4.6655708e-02	
   1.0114500e+02	  -5.6952465e-02	  -4.3771912e-02	
   1.0120000e+02	  -4.7938467e-02	  -4.1461919e-02	
   1.0125500e+02	  -3.7912641e-02	  -3.9763097e-02	
   1.0131000e+02	  -2.7091596e-02	  -3.8704032e-02	
   1.0136500e+02	  -1.5730348e-02	  -3.8299233e-02	
   1.0142000e+02	  -4.1059182e-03	  -3.8545400e-02	
   1.0147500e+02	   7.4977940e-03	  -3.9420085e-02	
   1.0153000e+02	   1.8801225e-02	  -4.0882947e-02	
   1.0158500e+02	   2.9535290e-02	  -4.2878806e-02	
   1.0164000e+02	   3.9444256e-02	  -4.5341389e-02	
   1.0169500e+02	   4.8287679e-02	  -4.8197322e-02	
   1.0175000e+02	   5.5842884e-02	  -5.1370132e-02	
   1.0180500e+02	   6.1910082e-02	  -5.4783403e-02	
   1.0186000e+02	   6.6321815e-02	  -5.8362416e-02	
   1.0191500e+02	   6.8954853e-02	  -6.2034656e-02	
   1.0197000e+02	   6.9740391e-02	  -6.5729973e-02	
   1.0202500e+02	   6.8670416e-02	  -6.9380670e-02	
   1.0208000e+02	   6.5800438e-02	  -7.2921516e-02	
   1.0213500e+02	   6.1248189e-02	  -7.6289959e-02	
   1.0219000e+02	   5.5187249e-02	  -7.9426950e-02	
   1.0224500e+02	   4.7836146e-02	  -8.2278572e-02	
   1.0230000e+02	   3.9444684e-02	  -8.4798505e-02	
   1.0235500e+02	   3.0278694e-02	  -8.6951128e-02	
   1.0241000e+02	   2.0604186e-02	  -8.8714694e-02	
   1.0246500e+02	   1.0672308e-02	  -9.0083792e-02	
   1.0252000e+02	   7.0624600e-04	  -9.1070535e-02	
   1.0257500e+02	  -9.1091130e-03	  -9.1704015e-02	
   1.0263000e+02	  -1.8633188e-02	  -9.2027388e-02	
   1.0268500e+02	  -2.7769894e-02	  -9.2092476e-02	
   1.0274000e+02	  -3.6462570e-02	  -9.1953293e-02	
   1.0279500e+02	  -4.4686044e-02	  -9.1660553e-02	
   1.0285000e+02	  -5.2437498e-02	  -9.1257684e-02	
   1.0290500e+02	  -5.9726483e-02	  -9.0777394e-02	
   1.0296000e+02	  -6.6565268e-02	  -9.0238437e-02	
   1.0301500e+02	  -7.2962500e-02	  -8.9643832e-02	
   1.0307000e+02	  -7.8922362e-02	  -8.8981840e-02	
   1.0312500e+02	  -8.4447747e-02	  -8.8229814e-02	
   1.0318000e+02	  -8.9543473e-02	  -8.7360287e-02	
   1.0323500e+02	  -9.4216839e-02	  -8.6348456e-02	
   1.0329000e+02	  -9.8475916e-02	  -8.5179555e-02	
   1.0334500e+02	  -1.0232767e-01	  -8.3854291e-02	
   1.0340000e+02	  -1.0577751e-01	  -8.2391246e-02	
   1.0345500e+02	  -1.0883032e-01	  -8.0826017e-02	
   1.0351000e+02	  -1.1149162e-01	  -7.9206974e-02	
   1.0356500e+02	  -1.1376804e-01	  -7.7588074e-02	
   1.0362000e+02	  -1.1566697e-01	  -7.6020589e-02	
   1.0367500e+02	  -1.1719581e-01	  -7.4546210e-02	
   1.0373000e+02	  -1.1836158e-01	  -7.3192864e-02	
   1.0378500e+02	  -1.1917161e-01	  -7.1973427e-02	
   1.0384000e+02	  -1.1963597e-01	  -7.0887187e-02	
   1.0389500e+02	  -1.1977113e-01	  -6.9923534e-02	
   1.0395000e+02	  -1.1960295e-01	  -6.9066597e-02	
   1.0400500e+02	  -1.1916753e-01	  -6.8299506e-02	
   1.0406000e+02	  -1.1851022e-01	  -6.7607730e-02	
   1.0411500e+02	  -1.1768461e-01	  -6.6981748e-02	
   1.0417000e+02	  -1.1675148e-01	  -6.6419128e-02	
   1.0422500e+02	  -1.1577718e-01	  -6.5925125e-02	
   1.0428000e+02	  -1.1483125e-01	  -6.5510975e-02	
   1.0433500e+02	  -1.1398372e-01	  -6.5190630e-02	
   1.0439000e+02	  -1.1330190e-01	  -6.4977661e-02	
   1.0444500e+02	  -1.1284526e-01	  -6.4883346e-02	
   1.0450000e+02	  -1.1265921e-01	  -6.4916130e-02	
   1.0455500e+02	  -1.1277002e-01	  -6.5082308e-02	
   1.0461000e+02	  -1.1318193e-01	  -6.5387396e-02	
   1.0466500e+02	  -1.1387537e-01	  -6.5837376e-02	
   1.0472000e+02	  -1.1480662e-01	  -6.6439251e-02	
   1.0477500e+02	  -1.1591043e-01	  -6.7200888e-02	
   1.0483000e+02	  -1.1710606e-01	  -6.8130072e-02	
   1.0488500e+02	  -1.1830584e-01	  -6.9232638e-02	
   1.0494000e+02	  -1.1942534e-01	  -7.0510051e-02	
   1.0499500e+02	  -1.2039334e-01	  -7.1957132e-02	
   1.0505000e+02	  -1.2115886e-01	  -7.3560113e-02	
   1.0510500e+02	  -1.2169263e-01	  -7.5295149e-02	
   1.0516000e+02	  -1.2198294e-01	  -7.7127775e-02	
   1.0521500e+02	  -1.2202871e-01	  -7.9013729e-02	
   1.0527000e+02	  -1.2183341e-01	  -8.0901038e-02	
   1.0532500e+02	  -1.2140113e-01	  -8.2732962e-02	
   1.0538000e+02	  -1.2073406e-01	  -8.4451341e-02	
   1.0543500e+02	  -1.1982977e-01	  -8.5999764e-02	
   1.0549000e+02	  -1.1867913e-01	  -8.7325919e-02	
   1.0554500e+02	  -1.1726642e-01	  -8.8383130e-02	
   1.0560000e+02	  -1.1557252e-01	  -8.9131948e-02	
   1.0565500e+02	  -1.1358008e-01	  -8.9542227e-02	
   1.0571000e+02	  -1.1127850e-01	  -8.9595019e-02	
   1.0576500e+02	  -1.0866766e-01	  -8.9283297e-02	
   1.0582000e+02	  -1.0575985e-01	  -8.8611227e-02	
   1.0587500e+02	  -1.0257944e-01	  -8.7591909e-02	
   1.0593000e+02	  -9.9159878e-02	  -8.6243862e-02	
   1.0598500e+02	  -9.5539670e-02	  -8.4587425e-02	
   1.0604000e+02	  -9.1760326e-02	  -8.2642824e-02	
   1.0609500e+02	  -8.7866959e-02	  -8.0430270e-02	
   1.0615000e+02	  -8.3907470e-02	  -7.7970644e-02	
   1.0620500e+02	  -7.9926155e-02	  -7.5285419e-02	
   1.0626000e+02	  -7.5952730e-02	  -7.2396486e-02	
   1.0631500e+02	  -7.1991951e-02	  -6.9327113e-02	
   1.0637000e+02	  -6.8018011e-02	  -6.6103754e-02	
   1.0642500e+02	  -6.3974656e-02	  -6.2757677e-02	
   1.0648000e+02	  -5.9780495e-02	  -5.9326169e-02	
   1.0653500e+02	  -5.5339228e-02	  -5.5853796e-02	
   1.0659000e+02	  -5.0554244e-02	  -5.2394038e-02	
   1.0664500e+02	  -4.5345909e-02	  -4.9011250e-02	
   1.0670000e+02	  -3.9668418e-02	  -4.5782372e-02	
   1.0675500e+02	  -3.3522190e-02	  -4.2796965e-02	
   1.0681000e+02	  -2.6958946e-02	  -4.0154092e-02	
   1.0686500e+02	  -2.0079681e-02	  -3.7956327e-02	
   1.0692000e+02	  -1.3028023e-02	  -3.6302815e-02	
   1.0697500e+02	  -5.9812089e-03	  -3.5282619e-02	
   1.0703000e+02	   8.6055112e-04	  -3.4968137e-02	
   1.0708500e+02	   7.2864378e-03	  -3.5408891e-02	
   1.0714000e+02	   1.3088890e-02	  -3.6627073e-02	
   1.0719500e+02	   1.8077295e-02	  -3.8615902e-02	
   1.0725000e+02	   2.2088853e-02	  -4.1340736e-02	
   1.0730500e+02	   2.4994886e-02	  -4.4742558e-02	
   1.0736000e+02	   2.6703152e-02	  -4.8743635e-02	
   1.0741500e+02	   2.7157948e-02	  -5.3254964e-02	
   1.0747000e+02	   2.6338831e-02	  -5.8184708e-02	
   1.0752500e+02	   2.4257236e-02	  -6.3446673e-02	
   1.0758000e+02	   2.0950570e-02	  -6.8967500e-02	
   1.0763500e+02	   1.6475131e-02	  -7.4690598e-02	
   1.0769000e+02	   1.0899837e-02	  -8.0575286e-02	
   1.0774500e+02	   4.3012834e-03	  -8.6591936e-02	
   1.0780000e+02	  -3.2404634e-03	  -9.2715747e-02	
   1.0785500e+02	  -1.1644481e-02	  -9.8921469e-02	
   1.0791000e+02	  -2.0827921e-02	  -1.0517995e-01	
   1.0796500e+02	  -3.0700892e-02	  -1.1145648e-01	
   1.0802000e+02	  -4.1159597e-02	  -1.1771055e-01	
   1.0807500e+02	  -5.2080644e-02	  -1.2389614e-01	
   1.0813000e+02	  -6.3318633e-02	  -1.2996242e-01	
   1.0818500e+02	  -7.4708360e-02	  -1.3585551e-01	
   1.0824000e+02	  -8.6071966e-02	  -1.4152203e-01	
   1.0829500e+02	  -9.7229346e-02	  -1.4691413e-01	
   1.0835000e+02	  -1.0800870e-01	  -1.5199438e-01	
   1.0840500e+02	  -1.1825536e-01	  -1.5673917e-01	
   1.0846000e+02	  -1.2783853e-01	  -1.6113987e-01	
   1.0851500e+02	  -1.3665444e-01	  -1.6520084e-01	
   1.0857000e+02	  -1.4462446e-01	  -1.6893479e-01	
   1.0862500e+02	  -1.5168957e-01	  -1.7235728e-01	
   1.0868000e+02	  -1.5780590e-01	  -1.7548276e-01	
   1.0873500e+02	  -1.6294436e-01	  -1.7832299e-01	
   1.0879000e+02	  -1.6709302e-01	  -1.8088673e-01	
   1.0884500e+02	  -1.7025924e-01	  -1.8317981e-01	
   1.0890000e+02	  -1.7246981e-01	  -1.8520493e-01	
   1.0895500e+02	  -1.7376923e-01	  -1.8696088e-01	
   1.0901000e+02	  -1.7421670e-01	  -1.8844130e-01	
   1.0906500e+02	  -1.7388329e-01	  -1.8963428e-01	
   1.0912000e+02	  -1.7284928e-01	  -1.9052347e-01	
   1.0917500e+02	  -1.7120045e-01	  -1.9109059e-01	
   1.0923000e+02	  -1.6902325e-01	  -1.9131795e-01	
   1.0928500e+02	  -1.6640085e-01	  -1.9118983e-01	
   1.0934000e+02	  -1.6341124e-01	  -1.9069217e-01	
   1.0939500e+02	  -1.6012571e-01	  -1.8981134e-01	
   1.0945000e+02	  -1.5660710e-01	  -1.8853300e-01	
   1.0950500e+02	  -1.5290859e-01	  -1.8684189e-01	
   1.0956000e+02	  -1.4907402e-01	  -1.8472286e-01	
   1.0961500e+02	  -1.4513852e-01	  -1.8216270e-01	
   1.0967000e+02	  -1.4112876e-01	  -1.7915222e-01	
   1.0972500e+02	  -1.3706359e-01	  -1.7568891e-01	
   1.0978000e+02	  -1.3295591e-01	  -1.7177990e-01	
   1.0983500e+02	  -1.2881475e-01	  -1.6744488e-01	
   1.0989000e+02	  -1.2464623e-01	  -1.6271807e-01	
   1.0994500e+02	  -1.2045361e-01	  -1.5764929e-01	
   1.1000000e+02	  -1.1623691e-01	  -1.5230417e-01	
   1.1005500e+02	  -1.1199156e-01	  -1.4676235e-01	
   1.1011000e+02	  -1.0770669e-01	  -1.4111313e-01	
   1.1016500e+02	  -1.0336477e-01	  -1.3544974e-01	
   1.1022000e+02	  -9.8942784e-02	  -1.2986376e-01	
   1.1027500e+02	  -9.4414161e-02	  -1.2444017e-01	
   1.1033000e+02	  -8.9750782e-02	  -1.1925286e-01	
   1.1038500e+02	  -8.4925029e-02	  -1.1436043e-01	
   1.1044000e+02	  -7.9910059e-02	  -1.0980201e-01	
   1.1049500e+02	  -7.4676834e-02	  -1.0559297e-01	
   1.1055000e+02	  -6.9189584e-02	  -1.0172191e-01	
   1.1060500e+02	  -6.3403806e-02	  -9.8150963e-02	
   1.1066000e+02	  -5.7269592e-02	  -9.4820276e-02	
   1.1071500e+02	  -5.0740153e-02	  -9.1655415e-02	
   1.1077000e+02	  -4.3783164e-02	  -8.8575812e-02	
   1.1082500e+02	  -3.6391207e-02	  -8.5503143e-02	
   1.1088000e+02	  -2.8587635e-02	  -8.2369061e-02	
   1.1093500e+02	  -2.0426400e-02	  -7.9121106e-02	
   1.1099000e+02	  -1.1987188e-02	  -7.5725533e-02	
   1.1104500e+02	  -3.3679990e-03	  -7.2166772e-02	
   1.1110000e+02	   5.3237599e-03	  -6.8443800e-02	
   1.1115500e+02	   1.3981686e-02	  -6.4564067e-02	
   1.1121000e+02	   2.2512147e-02	  -6.0536833e-02	
   1.1126500e+02	   3.0846121e-02	  -5.6368231e-02	
   1.1132000e+02	   3.8949228e-02	  -5.2058888e-02	
   1.1137500e+02	   4.6827999e-02	  -4.7603721e-02	
   1.1143000e+02	   5.4530220e-02	  -4.2993804e-02	
   1.1148500e+02	   6.2138222e-02	  -3.8220373e-02	
   1.1154000e+02	   6.9756291e-02	  -3.3279985e-02	
   1.1159500e+02	   7.7494839e-02	  -2.8179256e-02	
   1.1165000e+02	   8.5453884e-02	  -2.2938408e-02	
   1.1170500e+02	   9.3707936e-02	  -1.7593496e-02	
   1.1176000e+02	   1.0229412e-01	  -1.2196639e-02	
   1.1181500e+02	   1.1120483e-01	  -6.8133889e-03	
   1.1187000e+02	   1.2038467e-01	  -1.5174158e-03	
   1.1192500e+02	   1.2973067e-01	   3.6160250e-03	
   1.1198000e+02	   1.3909576e-01	   8.5160683e-03	
   1.1203500e+02	   1.4829682e-01	   1.3120625e-02	
   1.1209000e+02	   1.5712777e-01	   1.7379031e-02	
   1.1214500e+02	   1.6537650e-01	   2.1253480e-02	
   1.1220000e+02	   1.7284301e-01	   2.4719824e-02	
   1.1225500e+02	   1.7935649e-01	   2.7767832e-02	
   1.1231000e+02	   1.8478875e-01	   3.0400306e-02	
   1.1236500e+02	   1.8906232e-01	   3.2630461e-02	
   1.1242000e+02	   1.9215255e-01	   3.4477817e-02	
   1.1247500e+02	   1.9408607e-01	   3.5964017e-02	
   1.1253000e+02	   1.9493787e-01	   3.7110398e-02	
   1.1258500e+02	   1.9482814e-01	   3.7938344e-02	
   1.1264000e+02	   1.9391861e-01	   3.8472021e-02	
   1.1269500e+02	   1.9240836e-01	   3.8741887e-02	
   1.1275000e+02	   1.9052803e-01	   3.8787197e-02	
   1.1280500e+02	   1.8853153e-01	   3.8656612e-02	
   1.1286000e+02	   1.8668485e-01	   3.8407203e-02	
   1.1291500e+02	   1.8525174e-01	   3.8102496e-02	
   1.1297000e+02	   1.8447724e-01	   3.7809493e-02	
   1.1302500e+02	   1.8457201e-01	   3.7594541e-02	
   1.1308000e+02	   1.8570103e-01	   3.7518824e-02	
   1.1313500e+02	   1.8797765e-01	   3.7634254e-02	
   1.1319000e+02	   1.9146136e-01	   3.7979914e-02	
   1.1324500e+02	   1.9615842e-01	   3.8579419e-02	
   1.1330000e+02	   2.0202570e-01	   3.9440457e-02	
   1.1335500e+02	   2.0897875e-01	   4.0557467e-02	
   1.1341000e+02	   2.1690230e-01	   4.1916556e-02	
   1.1346500e+02	   2.2566052e-01	   4.3500461e-02	
   1.1352000e+02	   2.3510531e-01	   4.5291830e-02	
   1.1357500e+02	   2.4508324e-01	   4.7274341e-02	
   1.1363000e+02	   2.5544130e-01	   4.9432074e-02	
   1.1368500e+02	   2.6603012e-01	   5.1747900e-02	
   1.1374000e+02	   2.7670464e-01	   5.4201343e-02	
   1.1379500e+02	   2.8732345e-01	   5.6765901e-02	
   1.1385000e+02	   2.9774754e-01	   5.9405889e-02	
   1.1390500e+02	   3.0783896e-01	   6.2073673e-02	
   1.1396000e+02	   3.1745998e-01	   6.4708639e-02	
   1.1401500e+02	   3.2647400e-01	   6.7238502e-02	
   1.1407000e+02	   3.3474757e-01	   6.9582615e-02	
   1.1412500e+02	   3.4215251e-01	   7.1657079e-02	
   1.1418000e+02	   3.4856770e-01	   7.3381750e-02	
   1.1423500e+02	   3.5388164e-01	   7.4688049e-02	
   1.1429000e+02	   3.5799578e-01	   7.5525270e-02	
   1.1434500e+02	   3.6082868e-01	   7.5864060e-02	
   1.1440000e+02	   3.6232120e-01	   7.5697761e-02	
   1.1445500e+02	   3.6244218e-01	   7.5042634e-02	
   1.1451000e+02	   3.6119276e-01	   7.3936835e-02	
   1.1456500e+02	   3.5860784e-01	   7.2437785e-02	
   1.1462000e+02	   3.5475472e-01	   7.0617990e-02	
   1.1467500e+02	   3.4972914e-01	   6.8559334e-02	
   1.1473000e+02	   3.4364843e-01	   6.6346060e-02	
   1.1478500e+02	   3.3664274e-01	   6.4057516e-02	
   1.1484000e+02	   3.2884545e-01	   6.1761753e-02	
   1.1489500e+02	   3.2038371e-01	   5.9510124e-02	
   1.1495000e+02	   3.1136913e-01	   5.7333050e-02	
   1.1500500e+02	   3.0189029e-01	   5.5238181e-02	
   1.1506000e+02	   2.9200966e-01	   5.3212626e-02	
   1.1511500e+02	   2.8176614e-01	   5.1229448e-02	
   1.1517000e+02	   2.7118166e-01	   4.9256349e-02	
   1.1522500e+02	   2.6027031e-01	   4.7263968e-02	
   1.1528000e+02	   2.4904964e-01	   4.5232410e-02	
   1.1533500e+02	   2.3755248e-01	   4.3155415e-02	
   1.1539000e+02	   2.2583597e-01	   4.1041549e-02	
   1.1544500e+02	   2.1398483e-01	   3.8912662e-02	
   1.1550000e+02	   2.0210990e-01	   3.6801132e-02	
   1.1555500e+02	   1.9034520e-01	   3.4746931e-02	
   1.1561000e+02	   1.7884406e-01	   3.2793878e-02	
   1.1566500e+02	   1.6777313e-01	   3.0984526e-02	
   1.1572000e+02	   1.5730312e-01	   2.9354424e-02	
   1.1577500e+02	   1.4759635e-01	   2.7926868e-02	
   1.1583000e+02	   1.3879268e-01	   2.6708702e-02	
   1.1588500e+02	   1.3099667e-01	   2.5687745e-02	
   1.1594000e+02	   1.2426880e-01	   2.4832448e-02	
   1.1599500e+02	   1.1862141e-01	   2.4093920e-02	
   1.1605000e+02	   1.1401786e-01	   2.3409852e-02	
   1.1610500e+02	   1.1037449e-01	   2.2709374e-02	
   1.1616000e+02	   1.0756620e-01	   2.1917803e-02	
   1.1621500e+02	   1.0543576e-01	   2.0960699e-02	
   1.1627000e+02	   1.0380503e-01	   1.9767581e-02	
   1.1632500e+02	   1.0248568e-01	   1.8275802e-02	
   1.1638000e+02	   1.0128794e-01	   1.6434299e-02	
   1.1643500e+02	   1.0002745e-01	   1.4206302e-02	
   1.1649000e+02	   9.8531223e-02	   1.1570119e-02	
   1.1654500e+02	   9.6642064e-02	   8.5174476e-03	
   1.1660000e+02	   9.4219912e-02	   5.0494567e-03	
   1.1665500e+02	   9.1140212e-02	   1.1718969e-03	
   1.1671000e+02	   8.7291455e-02	  -3.1086430e-03	
   1.1676500e+02	   8.2573982e-02	  -7.7852262e-03	
   1.1682000e+02	   7.6900891e-02	  -1.2847184e-02	
   1.1687500e+02	   7.0200632e-02	  -1.8274537e-02	
   1.1693000e+02	   6.2420841e-02	  -2.4032867e-02	
   1.1698500e+02	   5.3533498e-02	  -3.0070166e-02	
   1.1704000e+02	   4.3540661e-02	  -3.6315813e-02	
   1.1709500e+02	   3.2478699e-02	  -4.2681930e-02	
   1.1715000e+02	   2.0419380e-02	  -4.9067582e-02	
   1.1720500e+02	   7.4680253e-03	  -5.5365218e-02	
   1.1726000e+02	  -6.2396256e-03	  -6.1467644e-02	
   1.1731500e+02	  -2.0540582e-02	  -6.7274241e-02	
   1.1737000e+02	  -3.5248128e-02	  -7.2696108e-02	
   1.1742500e+02	  -5.0156372e-02	  -7.7659715e-02	
   1.1748000e+02	  -6.5045009e-02	  -8.2108023e-02	
   1.1753500e+02	  -7.9682926e-02	  -8.5998491e-02	
   1.1759000e+02	  -9.3830715e-02	  -8.9298900e-02	
   1.1764500e+02	  -1.0724415e-01	  -9.1983056e-02	
   1.1770000e+02	  -1.1968098e-01	  -9.4028399e-02	
   1.1775500e+02	  -1.3091132e-01	  -9.5416430e-02	
   1.1781000e+02	  -1.4072932e-01	  -9.6135320e-02	
   1.1786500e+02	  -1.4896288e-01	  -9.6183109e-02	
   1.1792000e+02	  -1.5548052e-01	  -9.5570382e-02	
   1.1797500e+02	  -1.6019676e-01	  -9.4322665e-02	
   1.1803000e+02	  -1.6307775e-01	  -9.2483115e-02	
   1.1808500e+02	  -1.6414685e-01	  -9.0114922e-02	
   1.1814000e+02	  -1.6348810e-01	  -8.7302024e-02	
   1.1819500e+02	  -1.6124694e-01	  -8.4147599e-02	
   1.1825000e+02	  -1.5762758e-01	  -8.0770435e-02	
   1.1830500e+02	  -1.5288440e-01	  -7.7298783e-02	
   1.1836000e+02	  -1.4730530e-01	  -7.3861908e-02	
   1.1841500e+02	  -1.4118909e-01	  -7.0581442e-02	
   1.1847000e+02	  -1.3482158e-01	  -6.7565075e-02	
   1.1852500e+02	  -1.2845497e-01	  -6.4903102e-02	
   1.1858000e+02	  -1.2229376e-01	  -6.2666877e-02	
   1.1863500e+02	  -1.1648815e-01	  -6.0908654e-02	
   1.1869000e+02	  -1.1113407e-01	  -5.9663098e-02	
   1.1874500e+02	  -1.0627854e-01	  -5.8950442e-02	
   1.1880000e+02	  -1.0192871e-01	  -5.8780501e-02	
   1.1885500e+02	  -9.8063082e-02	  -5.9156496e-02	
   1.1891000e+02	  -9.4643429e-02	  -6.0077832e-02	
   1.1896500e+02	  -9.1625536e-02	  -6.1541344e-02	
   1.1902000e+02	  -8.8967335e-02	  -6.3540996e-02	
   1.1907500e+02	  -8.6634006e-02	  -6.6066393e-02	
   1.1913000e+02	  -8.4600996e-02	  -6.9100320e-02	
   1.1918500e+02	  -8.2855421e-02	  -7.2615382e-02	
   1.1924000e+02	  -8.1395125e-02	  -7.6570452e-02	
   1.1929500e+02	  -8.0225213e-02	  -8.0908314e-02	
   1.1935000e+02	  -7.9353254e-02	  -8.5555370e-02	
   1.1940500e+02	  -7.8783993e-02	  -9.0422820e-02	
   1.1946000e+02	  -7.8513504e-02	  -9.5408385e-02	
   1.1951500e+02	  -7.8523506e-02	  -1.0039885e-01	
   1.1957000e+02	  -7.8777586e-02	  -1.0527406e-01	
   1.1962500e+02	  -7.9220662e-02	  -1.0991200e-01	
   1.1968000e+02	  -7.9781765e-02	  -1.1419462e-01	
   1.1973500e+02	  -8.0379045e-02	  -1.1801406e-01	
   1.1979000e+02	  -8.0925151e-02	  -1.2127940e-01	
   1.1984500e+02	  -8.1331947e-02	  -1.2392317e-01	
   1.1990000e+02	  -8.1515324e-02	  -1.2590689e-01	
   1.1995500e+02	  -8.1401467e-02	  -1.2722490e-01	
   1.2001000e+02	  -8.0934339e-02	  -1.2790526e-01	
   1.2006500e+02	  -8.0083073e-02	  -1.2800713e-01	
   1.2012000e+02	  -7.8848486e-02	  -1.2761565e-01	
   1.2017500e+02	  -7.7268345e-02	  -1.2683597e-01	
   1.2023000e+02	  -7.5420641e-02	  -1.2578680e-01	
   1.2028500e+02	  -7.3423802e-02	  -1.2459329e-01	
   1.2034000e+02	  -7.1432704e-02	  -1.2337960e-01	
   1.2039500e+02	  -6.9629769e-02	  -1.2226202e-01	
   1.2045000e+02	  -6.8212149e-02	  -1.2134372e-01	
   1.2050500e+02	  -6.7377980e-02	  -1.2071137e-01	
   1.2056000e+02	  -6.7314600e-02	  -1.2043419e-01	
   1.2061500e+02	  -6.8189651e-02	  -1.2056482e-01	
   1.2067000e+02	  -7.0144249e-02	  -1.2114089e-01	
   1.2072500e+02	  -7.3287048e-02	  -1.2218573e-01	
   1.2078000e+02	  -7.7688651e-02	  -1.2370782e-01	
   1.2083500e+02	  -8.3377004e-02	  -1.2569922e-01	
   1.2089000e+02	  -9.0335100e-02	  -1.2813446e-01	
   1.2094500e+02	  -9.8501317e-02	  -1.3097064e-01	
   1.2100000e+02	  -1.0777155e-01	  -1.3414968e-01	
   1.2105500e+02	  -1.1800340e-01	  -1.3760298e-01	
   1.2111000e+02	  -1.2902401e-01	  -1.4125820e-01	
   1.2116500e+02	  -1.4064185e-01	  -1.4504588e-01	
   1.2122000e+02	  -1.5265980e-01	  -1.4890451e-01	
   1.2127500e+02	  -1.6488759e-01	  -1.5278367e-01	
   1.2133000e+02	  -1.7715232e-01	  -1.5664585e-01	
   1.2138500e+02	  -1.8930629e-01	  -1.6046695e-01	
   1.2144000e+02	  -2.0123084e-01	  -1.6423562e-01	
   1.2149500e+02	  -2.1283643e-01	  -1.6795186e-01	
   1.2155000e+02	  -2.2405998e-01	  -1.7162555e-01	
   1.2160500e+02	  -2.3486064e-01	  -1.7527449e-01	
   1.2166000e+02	  -2.4521401e-01	  -1.7892169e-01	
   1.2171500e+02	  -2.5510599e-01	  -1.8259281e-01	
   1.2177000e+02	  -2.6452759e-01	  -1.8631452e-01	
   1.2182500e+02	  -2.7347104e-01	  -1.9011318e-01	
   1.2188000e+02	  -2.8192562e-01	  -1.9401286e-01	
   1.2193500e+02	  -2.8987316e-01	  -1.9803258e-01	
   1.2199000e+02	  -2.9728536e-01	  -2.0218416e-01	
   1.2204500e+02	  -3.0412398e-01	  -2.0647123e-01	
   1.2210000e+02	  -3.1034298e-01	  -2.1088945e-01	
   1.2215500e+02	  -3.1589175e-01	  -2.1542754e-01	
   1.2221000e+02	  -3.2071821e-01	  -2.2006844e-01	
   1.2226500e+02	  -3.2477076e-01	  -2.2478916e-01	
   1.2232000e+02	  -3.2799800e-01	  -2.2955919e-01	
   1.2237500e+02	  -3.3034665e-01	  -2.3433845e-01	
   1.2243000e+02	  -3.3175856e-01	  -2.3907555e-01	
   1.2248500e+02	  -3.3216886e-01	  -2.4370776e-01	
   1.2254000e+02	  -3.3150758e-01	  -2.4816352e-01	
   1.2259500e+02	  -3.2970565e-01	  -2.5236780e-01	
   1.2265000e+02	  -3.2670354e-01	  -2.5624929e-01	
   1.2270500e+02	  -3.2246011e-01	  -2.5974724e-01	
   1.2276000e+02	  -3.1696049e-01	  -2.6281715e-01	
   1.2281500e+02	  -3.1022277e-01	  -2.6543521e-01	
   1.2287000e+02	  -3.0230304e-01	  -2.6760183e-01	
   1.2292500e+02	  -2.9329813e-01	  -2.6934375e-01	
   1.2298000e+02	  -2.8334667e-01	  -2.7071423e-01	
   1.2303500e+02	  -2.7262835e-01	  -2.7179046e-01	
   1.2309000e+02	  -2.6136032e-01	  -2.7266744e-01	
   1.2314500e+02	  -2.4978926e-01	  -2.7344895e-01	
   1.2320000e+02	  -2.3817873e-01	  -2.7423780e-01	
   1.2325500e+02	  -2.2679258e-01	  -2.7512777e-01	
   1.2331000e+02	  -2.1587544e-01	  -2.7619783e-01	
   1.2336500e+02	  -2.0563313e-01	  -2.7750785e-01	
   1.2342000e+02	  -1.9621714e-01	  -2.7909485e-01	
   1.2347500e+02	  -1.8771716e-01	  -2.8097038e-01	
   1.2353000e+02	  -1.8016325e-01	  -2.8312009e-01	
   1.2358500e+02	  -1.7353576e-01	  -2.8550587e-01	
   1.2364000e+02	  -1.6777889e-01	  -2.8807035e-01	
   1.2369500e+02	  -1.6281422e-01	  -2.9074216e-01	
   1.2375000e+02	  -1.5855171e-01	  -2.9344054e-01	
   1.2380500e+02	  -1.5489736e-01	  -2.9607820e-01	
   1.2386000e+02	  -1.5175872e-01	  -2.9856297e-01	
   1.2391500e+02	  -1.4904936e-01	  -3.0079862e-01	
   1.2397000e+02	  -1.4669156e-01	  -3.0268479e-01	
   1.2402500e+02	  -1.4461716e-01	  -3.0411632e-01	
   1.2408000e+02	  -1.4276687e-01	  -3.0498424e-01	
   1.2413500e+02	  -1.4108924e-01	  -3.0517994e-01	
   1.2419000e+02	  -1.3953950e-01	  -3.0460201e-01	
   1.2424500e+02	  -1.3807853e-01	  -3.0316405e-01	
   1.2430000e+02	  -1.3667250e-01	  -3.0080160e-01	
   1.2435500e+02	  -1.3529459e-01	  -2.9747793e-01	
   1.2441000e+02	  -1.3392942e-01	  -2.9318861e-01	
   1.2446500e+02	  -1.3257840e-01	  -2.8796474e-01	
   1.2452000e+02	  -1.3126324e-01	  -2.8187456e-01	
   1.2457500e+02	  -1.3002631e-01	  -2.7502331e-01	
   1.2463000e+02	  -1.2892745e-01	  -2.6755114e-01	
   1.2468500e+02	  -1.2803742e-01	  -2.5962801e-01	
   1.2474000e+02	  -1.2742884e-01	  -2.5144500e-01	
   1.2479500e+02	  -1.2716772e-01	  -2.4320289e-01	
   1.2485000e+02	  -1.2730779e-01	  -2.3509968e-01	
   1.2490500e+02	  -1.2788578e-01	  -2.2731875e-01	
   1.2496000e+02	  -1.2891537e-01	  -2.2001964e-01	
   1.2501500e+02	  -1.3038018e-01	  -2.1333211e-01	
   1.2507000e+02	  -1.3222861e-01	  -2.0735284e-01	
   1.2512500e+02	  -1.3437167e-01	  -2.0214359e-01	
   1.2518000e+02	  -1.3668382e-01	  -1.9773118e-01	
   1.2523500e+02	  -1.3900648e-01	  -1.9410984e-01	
   1.2529000e+02	  -1.4115384e-01	  -1.9124569e-01	
   1.2534500e+02	  -1.4292114e-01	  -1.8908175e-01	
   1.2540000e+02	  -1.4409566e-01	  -1.8754289e-01	
   1.2545500e+02	  -1.4447095e-01	  -1.8654031e-01	
   1.2551000e+02	  -1.4386277e-01	  -1.8597583e-01	
   1.2556500e+02	  -1.4212454e-01	  -1.8574512e-01	
   1.2562000e+02	  -1.3915897e-01	  -1.8574000e-01	
   1.2567500e+02	  -1.3492327e-01	  -1.8585052e-01	
   1.2573000e+02	  -1.2942688e-01	  -1.8596753e-01	
   1.2578500e+02	  -1.2272428e-01	  -1.8598583e-01	
   1.2584000e+02	  -1.1490671e-01	  -1.8580752e-01	
   1.2589500e+02	  -1.0609492e-01	  -1.8534538e-01	
   1.2595000e+02	  -9.6433166e-02	  -1.8452600e-01	
   1.2600500e+02	  -8.6084487e-02	  -1.8329245e-01	
   1.2606000e+02	  -7.5227717e-02	  -1.8160682e-01	
   1.2611500e+02	  -6.4055869e-02	  -1.7945258e-01	
   1.2617000e+02	  -5.2773937e-02	  -1.7683622e-01	
   1.2622500e+02	  -4.1593869e-02	  -1.7378722e-01	
   1.2628000e+02	  -3.0725956e-02	  -1.7035583e-01	
   1.2633500e+02	  -2.0367950e-02	  -1.6660823e-01	
   1.2639000e+02	  -1.0694277e-02	  -1.6261952e-01	
   1.2644500e+02	  -1.8474841e-03	  -1.5846599e-01	
   1.2650000e+02	   6.0672181e-03	  -1.5421831e-01	
   1.2655500e+02	   1.2984733e-02	  -1.4993709e-01	
   1.2661000e+02	   1.8881235e-02	  -1.4567065e-01	
   1.2666500e+02	   2.3774797e-02	  -1.4145403e-01	
   1.2672000e+02	   2.7725125e-02	  -1.3730884e-01	
   1.2677500e+02	   3.0830315e-02	  -1.3324346e-01	
   1.2683000e+02	   3.3219530e-02	  -1.2925357e-01	
