
0   5   7
   0.0000000e+00	  -3.6160277e-01	  -3.8401252e-02	
   5.5000000e-02	  -3.5935320e-01	  -1.9819497e-02	
   1.1000000e-01	  -3.5704633e-01	  -7.6277035e-04	
   1.6500000e-01	  -3.5458790e-01	   1.8542835e-02	
   2.2000000e-01	  -3.5187887e-01	   3.7882302e-02	
   2.7500000e-01	  -3.4882082e-01	   5.7057989e-02	
   3.3000000e-01	  -3.4532441e-01	   7.5892584e-02	
   3.8500000e-01	  -3.4131887e-01	   9.4229903e-02	
   4.4000000e-01	  -3.3675872e-01	   1.1193475e-01	
   4.9500000e-01	  -3.3162546e-01	   1.2889247e-01	
   5.5000000e-01	  -3.2592464e-01	   1.4500855e-01	
   6.0500000e-01	  -3.1968062e-01	   1.6020820e-01	
   6.6000000e-01	  -3.1293110e-01	   1.7443611e-01	
   7.1500000e-01	  -3.0572232e-01	   1.8765590e-01	
   7.7000000e-01	  -2.9810517e-01	   1.9984877e-01	
   8.2500000e-01	  -2.9013246e-01	   2.1101196e-01	
   8.8000000e-01	  -2.8185726e-01	   2.2115731e-01	
   9.3500000e-01	  -2.7333239e-01	   2.3030987e-01	
   9.9000000e-01	  -2.6461098e-01	   2.3850603e-01	
   1.0450000e+00	  -2.5574728e-01	   2.4579138e-01	
   1.1000000e+00	  -2.4679646e-01	   2.5221869e-01	
   1.1550000e+00	  -2.3781351e-01	   2.5784633e-01	
   1.2100000e+00	  -2.2885132e-01	   2.6273661e-01	
   1.2650000e+00	  -2.1995844e-01	   2.6695393e-01	
   1.3200000e+00	  -2.1117603e-01	   2.7056330e-01	
   1.3750000e+00	  -2.0253481e-01	   2.7362935e-01	
   1.4300000e+00	  -1.9405309e-01	   2.7621563e-01	
   1.4850000e+00	  -1.8573662e-01	   2.7838492e-01	
   1.5400000e+00	  -1.7758007e-01	   2.8020033e-01	
   1.5950000e+00	  -1.6957033e-01	   2.8172653e-01	
   1.6500000e+00	  -1.6169187e-01	   2.8302997e-01	
   1.7050000e+00	  -1.5393280e-01	   2.8417808e-01	
   1.7600000e+00	  -1.4628983e-01	   2.8523792e-01	
   1.8150000e+00	  -1.3877090e-01	   2.8627430e-01	
   1.8700000e+00	  -1.3139562e-01	   2.8734704e-01	
   1.9250000e+00	  -1.2419321e-01	   2.8850815e-01	
   1.9800000e+00	  -1.1719797e-01	   2.8980037e-01	
   2.0350000e+00	  -1.1044327e-01	   2.9125754e-01	
   2.0900000e+00	  -1.0395504e-01	   2.9290664e-01	
   2.1450000e+00	  -9.7745556e-02	   2.9477031e-01	
   2.2000000e+00	  -9.1808322e-02	   2.9686908e-01	
   2.2550000e+00	  -8.6115659e-02	   2.9922246e-01	
   2.3100000e+00	  -8.0619558e-02	   3.0184852e-01	
   2.3650000e+00	  -7.5254956e-02	   3.0476271e-01	
   2.4200000e+00	  -6.9944746e-02	   3.0797628e-01	
   2.4750000e+00	  -6.4606604e-02	   3.1149432e-01	
   2.5300000e+00	  -5.9161130e-02	   3.1531335e-01	
   2.5850000e+00	  -5.3539663e-02	   3.1941902e-01	
   2.6400000e+00	  -4.7690256e-02	   3.2378412e-01	
   2.6950000e+00	  -4.1581300e-02	   3.2836714e-01	
   2.7500000e+00	  -3.5202518e-02	   3.3311217e-01	
   2.8050000e+00	  -2.8562841e-02	   3.3795107e-01	
   2.8600000e+00	  -2.1685418e-02	   3.4280809e-01	
   2.9150000e+00	  -1.4601722e-02	   3.4760546e-01	
   2.9700000e+00	  -7.3471074e-03	   3.5226846e-01	
   3.0250000e+00	   4.1630358e-05	   3.5672927e-01	
   3.0800000e+00	   7.5276739e-03	   3.6092950e-01	
   3.1350000e+00	   1.5075296e-02	   3.6482124e-01	
   3.1900000e+00	   2.2650417e-02	   3.6836652e-01	
   3.2450000e+00	   3.0220269e-02	   3.7153559e-01	
   3.3000000e+00	   3.7752094e-02	   3.7430472e-01	
   3.3550000e+00	   4.5210854e-02	   3.7665358e-01	
   3.4100000e+00	   5.2556592e-02	   3.7856210e-01	
   3.4650000e+00	   5.9743191e-02	   3.8000794e-01	
   3.5200000e+00	   6.6719769e-02	   3.8096522e-01	
   3.5750000e+00	   7.3434131e-02	   3.8140513e-01	
   3.6300000e+00	   7.9836956e-02	   3.8129805e-01	
   3.6850000e+00	   8.5886127e-02	   3.8061721e-01	
   3.7400000e+00	   9.1551166e-02	   3.7934300e-01	
   3.7950000e+00	   9.6817777e-02	   3.7746710e-01	
   3.8500000e+00	   1.0169231e-01	   3.7499599e-01	
   3.9050000e+00	   1.0620530e-01	   3.7195358e-01	
   3.9600000e+00	   1.1041254e-01	   3.6838254e-01	
   4.0150000e+00	   1.1439189e-01	   3.6434388e-01	
   4.0700000e+00	   1.1823628e-01	   3.5991500e-01	
   4.1250000e+00	   1.2204511e-01	   3.5518698e-01	
   4.1800000e+00	   1.2591630e-01	   3.5026095e-01	
   4.2350000e+00	   1.2994007e-01	   3.4524367e-01	
   4.2900000e+00	   1.3419389e-01	   3.4024242e-01	
   4.3450000e+00	   1.3873887e-01	   3.3536036e-01	
   4.4000000e+00	   1.4361774e-01	   3.3069279e-01	
   4.4550000e+00	   1.4885420e-01	   3.2632345e-01	
   4.5100000e+00	   1.5445346e-01	   3.2232105e-01	
   4.5650000e+00	   1.6040350e-01	   3.1873651e-01	
   4.6200000e+00	   1.6667768e-01	   3.1560182e-01	
   4.6750000e+00	   1.7323779e-01	   3.1292993e-01	
   4.7300000e+00	   1.8003654e-01	   3.1071490e-01	
   4.7850000e+00	   1.8701868e-01	   3.0893186e-01	
   4.8400000e+00	   1.9412140e-01	   3.0753692e-01	
   4.8950000e+00	   2.0127506e-01	   3.0646746e-01	
   4.9500000e+00	   2.0840421e-01	   3.0564376e-01	
   5.0050000e+00	   2.1542962e-01	   3.0497266e-01	
   5.0600000e+00	   2.2227177e-01	   3.0435284e-01	
   5.1150000e+00	   2.2885591e-01	   3.0368045e-01	
   5.1700000e+00	   2.3511760e-01	   3.0285434e-01	
   5.2250000e+00	   2.4100791e-01	   3.0178106e-01	
   5.2800000e+00	   2.4649738e-01	   3.0037946e-01	
   5.3350000e+00	   2.5157789e-01	   2.9858427e-01	
   5.3900000e+00	   2.5626242e-01	   2.9634874e-01	
   5.4450000e+00	   2.6058403e-01	   2.9364692e-01	
   5.5000000e+00	   2.6459524e-01	   2.9047580e-01	
   5.5550000e+00	   2.6836736e-01	   2.8685596e-01	
   5.6100000e+00	   2.7198881e-01	   2.8283016e-01	
   5.6650000e+00	   2.7556210e-01	   2.7845998e-01	
   5.7200000e+00	   2.7919961e-01	   2.7382116e-01	
   5.7750000e+00	   2.8301802e-01	   2.6899810e-01	
   5.8300000e+00	   2.8713192e-01	   2.6407792e-01	
   5.8850000e+00	   2.9164728e-01	   2.5914524e-01	
   5.9400000e+00	   2.9665574e-01	   2.5427800e-01	
   5.9950000e+00	   3.0223041e-01	   2.4954439e-01	
   6.0500000e+00	   3.0842305e-01	   2.4500071e-01	
   6.1050000e+00	   3.1526252e-01	   2.4069044e-01	
   6.1600000e+00	   3.2275388e-01	   2.3664456e-01	
   6.2150000e+00	   3.3087708e-01	   2.3288238e-01	
   6.2700000e+00	   3.3958495e-01	   2.2941218e-01	
   6.3250000e+00	   3.4880102e-01	   2.2623157e-01	
   6.3800000e+00	   3.5841836e-01	   2.2332762e-01	
   6.4350000e+00	   3.6829985e-01	   2.2067715e-01	
   6.4900000e+00	   3.7828025e-01	   2.1824759e-01	
   6.5450000e+00	   3.8817043e-01	   2.1599904e-01	
   6.6000000e+00	   3.9776340e-01	   2.1388652e-01	
   6.6550000e+00	   4.0684142e-01	   2.1186159e-01	
   6.7100000e+00	   4.1518378e-01	   2.0987340e-01	
   6.7650000e+00	   4.2257547e-01	   2.0787026e-01	
   6.8200000e+00	   4.2881635e-01	   2.0580204e-01	
   6.8750000e+00	   4.3372893e-01	   2.0362299e-01	
   6.9300000e+00	   4.3716418e-01	   2.0129442e-01	
   6.9850000e+00	   4.3900622e-01	   1.9878761e-01	
   7.0400000e+00	   4.3917714e-01	   1.9608651e-01	
   7.0950000e+00	   4.3764196e-01	   1.9318972e-01	
   7.1500000e+00	   4.3441233e-01	   1.9011116e-01	
   7.2050000e+00	   4.2954816e-01	   1.8687985e-01	
   7.2600000e+00	   4.2315705e-01	   1.8353896e-01	
   7.3150000e+00	   4.1539154e-01	   1.8014372e-01	
   7.3700000e+00	   4.0644385e-01	   1.7675794e-01	
   7.4250000e+00	   3.9653850e-01	   1.7344933e-01	
   7.4800000e+00	   3.8592345e-01	   1.7028494e-01	
   7.5350000e+00	   3.7486034e-01	   1.6732759e-01	
   7.5900000e+00	   3.6361440e-01	   1.6463417e-01	
   7.6450000e+00	   3.5244524e-01	   1.6225570e-01	
   7.7000000e+00	   3.4159988e-01	   1.6023866e-01	
   7.7550000e+00	   3.3130809e-01	   1.5862628e-01	
   7.8100000e+00	   3.2177935e-01	   1.5745985e-01	
   7.8650000e+00	   3.1320054e-01	   1.5677974e-01	
   7.9200000e+00	   3.0573302e-01	   1.5662607e-01	
   7.9750000e+00	   2.9950906e-01	   1.5703878e-01	
   8.0300000e+00	   2.9462863e-01	   1.5805703e-01	
   8.0850000e+00	   2.9115718e-01	   1.5971818e-01	
   8.1400000e+00	   2.8912451e-01	   1.6205610e-01	
   8.1950000e+00	   2.8852394e-01	   1.6509870e-01	
   8.2500000e+00	   2.8931255e-01	   1.6886533e-01	
   8.3050000e+00	   2.9141417e-01	   1.7336543e-01	
   8.3600000e+00	   2.9472576e-01	   1.7859890e-01	
   8.4150000e+00	   2.9912586e-01	   1.8455683e-01	
   8.4700000e+00	   3.0448239e-01	   1.9122149e-01	
   8.5250000e+00	   3.1065858e-01	   1.9856552e-01	
   8.5800000e+00	   3.1751724e-01	   2.0655107e-01	
   8.6350000e+00	   3.2492397e-01	   2.1512923e-01	
   8.6900000e+00	   3.3274937e-01	   2.2423971e-01	
   8.7450000e+00	   3.4087063e-01	   2.3381125e-01	
   8.8000000e+00	   3.4917326e-01	   2.4376286e-01	
   8.8550000e+00	   3.5755375e-01	   2.5400532e-01	
   8.9100000e+00	   3.6592235e-01	   2.6444252e-01	
   8.9650000e+00	   3.7420531e-01	   2.7497299e-01	
   9.0200000e+00	   3.8234621e-01	   2.8549189e-01	
   9.0750000e+00	   3.9030646e-01	   2.9589396e-01	
   9.1300000e+00	   3.9806569e-01	   3.0607723e-01	
   9.1850000e+00	   4.0562196e-01	   3.1594737e-01	
   9.2400000e+00	   4.1299135e-01	   3.2542188e-01	
   9.2950000e+00	   4.2020575e-01	   3.3443332e-01	
   9.3500000e+00	   4.2730823e-01	   3.4293140e-01	
   9.4050000e+00	   4.3434700e-01	   3.5088412e-01	
   9.4600000e+00	   4.4136916e-01	   3.5827794e-01	
   9.5150000e+00	   4.4841518e-01	   3.6511597e-01	
   9.5700000e+00	   4.5551443e-01	   3.7141422e-01	
   9.6250000e+00	   4.6268252e-01	   3.7719695e-01	
   9.6800000e+00	   4.6992161e-01	   3.8249273e-01	
   9.7350000e+00	   4.7722371e-01	   3.8733179e-01	
   9.7900000e+00	   4.8457641e-01	   3.9174510e-01	
   9.8450000e+00	   4.9196930e-01	   3.9576550e-01	
   9.9000000e+00	   4.9939927e-01	   3.9943001e-01	
   9.9550000e+00	   5.0687254e-01	   4.0278216e-01	
   1.0010000e+01	   5.1440327e-01	   4.0587288e-01	
   1.0065000e+01	   5.2200956e-01	   4.0875967e-01	
   1.0120000e+01	   5.2970869e-01	   4.1150398e-01	
   1.0175000e+01	   5.3751287e-01	   4.1416728e-01	
   1.0230000e+01	   5.4542622e-01	   4.1680659e-01	
   1.0285000e+01	   5.5344314e-01	   4.1947074e-01	
   1.0340000e+01	   5.6154886e-01	   4.2219801e-01	
   1.0395000e+01	   5.6972208e-01	   4.2501471e-01	
   1.0450000e+01	   5.7793879e-01	   4.2793394e-01	
   1.0505000e+01	   5.8617625e-01	   4.3095454e-01	
   1.0560000e+01	   5.9441666e-01	   4.3406090e-01	
   1.0615000e+01	   6.0264984e-01	   4.3722442e-01	
   1.0670000e+01	   6.1087428e-01	   4.4040687e-01	
   1.0725000e+01	   6.1909577e-01	   4.4356472e-01	
   1.0780000e+01	   6.2732371e-01	   4.4665390e-01	
   1.0835000e+01	   6.3556557e-01	   4.4963341e-01	
   1.0890000e+01	   6.4382017e-01	   4.5246762e-01	
   1.0945000e+01	   6.5207183e-01	   4.5512712e-01	
   1.1000000e+01	   6.6028672e-01	   4.5758913e-01	
   1.1055000e+01	   6.6841201e-01	   4.5983740e-01	
   1.1110000e+01	   6.7637690e-01	   4.6186131e-01	
   1.1165000e+01	   6.8409471e-01	   4.6365413e-01	
   1.1220000e+01	   6.9146625e-01	   4.6521096e-01	
   1.1275000e+01	   6.9838476e-01	   4.6652631e-01	
   1.1330000e+01	   7.0474231e-01	   4.6759187e-01	
   1.1385000e+01	   7.1043709e-01	   4.6839499e-01	
   1.1440000e+01	   7.1538136e-01	   4.6891822e-01	
   1.1495000e+01	   7.1950844e-01	   4.6913931e-01	
   1.1550000e+01	   7.2277737e-01	   4.6903115e-01	
   1.1605000e+01	   7.2517469e-01	   4.6856258e-01	
   1.1660000e+01	   7.2671436e-01	   4.6770043e-01	
   1.1715000e+01	   7.2743612e-01	   4.6641214e-01	
   1.1770000e+01	   7.2740186e-01	   4.6466786e-01	
   1.1825000e+01	   7.2669025e-01	   4.6244193e-01	
   1.1880000e+01	   7.2539074e-01	   4.5971451e-01	
   1.1935000e+01	   7.2359704e-01	   4.5647252e-01	
   1.1990000e+01	   7.2140014e-01	   4.5270959e-01	
   1.2045000e+01	   7.1888182e-01	   4.4842508e-01	
   1.2100000e+01	   7.1611050e-01	   4.4362313e-01	
   1.2155000e+01	   7.1313997e-01	   4.3831188e-01	
   1.2210000e+01	   7.1001029e-01	   4.3250249e-01	
   1.2265000e+01	   7.0674994e-01	   4.2620839e-01	
   1.2320000e+01	   7.0337872e-01	   4.1944546e-01	
   1.2375000e+01	   6.9991090e-01	   4.1223325e-01	
   1.2430000e+01	   6.9635855e-01	   4.0459641e-01	
   1.2485000e+01	   6.9273497e-01	   3.9656601e-01	
   1.2540000e+01	   6.8905879e-01	   3.8818026e-01	
   1.2595000e+01	   6.8535719e-01	   3.7948411e-01	
   1.2650000e+01	   6.8166719e-01	   3.7052801e-01	
   1.2705000e+01	   6.7803430e-01	   3.6136659e-01	
   1.2760000e+01	   6.7450877e-01	   3.5205773e-01	
   1.2815000e+01	   6.7113901e-01	   3.4266110e-01	
   1.2870000e+01	   6.6796364e-01	   3.3323582e-01	
   1.2925000e+01	   6.6500564e-01	   3.2383872e-01	
   1.2980000e+01	   6.6227124e-01	   3.1452417e-01	
   1.3035000e+01	   6.5975296e-01	   3.0534546e-01	
   1.3090000e+01	   6.5743481e-01	   2.9635626e-01	
   1.3145000e+01	   6.5529789e-01	   2.8761138e-01	
   1.3200000e+01	   6.5332493e-01	   2.7916655e-01	
   1.3255000e+01	   6.5150238e-01	   2.7107717e-01	
   1.3310000e+01	   6.4981930e-01	   2.6339607e-01	
   1.3365000e+01	   6.4826397e-01	   2.5617063e-01	
   1.3420000e+01	   6.4682016e-01	   2.4943981e-01	
   1.3475000e+01	   6.4546355e-01	   2.4323148e-01	
   1.3530000e+01	   6.4415860e-01	   2.3755987e-01	
   1.3585000e+01	   6.4285674e-01	   2.3242366e-01	
   1.3640000e+01	   6.4149720e-01	   2.2780560e-01	
   1.3695000e+01	   6.4001094e-01	   2.2367359e-01	
   1.3750000e+01	   6.3832645e-01	   2.1998308e-01	
   1.3805000e+01	   6.3637595e-01	   2.1668029e-01	
   1.3860000e+01	   6.3410098e-01	   2.1370618e-01	
   1.3915000e+01	   6.3145644e-01	   2.1100050e-01	
   1.3970000e+01	   6.2841185e-01	   2.0850520e-01	
   1.4025000e+01	   6.2495035e-01	   2.0616717e-01	
   1.4080000e+01	   6.2106642e-01	   2.0394037e-01	
   1.4135000e+01	   6.1676286e-01	   2.0178731e-01	
   1.4190000e+01	   6.1204736e-01	   1.9967951e-01	
   1.4245000e+01	   6.0692994e-01	   1.9759765e-01	
   1.4300000e+01	   6.0142235e-01	   1.9553168e-01	
   1.4355000e+01	   5.9553917e-01	   1.9348083e-01	
   1.4410000e+01	   5.8929931e-01	   1.9145277e-01	
   1.4465000e+01	   5.8272693e-01	   1.8946233e-01	
   1.4520000e+01	   5.7585220e-01	   1.8753010e-01	
   1.4575000e+01	   5.6871259e-01	   1.8568111e-01	
   1.4630000e+01	   5.6135424e-01	   1.8394343e-01	
   1.4685000e+01	   5.5383236e-01	   1.8234645e-01	
   1.4740000e+01	   5.4620981e-01	   1.8091926e-01	
   1.4795000e+01	   5.3855446e-01	   1.7968893e-01	
   1.4850000e+01	   5.3093598e-01	   1.7867892e-01	
   1.4905000e+01	   5.2342277e-01	   1.7790768e-01	
   1.4960000e+01	   5.1607936e-01	   1.7738750e-01	
   1.5015000e+01	   5.0896408e-01	   1.7712313e-01	
   1.5070000e+01	   5.0212714e-01	   1.7711024e-01	
   1.5125000e+01	   4.9561010e-01	   1.7733450e-01	
   1.5180000e+01	   4.8944800e-01	   1.7777277e-01	
   1.5235000e+01	   4.8367434e-01	   1.7839567e-01	
   1.5290000e+01	   4.7832701e-01	   1.7917043e-01	
   1.5345000e+01	   4.7345333e-01	   1.8006317e-01	
   1.5400000e+01	   4.6911361e-01	   1.8104052e-01	
   1.5455000e+01	   4.6538340e-01	   1.8207063e-01	
   1.5510000e+01	   4.6235478e-01	   1.8312415e-01	
   1.5565000e+01	   4.6013713e-01	   1.8417535e-01	
   1.5620000e+01	   4.5885718e-01	   1.8520380e-01	
   1.5675000e+01	   4.5865724e-01	   1.8619549e-01	
   1.5730000e+01	   4.5968999e-01	   1.8714245e-01	
   1.5785000e+01	   4.6211024e-01	   1.8804127e-01	
   1.5840000e+01	   4.6606474e-01	   1.8889128e-01	
   1.5895000e+01	   4.7168123e-01	   1.8969269e-01	
   1.5950000e+01	   4.7905703e-01	   1.9044437e-01	
   1.6005000e+01	   4.8824818e-01	   1.9114162e-01	
   1.6060000e+01	   4.9926086e-01	   1.9177466e-01	
   1.6115000e+01	   5.1204591e-01	   1.9232807e-01	
   1.6170000e+01	   5.2649649e-01	   1.9278057e-01	
   1.6225000e+01	   5.4244848e-01	   1.9310578e-01	
   1.6280000e+01	   5.5968372e-01	   1.9327424e-01	
   1.6335000e+01	   5.7793558e-01	   1.9325661e-01	
   1.6390000e+01	   5.9689622e-01	   1.9302725e-01	
   1.6445000e+01	   6.1622551e-01	   1.9256733e-01	
   1.6500000e+01	   6.3556273e-01	   1.9186666e-01	
   1.6555000e+01	   6.5454202e-01	   1.9092433e-01	
   1.6610000e+01	   6.7281095e-01	   1.8974835e-01	
   1.6665000e+01	   6.9004893e-01	   1.8835503e-01	
   1.6720000e+01	   7.0598196e-01	   1.8676796e-01	
   1.6775000e+01	   7.2039148e-01	   1.8501623e-01	
   1.6830000e+01	   7.3311801e-01	   1.8313151e-01	
   1.6885000e+01	   7.4406062e-01	   1.8114473e-01	
   1.6940000e+01	   7.5317344e-01	   1.7908308e-01	
   1.6995000e+01	   7.6046059e-01	   1.7696796e-01	
   1.7050000e+01	   7.6597044e-01	   1.7481390e-01	
   1.7105000e+01	   7.6978907e-01	   1.7262858e-01	
   1.7160000e+01	   7.7203330e-01	   1.7041422e-01	
   1.7215000e+01	   7.7284345e-01	   1.6816994e-01	
   1.7270000e+01	   7.7237593e-01	   1.6589412e-01	
   1.7325000e+01	   7.7079545e-01	   1.6358662e-01	
   1.7380000e+01	   7.6826794e-01	   1.6125074e-01	
   1.7435000e+01	   7.6495485e-01	   1.5889432e-01	
   1.7490000e+01	   7.6100847e-01	   1.5652971e-01	
   1.7545000e+01	   7.5656813e-01	   1.5417265e-01	
   1.7600000e+01	   7.5175800e-01	   1.5184074e-01	
   1.7655000e+01	   7.4668689e-01	   1.4955136e-01	
   1.7710000e+01	   7.4144943e-01	   1.4731906e-01	
   1.7765000e+01	   7.3612801e-01	   1.4515333e-01	
   1.7820000e+01	   7.3079581e-01	   1.4305770e-01	
   1.7875000e+01	   7.2552125e-01	   1.4103000e-01	
   1.7930000e+01	   7.2037291e-01	   1.3906319e-01	
   1.7985000e+01	   7.1542314e-01	   1.3714646e-01	
   1.8040000e+01	   7.1074950e-01	   1.3526605e-01	
   1.8095000e+01	   7.0643374e-01	   1.3340575e-01	
   1.8150000e+01	   7.0255848e-01	   1.3154671e-01	
   1.8205000e+01	   6.9920248e-01	   1.2966747e-01	
   1.8260000e+01	   6.9643512e-01	   1.2774466e-01	
   1.8315000e+01	   6.9431018e-01	   1.2575406e-01	
   1.8370000e+01	   6.9285811e-01	   1.2367084e-01	
   1.8425000e+01	   6.9207697e-01	   1.2146874e-01	
   1.8480000e+01	   6.9192405e-01	   1.1911931e-01	
   1.8535000e+01	   6.9231088e-01	   1.1659209e-01	
   1.8590000e+01	   6.9310360e-01	   1.1385597e-01	
   1.8645000e+01	   6.9412863e-01	   1.1088094e-01	
   1.8700000e+01	   6.9518189e-01	   1.0764046e-01	
   1.8755000e+01	   6.9603997e-01	   1.0411415e-01	
   1.8810000e+01	   6.9647196e-01	   1.0029052e-01	
   1.8865000e+01	   6.9625155e-01	   9.6169230e-02	
   1.8920000e+01	   6.9516924e-01	   9.1762786e-02	
   1.8975000e+01	   6.9304358e-01	   8.7097445e-02	
   1.9030000e+01	   6.8973026e-01	   8.2213184e-02	
   1.9085000e+01	   6.8512850e-01	   7.7162807e-02	
   1.9140000e+01	   6.7918495e-01	   7.2010313e-02	
   1.9195000e+01	   6.7189536e-01	   6.6828269e-02	
   1.9250000e+01	   6.6330457e-01	   6.1693956e-02	
   1.9305000e+01	   6.5350560e-01	   5.6684740e-02	
   1.9360000e+01	   6.4263860e-01	   5.1873583e-02	
   1.9415000e+01	   6.3088929e-01	   4.7325339e-02	
   1.9470000e+01	   6.1848579e-01	   4.3093952e-02	
   1.9525000e+01	   6.0569283e-01	   3.9220410e-02	
   1.9580000e+01	   5.9280309e-01	   3.5731565e-02	
   1.9635000e+01	   5.8012606e-01	   3.2640127e-02	
   1.9690000e+01	   5.6797436e-01	   2.9945506e-02	
   1.9745000e+01	   5.5664663e-01	   2.7634796e-02	
   1.9800000e+01	   5.4640709e-01	   2.5683547e-02	
   1.9855000e+01	   5.3746250e-01	   2.4056234e-02	
   1.9910000e+01	   5.2993908e-01	   2.2706525e-02	
   1.9965000e+01	   5.2386427e-01	   2.1578177e-02	
   2.0020000e+01	   5.1915974e-01	   2.0607928e-02	
   2.0075000e+01	   5.1564808e-01	   1.9730571e-02	
   2.0130000e+01	   5.1307138e-01	   1.8884390e-02	
   2.0185000e+01	   5.1111731e-01	   1.8014632e-02	
   2.0240000e+01	   5.0944759e-01	   1.7074391e-02	
   2.0295000e+01	   5.0772447e-01	   1.6024255e-02	
   2.0350000e+01	   5.0563313e-01	   1.4832415e-02	
   2.0405000e+01	   5.0290038e-01	   1.3475661e-02	
   2.0460000e+01	   4.9930947e-01	   1.1940819e-02	
   2.0515000e+01	   4.9471002e-01	   1.0226021e-02	
   2.0570000e+01	   4.8902148e-01	   8.3411605e-03	
   2.0625000e+01	   4.8223056e-01	   6.3070858e-03	
   2.0680000e+01	   4.7438505e-01	   4.1538101e-03	
   2.0735000e+01	   4.6558661e-01	   1.9183214e-03	
   2.0790000e+01	   4.5598218e-01	  -3.5782179e-04	
   2.0845000e+01	   4.4575220e-01	  -2.6311683e-03	
   2.0900000e+01	   4.3509543e-01	  -4.8589988e-03	
   2.0955000e+01	   4.2421289e-01	  -7.0013753e-03	
   2.1010000e+01	   4.1329553e-01	  -9.0227466e-03	
   2.1065000e+01	   4.0251908e-01	  -1.0893674e-02	
   2.1120000e+01	   3.9204645e-01	  -1.2592411e-02	
   2.1175000e+01	   3.8203466e-01	  -1.4105321e-02	
   2.1230000e+01	   3.7264220e-01	  -1.5425724e-02	
   2.1285000e+01	   3.6403388e-01	  -1.6551789e-02	
   2.1340000e+01	   3.5638106e-01	  -1.7484659e-02	
   2.1395000e+01	   3.4985535e-01	  -1.8228118e-02	
   2.1450000e+01	   3.4461503e-01	  -1.8790378e-02	
   2.1505000e+01	   3.4078603e-01	  -1.9186968e-02	
   2.1560000e+01	   3.3843985e-01	  -1.9443283e-02	
   2.1615000e+01	   3.3757147e-01	  -1.9596298e-02	
   2.1670000e+01	   3.3808125e-01	  -1.9695374e-02	
   2.1725000e+01	   3.3976624e-01	  -1.9801573e-02	
   2.1780000e+01	   3.4232438e-01	  -1.9985026e-02	
   2.1835000e+01	   3.4537142e-01	  -2.0320736e-02	
   2.1890000e+01	   3.4846782e-01	  -2.0883633e-02	
   2.1945000e+01	   3.5114990e-01	  -2.1743509e-02	
   2.2000000e+01	   3.5295950e-01	  -2.2960256e-02	
   2.2055000e+01	   3.5346823e-01	  -2.4579965e-02	
   2.2110000e+01	   3.5229578e-01	  -2.6631944e-02	
   2.2165000e+01	   3.4912243e-01	  -2.9125912e-02	
   2.2220000e+01	   3.4369636e-01	  -3.2048879e-02	
   2.2275000e+01	   3.3583489e-01	  -3.5362886e-02	
   2.2330000e+01	   3.2541923e-01	  -3.9005121e-02	
   2.2385000e+01	   3.1238545e-01	  -4.2890299e-02	
   2.2440000e+01	   2.9671883e-01	  -4.6914118e-02	
   2.2495000e+01	   2.7845636e-01	  -5.0957638e-02	
   2.2550000e+01	   2.5769527e-01	  -5.4893318e-02	
   2.2605000e+01	   2.3460179e-01	  -5.8592094e-02	
   2.2660000e+01	   2.0941692e-01	  -6.1929679e-02	
   2.2715000e+01	   1.8245885e-01	  -6.4791198e-02	
   2.2770000e+01	   1.5412058e-01	  -6.7074943e-02	
   2.2825000e+01	   1.2486072e-01	  -6.8696100e-02	
   2.2880000e+01	   9.5186774e-02	  -6.9590216e-02	
   2.2935000e+01	   6.5632869e-02	  -6.9715490e-02	
   2.2990000e+01	   3.6735283e-02	  -6.9053102e-02	
   2.3045000e+01	   9.0100098e-03	  -6.7605462e-02	
   2.3100000e+01	  -1.7065524e-02	  -6.5393136e-02	
   2.3155000e+01	  -4.1067072e-02	  -6.2451934e-02	
   2.3210000e+01	  -6.2635747e-02	  -5.8831334e-02	
   2.3265000e+01	  -8.1487703e-02	  -5.4594216e-02	
   2.3320000e+01	  -9.7420461e-02	  -4.9816804e-02	
   2.3375000e+01	  -1.1031584e-01	  -4.4587887e-02	
   2.3430000e+01	  -1.2014008e-01	  -3.9007192e-02	
   2.3485000e+01	  -1.2694074e-01	  -3.3182897e-02	
   2.3540000e+01	  -1.3083922e-01	  -2.7227914e-02	
   2.3595000e+01	  -1.3201934e-01	  -2.1255141e-02	
   2.3650000e+01	  -1.3071453e-01	  -1.5372936e-02	
   2.3705000e+01	  -1.2719572e-01	  -9.6817344e-03	
   2.3760000e+01	  -1.2175925e-01	  -4.2714092e-03	
   2.3815000e+01	  -1.1471435e-01	   7.8129453e-04	
   2.3870000e+01	  -1.0637156e-01	   5.4149490e-03	
   2.3925000e+01	  -9.7034041e-02	   9.5844981e-03	
   2.3980000e+01	  -8.6992107e-02	   1.3261023e-02	
   2.4035000e+01	  -7.6519456e-02	   1.6430382e-02	
   2.4090000e+01	  -6.5870564e-02	   1.9090814e-02	
   2.4145000e+01	  -5.5278723e-02	   2.1250074e-02	
   2.4200000e+01	  -4.4954047e-02	   2.2923147e-02	
   2.4255000e+01	  -3.5080923e-02	   2.4130952e-02	
   2.4310000e+01	  -2.5815056e-02	   2.4899460e-02	
   2.4365000e+01	  -1.7280241e-02	   2.5258803e-02	
   2.4420000e+01	  -9.5650080e-03	   2.5242889e-02	
   2.4475000e+01	  -2.7200424e-03	   2.4890117e-02	
   2.4530000e+01	   3.2421158e-03	   2.4244797e-02	
   2.4585000e+01	   8.3439774e-03	   2.3358279e-02	
   2.4640000e+01	   1.2636703e-02	   2.2289217e-02	
   2.4695000e+01	   1.6191418e-02	   2.1102755e-02	
   2.4750000e+01	   1.9089392e-02	   1.9868125e-02	
   2.4805000e+01	   2.1412205e-02	   1.8654659e-02	
   2.4860000e+01	   2.3233464e-02	   1.7527381e-02	
   2.4915000e+01	   2.4613247e-02	   1.6543414e-02	
   2.4970000e+01	   2.5595036e-02	   1.5749127e-02	
   2.5025000e+01	   2.6204100e-02	   1.5177401e-02	
   2.5080000e+01	   2.6447236e-02	   1.4845120e-02	
   2.5135000e+01	   2.6314662e-02	   1.4751766e-02	
   2.5190000e+01	   2.5784222e-02	   1.4879623e-02	
   2.5245000e+01	   2.4826809e-02	   1.5195371e-02	
   2.5300000e+01	   2.3411854e-02	   1.5652662e-02	
   2.5355000e+01	   2.1512380e-02	   1.6195382e-02	
   2.5410000e+01	   1.9109392e-02	   1.6761180e-02	
   2.5465000e+01	   1.6195266e-02	   1.7284696e-02	
   2.5520000e+01	   1.2775938e-02	   1.7700234e-02	
   2.5575000e+01	   8.8719076e-03	   1.7943996e-02	
   2.5630000e+01	   4.5183362e-03	   1.7956382e-02	
   2.5685000e+01	  -2.3521709e-04	   1.7684686e-02	
   2.5740000e+01	  -5.3250299e-03	   1.7086106e-02	
   2.5795000e+01	  -1.0673697e-02	   1.6130389e-02	
   2.5850000e+01	  -1.6191579e-02	   1.4801152e-02	
   2.5905000e+01	  -2.1779954e-02	   1.3095245e-02	
   2.5960000e+01	  -2.7336433e-02	   1.1020276e-02	
   2.6015000e+01	  -3.2762261e-02	   8.5911851e-03	
   2.6070000e+01	  -3.7969748e-02	   5.8269262e-03	
   2.6125000e+01	  -4.2887877e-02	   2.7482046e-03	
   2.6180000e+01	  -4.7464977e-02	  -6.2321021e-04	
   2.6235000e+01	  -5.1668420e-02	  -4.2638713e-03	
   2.6290000e+01	  -5.5482359e-02	  -8.1476408e-03	
   2.6345000e+01	  -5.8904978e-02	  -1.2245038e-02	
   2.6400000e+01	  -6.1945654e-02	  -1.6523035e-02	
   2.6455000e+01	  -6.4621270e-02	  -2.0944957e-02	
   2.6510000e+01	  -6.6951368e-02	  -2.5470291e-02	
   2.6565000e+01	  -6.8953221e-02	  -3.0054526e-02	
   2.6620000e+01	  -7.0638574e-02	  -3.4649592e-02	
   2.6675000e+01	  -7.2013632e-02	  -3.9205501e-02	
   2.6730000e+01	  -7.3082596e-02	  -4.3673252e-02	
   2.6785000e+01	  -7.3853202e-02	  -4.8008128e-02	
   2.6840000e+01	  -7.4341693e-02	  -5.2172449e-02	
   2.6895000e+01	  -7.4575476e-02	  -5.6137596e-02	
   2.6950000e+01	  -7.4593406e-02	  -5.9885632e-02	
   2.7005000e+01	  -7.4444796e-02	  -6.3410269e-02	
   2.7060000e+01	  -7.4187816e-02	  -6.6716179e-02	
   2.7115000e+01	  -7.3887206e-02	  -6.9815905e-02	
   2.7170000e+01	  -7.3611468e-02	  -7.2724980e-02	
   2.7225000e+01	  -7.3430231e-02	  -7.5456681e-02	
   2.7280000e+01	  -7.3412046e-02	  -7.8017428e-02	
   2.7335000e+01	  -7.3622432e-02	  -8.0403454e-02	
   2.7390000e+01	  -7.4122017e-02	  -8.2599483e-02	
   2.7445000e+01	  -7.4964642e-02	  -8.4579707e-02	
   2.7500000e+01	  -7.6195344e-02	  -8.6310332e-02	
   2.7555000e+01	  -7.7848562e-02	  -8.7752827e-02	
   2.7610000e+01	  -7.9947322e-02	  -8.8867935e-02	
   2.7665000e+01	  -8.2503676e-02	  -8.9620613e-02	
   2.7720000e+01	  -8.5519761e-02	  -8.9985192e-02	
   2.7775000e+01	  -8.8988458e-02	  -8.9949533e-02	
   2.7830000e+01	  -9.2893411e-02	  -8.9517220e-02	
   2.7885000e+01	  -9.7209166e-02	  -8.8707651e-02	
   2.7940000e+01	  -1.0190214e-01	  -8.7554486e-02	
   2.7995000e+01	  -1.0693232e-01	  -8.6102929e-02	
   2.8050000e+01	  -1.1225512e-01	  -8.4406180e-02	
   2.8105000e+01	  -1.1782274e-01	  -8.2521372e-02	
   2.8160000e+01	  -1.2358414e-01	  -8.0505408e-02	
   2.8215000e+01	  -1.2948374e-01	  -7.8411266e-02	
   2.8270000e+01	  -1.3546024e-01	  -7.6285273e-02	
   2.8325000e+01	  -1.4144711e-01	  -7.4165191e-02	
   2.8380000e+01	  -1.4737460e-01	  -7.2078610e-02	
   2.8435000e+01	  -1.5317207e-01	  -7.0041938e-02	
   2.8490000e+01	  -1.5877013e-01	  -6.8061150e-02	
   2.8545000e+01	  -1.6410315e-01	  -6.6134737e-02	
   2.8600000e+01	  -1.6911177e-01	  -6.4257687e-02	
   2.8655000e+01	  -1.7374429e-01	  -6.2424931e-02	
   2.8710000e+01	  -1.7795677e-01	  -6.0633779e-02	
   2.8765000e+01	  -1.8171248e-01	  -5.8885441e-02	
   2.8820000e+01	  -1.8498116e-01	  -5.7185285e-02	
   2.8875000e+01	  -1.8773788e-01	  -5.5541442e-02	
   2.8930000e+01	  -1.8996148e-01	  -5.3962226e-02	
   2.8985000e+01	  -1.9163340e-01	  -5.2453221e-02	
   2.9040000e+01	  -1.9273793e-01	  -5.1014651e-02	
   2.9095000e+01	  -1.9326442e-01	  -4.9639572e-02	
   2.9150000e+01	  -1.9321139e-01	  -4.8313864e-02	
   2.9205000e+01	  -1.9259228e-01	  -4.7018846e-02	
   2.9260000e+01	  -1.9144146e-01	  -4.5736132e-02	
   2.9315000e+01	  -1.8981834e-01	  -4.4453211e-02	
   2.9370000e+01	  -1.8780848e-01	  -4.3168200e-02	
   2.9425000e+01	  -1.8552135e-01	  -4.1892772e-02	
   2.9480000e+01	  -1.8308491e-01	  -4.0652616e-02	
   2.9535000e+01	  -1.8063661e-01	  -3.9485261e-02	
   2.9590000e+01	  -1.7831253e-01	  -3.8435977e-02	
   2.9645000e+01	  -1.7623718e-01	  -3.7552959e-02	
   2.9700000e+01	  -1.7451638e-01	  -3.6882515e-02	
   2.9755000e+01	  -1.7323321e-01	  -3.6464557e-02	
   2.9810000e+01	  -1.7244668e-01	  -3.6328650e-02	
   2.9865000e+01	  -1.7219289e-01	  -3.6490889e-02	
   2.9920000e+01	  -1.7248770e-01	  -3.6951606e-02	
   2.9975000e+01	  -1.7332930e-01	  -3.7694096e-02	
   3.0030000e+01	  -1.7470024e-01	  -3.8685039e-02	
   3.0085000e+01	  -1.7656924e-01	  -3.9877141e-02	
   3.0140000e+01	  -1.7889314e-01	  -4.1213481e-02	
   3.0195000e+01	  -1.8161881e-01	  -4.2632367e-02	
   3.0250000e+01	  -1.8468495e-01	  -4.4071852e-02	
   3.0305000e+01	  -1.8802396e-01	  -4.5473640e-02	
   3.0360000e+01	  -1.9156373e-01	  -4.6786089e-02	
   3.0415000e+01	  -1.9522930e-01	  -4.7966024e-02	
   3.0470000e+01	  -1.9894434e-01	  -4.8979433e-02	
   3.0525000e+01	  -2.0263259e-01	  -4.9801010e-02	
   3.0580000e+01	  -2.0621879e-01	  -5.0411925e-02	
   3.0635000e+01	  -2.0962889e-01	  -5.0795856e-02	
   3.0690000e+01	  -2.1279030e-01	  -5.0934838e-02	
   3.0745000e+01	  -2.1563288e-01	  -5.0806733e-02	
   3.0800000e+01	  -2.1809098e-01	  -5.0384800e-02	
   3.0855000e+01	  -2.2010597e-01	  -4.9638800e-02	
   3.0910000e+01	  -2.2162887e-01	  -4.8537221e-02	
   3.0965000e+01	  -2.2262316e-01	  -4.7050354e-02	
   3.1020000e+01	  -2.2306709e-01	  -4.5153733e-02	
   3.1075000e+01	  -2.2295419e-01	  -4.2831567e-02	
   3.1130000e+01	  -2.2229117e-01	  -4.0080097e-02	
   3.1185000e+01	  -2.2109328e-01	  -3.6910237e-02	
   3.1240000e+01	  -2.1937816e-01	  -3.3348284e-02	
   3.1295000e+01	  -2.1715988e-01	  -2.9434184e-02	
   3.1350000e+01	  -2.1444599e-01	  -2.5218486e-02	
   3.1405000e+01	  -2.1123859e-01	  -2.0759508e-02	
   3.1460000e+01	  -2.0753853e-01	  -1.6121207e-02	
   3.1515000e+01	  -2.0335030e-01	  -1.1371348e-02	
   3.1570000e+01	  -1.9868609e-01	  -6.5796234e-03	
   3.1625000e+01	  -1.9356823e-01	  -1.8156849e-03	
   3.1680000e+01	  -1.8802988e-01	   2.8527821e-03	
   3.1735000e+01	  -1.8211469e-01	   7.3617271e-03	
   3.1790000e+01	  -1.7587622e-01	   1.1651827e-02	
   3.1845000e+01	  -1.6937734e-01	   1.5668813e-02	
   3.1900000e+01	  -1.6268877e-01	   1.9363134e-02	
   3.1955000e+01	  -1.5588616e-01	   2.2689339e-02	
   3.2010000e+01	  -1.4904555e-01	   2.5605747e-02	
   3.2065000e+01	  -1.4223764e-01	   2.8074814e-02	
   3.2120000e+01	  -1.3552201e-01	   3.0064579e-02	
   3.2175000e+01	  -1.2894253e-01	   3.1551439e-02	
   3.2230000e+01	  -1.2252519e-01	   3.2523667e-02	
   3.2285000e+01	  -1.1627949e-01	   3.2984259e-02	
   3.2340000e+01	  -1.1020310e-01	   3.2952313e-02	
   3.2395000e+01	  -1.0428757e-01	   3.2463324e-02	
   3.2450000e+01	  -9.8522528e-02	   3.1568533e-02	
   3.2505000e+01	  -9.2897918e-02	   3.0332852e-02	
   3.2560000e+01	  -8.7405060e-02	   2.8831492e-02	
   3.2615000e+01	  -8.2037734e-02	   2.7145779e-02	
   3.2670000e+01	  -7.6794080e-02	   2.5358166e-02	
   3.2725000e+01	  -7.1679321e-02	   2.3546446e-02	
   3.2780000e+01	  -6.6707869e-02	   2.1778100e-02	
   3.2835000e+01	  -6.1903034e-02	   2.0106076e-02	
   3.2890000e+01	  -5.7294112e-02	   1.8566444e-02	
   3.2945000e+01	  -5.2912373e-02	   1.7177612e-02	
   3.3000000e+01	  -4.8787768e-02	   1.5940894e-02	
   3.3055000e+01	  -4.4947221e-02	   1.4842397e-02	
   3.3110000e+01	  -4.1414562e-02	   1.3855888e-02	
   3.3165000e+01	  -3.8211741e-02	   1.2945958e-02	
   3.3220000e+01	  -3.5360621e-02	   1.2071137e-02	
   3.3275000e+01	  -3.2884697e-02	   1.1186957e-02	
   3.3330000e+01	  -3.0810612e-02	   1.0248664e-02	
   3.3385000e+01	  -2.9169906e-02	   9.2129931e-03	
   3.3440000e+01	  -2.8000806e-02	   8.0389863e-03	
   3.3495000e+01	  -2.7348836e-02	   6.6884283e-03	
   3.3550000e+01	  -2.7265528e-02	   5.1262285e-03	
   3.3605000e+01	  -2.7805754e-02	   3.3207614e-03	
   3.3660000e+01	  -2.9024159e-02	   1.2443858e-03	
   3.3715000e+01	  -3.0970745e-02	  -1.1256493e-03	
   3.3770000e+01	  -3.3686109e-02	  -3.8061560e-03	
   3.3825000e+01	  -3.7196761e-02	  -6.8068811e-03	
   3.3880000e+01	  -4.1510072e-02	  -1.0128544e-02	
   3.3935000e+01	  -4.6608625e-02	  -1.3759531e-02	
   3.3990000e+01	  -5.2445433e-02	  -1.7672397e-02	
   3.4045000e+01	  -5.8941903e-02	  -2.1822091e-02	
   3.4100000e+01	  -6.5988976e-02	  -2.6146594e-02	
   3.4155000e+01	  -7.3451056e-02	  -3.0569646e-02	
   3.4210000e+01	  -8.1172671e-02	  -3.5005358e-02	
   3.4265000e+01	  -8.8987068e-02	  -3.9364192e-02	
   3.4320000e+01	  -9.6724754e-02	  -4.3558766e-02	
   3.4375000e+01	  -1.0422022e-01	  -4.7508264e-02	
   3.4430000e+01	  -1.1131670e-01	  -5.1141574e-02	
   3.4485000e+01	  -1.1786984e-01	  -5.4399658e-02	
   3.4540000e+01	  -1.2375054e-01	  -5.7236992e-02	
   3.4595000e+01	  -1.2884733e-01	  -5.9621825e-02	
   3.4650000e+01	  -1.3306829e-01	  -6.1535800e-02	
   3.4705000e+01	  -1.3634280e-01	  -6.2973419e-02	
   3.4760000e+01	  -1.3862245e-01	  -6.3940909e-02	
   3.4815000e+01	  -1.3988123e-01	  -6.4454229e-02	
   3.4870000e+01	  -1.4011515e-01	  -6.4536938e-02	
   3.4925000e+01	  -1.3934178e-01	  -6.4218634e-02	
   3.4980000e+01	  -1.3759921e-01	  -6.3533635e-02	
   3.5035000e+01	  -1.3494414e-01	  -6.2519479e-02	
   3.5090000e+01	  -1.3144947e-01	  -6.1215964e-02	
   3.5145000e+01	  -1.2720194e-01	  -5.9665570e-02	
   3.5200000e+01	  -1.2229888e-01	  -5.7914791e-02	
   3.5255000e+01	  -1.1684313e-01	  -5.6014945e-02	
   3.5310000e+01	  -1.1093622e-01	  -5.4021788e-02	
   3.5365000e+01	  -1.0467153e-01	  -5.1994062e-02	
   3.5420000e+01	  -9.8128661e-02	  -4.9991007e-02	
   3.5475000e+01	  -9.1369678e-02	  -4.8068979e-02	
   3.5530000e+01	  -8.4438134e-02	  -4.6278228e-02	
   3.5585000e+01	  -7.7361337e-02	  -4.4661110e-02	
   3.5640000e+01	  -7.0155551e-02	  -4.3252018e-02	
   3.5695000e+01	  -6.2832667e-02	  -4.2078233e-02	
   3.5750000e+01	  -5.5406751e-02	  -4.1161059e-02	
   3.5805000e+01	  -4.7899429e-02	  -4.0516927e-02	
   3.5860000e+01	  -4.0343379e-02	  -4.0157880e-02	
   3.5915000e+01	  -3.2783844e-02	  -4.0091019e-02	
   3.5970000e+01	  -2.5279000e-02	  -4.0317556e-02	
   3.6025000e+01	  -1.7899895e-02	  -4.0832418e-02	
   3.6080000e+01	  -1.0729053e-02	  -4.1624131e-02	
   3.6135000e+01	  -3.8562282e-03	  -4.2674051e-02	
   3.6190000e+01	   2.6288813e-03	  -4.3954739e-02	
   3.6245000e+01	   8.6457612e-03	  -4.5428085e-02	
   3.6300000e+01	   1.4132677e-02	  -4.7043491e-02	
   3.6355000e+01	   1.9055414e-02	  -4.8736323e-02	
   3.6410000e+01	   2.3413580e-02	  -5.0427481e-02	
   3.6465000e+01	   2.7243380e-02	  -5.2024998e-02	
   3.6520000e+01	   3.0616942e-02	  -5.3427525e-02	
   3.6575000e+01	   3.3638814e-02	  -5.4528934e-02	
   3.6630000e+01	   3.6439773e-02	  -5.5223703e-02	
   3.6685000e+01	   3.9168204e-02	  -5.5412928e-02	
   3.6740000e+01	   4.1980546e-02	  -5.5010374e-02	
   3.6795000e+01	   4.5033062e-02	  -5.3947705e-02	
   3.6850000e+01	   4.8476147e-02	  -5.2178513e-02	
   3.6905000e+01	   5.2450297e-02	  -4.9680933e-02	
   3.6960000e+01	   5.7082083e-02	  -4.6458486e-02	
   3.7015000e+01	   6.2479319e-02	  -4.2539003e-02	
   3.7070000e+01	   6.8725297e-02	  -3.7972367e-02	
   3.7125000e+01	   7.5872098e-02	  -3.2828136e-02	
   3.7180000e+01	   8.3934076e-02	  -2.7193163e-02	
   3.7235000e+01	   9.2883951e-02	  -2.1168516e-02	
   3.7290000e+01	   1.0265288e-01	  -1.4865435e-02	
   3.7345000e+01	   1.1313366e-01	  -8.4009067e-03	
   3.7400000e+01	   1.2418609e-01	  -1.8933386e-03	
   3.7455000e+01	   1.3564422e-01	   4.5413245e-03	
   3.7510000e+01	   1.4732487e-01	   1.0792353e-02	
   3.7565000e+01	   1.5903633e-01	   1.6755490e-02	
   3.7620000e+01	   1.7058708e-01	   2.2333618e-02	
   3.7675000e+01	   1.8179498e-01	   2.7438299e-02	
   3.7730000e+01	   1.9249631e-01	   3.1992523e-02	
   3.7785000e+01	   2.0255301e-01	   3.5933845e-02	
   3.7840000e+01	   2.1185784e-01	   3.9217034e-02	
   3.7895000e+01	   2.2033715e-01	   4.1815832e-02	
   3.7950000e+01	   2.2795123e-01	   4.3723656e-02	
   3.8005000e+01	   2.3469218e-01	   4.4953431e-02	
   3.8060000e+01	   2.4058004e-01	   4.5537083e-02	
   3.8115000e+01	   2.4565805e-01	   4.5524855e-02	
   3.8170000e+01	   2.4998746e-01	   4.4983689e-02	
   3.8225000e+01	   2.5364114e-01	   4.3993784e-02	
   3.8280000e+01	   2.5669592e-01	   4.2643470e-02	
   3.8335000e+01	   2.5922478e-01	   4.1023374e-02	
   3.8390000e+01	   2.6129054e-01	   3.9220616e-02	
   3.8445000e+01	   2.6294237e-01	   3.7313252e-02	
   3.8500000e+01	   2.6421564e-01	   3.5365400e-02	
   3.8555000e+01	   2.6513459e-01	   3.3423890e-02	
   3.8610000e+01	   2.6571645e-01	   3.1516929e-02	
   3.8665000e+01	   2.6597364e-01	   2.9654815e-02	
   3.8720000e+01	   2.6591238e-01	   2.7832661e-02	
   3.8775000e+01	   2.6552940e-01	   2.6034913e-02	
   3.8830000e+01	   2.6480957e-01	   2.4240715e-02	
   3.8885000e+01	   2.6372603e-01	   2.2428597e-02	
   3.8940000e+01	   2.6224237e-01	   2.0579650e-02	
   3.8995000e+01	   2.6031651e-01	   1.8679332e-02	
   3.9050000e+01	   2.5790542e-01	   1.6718094e-02	
   3.9105000e+01	   2.5496971e-01	   1.4690633e-02	
   3.9160000e+01	   2.5147741e-01	   1.2593887e-02	
   3.9215000e+01	   2.4740683e-01	   1.0424279e-02	
   3.9270000e+01	   2.4274854e-01	   8.1745172e-03	
   3.9325000e+01	   2.3750604e-01	   5.8304611e-03	
   3.9380000e+01	   2.3169567e-01	   3.3693866e-03	
   3.9435000e+01	   2.2534629e-01	   7.6106019e-04	
   3.9490000e+01	   2.1849945e-01	  -2.0283862e-03	
   3.9545000e+01	   2.1120960e-01	  -5.0310902e-03	
   3.9600000e+01	   2.0354422e-01	  -8.2718687e-03	
   3.9655000e+01	   1.9558339e-01	  -1.1763148e-02	
   3.9710000e+01	   1.8741822e-01	  -1.5501320e-02	
   3.9765000e+01	   1.7914760e-01	  -1.9465475e-02	
   3.9820000e+01	   1.7087395e-01	  -2.3618415e-02	
   3.9875000e+01	   1.6269946e-01	  -2.7908790e-02	
   3.9930000e+01	   1.5472216e-01	  -3.2273663e-02	
   3.9985000e+01	   1.4703102e-01	  -3.6641932e-02	
   4.0040000e+01	   1.3970034e-01	  -4.0939099e-02	
   4.0095000e+01	   1.3278447e-01	  -4.5093246e-02	
   4.0150000e+01	   1.2631374e-01	  -4.9041421e-02	
   4.0205000e+01	   1.2029218e-01	  -5.2734996e-02	
   4.0260000e+01	   1.1469809e-01	  -5.6142298e-02	
   4.0315000e+01	   1.0948791e-01	  -5.9247883e-02	
   4.0370000e+01	   1.0460248e-01	  -6.2049262e-02	
   4.0425000e+01	   9.9973956e-02	  -6.4552311e-02	
   4.0480000e+01	   9.5531966e-02	  -6.6766387e-02	
   4.0535000e+01	   9.1207923e-02	  -6.8700357e-02	
   4.0590000e+01	   8.6937482e-02	  -7.0360977e-02	
   4.0645000e+01	   8.2661295e-02	  -7.1754035e-02	
   4.0700000e+01	   7.8324666e-02	  -7.2887070e-02	
   4.0755000e+01	   7.3876901e-02	  -7.3771871e-02	
   4.0810000e+01	   6.9270673e-02	  -7.4425984e-02	
   4.0865000e+01	   6.4461308e-02	  -7.4873501e-02	
   4.0920000e+01	   5.9406208e-02	  -7.5145424e-02	
   4.0975000e+01	   5.4065016e-02	  -7.5279500e-02	
   4.1030000e+01	   4.8400577e-02	  -7.5319615e-02	
   4.1085000e+01	   4.2379959e-02	  -7.5314972e-02	
   4.1140000e+01	   3.5974887e-02	  -7.5318757e-02	
   4.1195000e+01	   2.9161667e-02	  -7.5385711e-02	
   4.1250000e+01	   2.1920883e-02	  -7.5568775e-02	
   4.1305000e+01	   1.4236878e-02	  -7.5915636e-02	
   4.1360000e+01	   6.0970232e-03	  -7.6465597e-02	
   4.1415000e+01	  -2.5086955e-03	  -7.7246909e-02	
   4.1470000e+01	  -1.1587374e-02	  -7.8275099e-02	
   4.1525000e+01	  -2.1142481e-02	  -7.9552939e-02	
   4.1580000e+01	  -3.1173229e-02	  -8.1072064e-02	
   4.1635000e+01	  -4.1674204e-02	  -8.2815539e-02	
   4.1690000e+01	  -5.2635181e-02	  -8.4760797e-02	
   4.1745000e+01	  -6.4040865e-02	  -8.6882700e-02	
   4.1800000e+01	  -7.5870180e-02	  -8.9156282e-02	
   4.1855000e+01	  -8.8094878e-02	  -9.1558479e-02	
   4.1910000e+01	  -1.0067779e-01	  -9.4068702e-02	
   4.1965000e+01	  -1.1357184e-01	  -9.6668701e-02	
   4.2020000e+01	  -1.2672079e-01	  -9.9342051e-02	
   4.2075000e+01	  -1.4006147e-01	  -1.0207309e-01	
   4.2130000e+01	  -1.5352680e-01	  -1.0484536e-01	
   4.2185000e+01	  -1.6704847e-01	  -1.0764017e-01	
   4.2240000e+01	  -1.8055836e-01	  -1.1043539e-01	
   4.2295000e+01	  -1.9398791e-01	  -1.1320448e-01	
   4.2350000e+01	  -2.0726640e-01	  -1.1591616e-01	
   4.2405000e+01	  -2.2032049e-01	  -1.1853562e-01	
   4.2460000e+01	  -2.3307653e-01	  -1.2102730e-01	
   4.2515000e+01	  -2.4546469e-01	  -1.2335769e-01	
   4.2570000e+01	  -2.5742275e-01	  -1.2549694e-01	
   4.2625000e+01	  -2.6889820e-01	  -1.2741958e-01	
   4.2680000e+01	  -2.7984809e-01	  -1.2910500e-01	
   4.2735000e+01	  -2.9023740e-01	  -1.3053734e-01	
   4.2790000e+01	  -3.0003693e-01	  -1.3170432e-01	
   4.2845000e+01	  -3.0922199e-01	  -1.3259503e-01	
   4.2900000e+01	  -3.1777194e-01	  -1.3319701e-01	
   4.2955000e+01	  -3.2567018e-01	  -1.3349330e-01	
   4.3010000e+01	  -3.3290373e-01	  -1.3346029e-01	
   4.3065000e+01	  -3.3946279e-01	  -1.3306740e-01	
   4.3120000e+01	  -3.4534096e-01	  -1.3227885e-01	
   4.3175000e+01	  -3.5053598e-01	  -1.3105726e-01	
   4.3230000e+01	  -3.5505079e-01	  -1.2936849e-01	
   4.3285000e+01	  -3.5889486e-01	  -1.2718714e-01	
   4.3340000e+01	  -3.6208625e-01	  -1.2450165e-01	
   4.3395000e+01	  -3.6465374e-01	  -1.2131808e-01	
   4.3450000e+01	  -3.6663841e-01	  -1.1766232e-01	
   4.3505000e+01	  -3.6809365e-01	  -1.1358094e-01	
   4.3560000e+01	  -3.6908305e-01	  -1.0914027e-01	
   4.3615000e+01	  -3.6967608e-01	  -1.0442297e-01	
   4.3670000e+01	  -3.6994288e-01	  -9.9522364e-02	
   4.3725000e+01	  -3.6995023e-01	  -9.4536016e-02	
   4.3780000e+01	  -3.6976005e-01	  -8.9559708e-02	
   4.3835000e+01	  -3.6942982e-01	  -8.4682319e-02	
   4.3890000e+01	  -3.6901387e-01	  -7.9982063e-02	
   4.3945000e+01	  -3.6856406e-01	  -7.5524857e-02	
   4.4000000e+01	  -3.6812950e-01	  -7.1364928e-02	
   4.4055000e+01	  -3.6775548e-01	  -6.7546723e-02	
   4.4110000e+01	  -3.6748173e-01	  -6.4106862e-02	
   4.4165000e+01	  -3.6734011e-01	  -6.1075168e-02	
   4.4220000e+01	  -3.6735268e-01	  -5.8474319e-02	
   4.4275000e+01	  -3.6753058e-01	  -5.6318545e-02	
   4.4330000e+01	  -3.6787407e-01	  -5.4612409e-02	
   4.4385000e+01	  -3.6837248e-01	  -5.3350280e-02	
   4.4440000e+01	  -3.6900397e-01	  -5.2516099e-02	
   4.4495000e+01	  -3.6973511e-01	  -5.2083225e-02	
   4.4550000e+01	  -3.7052150e-01	  -5.2014812e-02	
   4.4605000e+01	  -3.7130994e-01	  -5.2265195e-02	
   4.4660000e+01	  -3.7204110e-01	  -5.2782122e-02	
   4.4715000e+01	  -3.7265161e-01	  -5.3509228e-02	
   4.4770000e+01	  -3.7307550e-01	  -5.4388275e-02	
   4.4825000e+01	  -3.7324608e-01	  -5.5360930e-02	
   4.4880000e+01	  -3.7309776e-01	  -5.6369692e-02	
   4.4935000e+01	  -3.7256751e-01	  -5.7357582e-02	
   4.4990000e+01	  -3.7159644e-01	  -5.8267113e-02	
   4.5045000e+01	  -3.7013268e-01	  -5.9039768e-02	
   4.5100000e+01	  -3.6813428e-01	  -5.9616447e-02	
   4.5155000e+01	  -3.6557062e-01	  -5.9938381e-02	
   4.5210000e+01	  -3.6242201e-01	  -5.9948183e-02	
   4.5265000e+01	  -3.5867894e-01	  -5.9591186e-02	
   4.5320000e+01	  -3.5434213e-01	  -5.8816936e-02	
   4.5375000e+01	  -3.4942327e-01	  -5.7580527e-02	
   4.5430000e+01	  -3.4394560e-01	  -5.5844101e-02	
   4.5485000e+01	  -3.3794381e-01	  -5.3579187e-02	
   4.5540000e+01	  -3.3146301e-01	  -5.0769799e-02	
   4.5595000e+01	  -3.2455674e-01	  -4.7415542e-02	
   4.5650000e+01	  -3.1728476e-01	  -4.3534188e-02	
   4.5705000e+01	  -3.0971095e-01	  -3.9163520e-02	
   4.5760000e+01	  -3.0190154e-01	  -3.4361807e-02	
   4.5815000e+01	  -2.9392295e-01	  -2.9205753e-02	
   4.5870000e+01	  -2.8583869e-01	  -2.3785540e-02	
   4.5925000e+01	  -2.7770614e-01	  -1.8198183e-02	
   4.5980000e+01	  -2.6957422e-01	  -1.2541111e-02	
   4.6035000e+01	  -2.6148278e-01	  -6.9073232e-03	
   4.6090000e+01	  -2.5346391e-01	  -1.3828146e-03	
   4.6145000e+01	  -2.4554555e-01	   3.9534215e-03	
   4.6200000e+01	  -2.3775679e-01	   9.0275624e-03	
   4.6255000e+01	  -2.3013233e-01	   1.3768988e-02	
   4.6310000e+01	  -2.2271406e-01	   1.8109311e-02	
   4.6365000e+01	  -2.1555002e-01	   2.1982552e-02	
   4.6420000e+01	  -2.0869175e-01	   2.5326514e-02	
   4.6475000e+01	  -2.0219076e-01	   2.8085511e-02	
   4.6530000e+01	  -1.9609462e-01	   3.0214103e-02	
   4.6585000e+01	  -1.9044359e-01	   3.1680993e-02	
   4.6640000e+01	  -1.8526844e-01	   3.2472474e-02	
   4.6695000e+01	  -1.8058984e-01	   3.2595113e-02	
   4.6750000e+01	  -1.7641890e-01	   3.2077199e-02	
   4.6805000e+01	  -1.7275765e-01	   3.0968355e-02	
   4.6860000e+01	  -1.6959854e-01	   2.9337287e-02	
   4.6915000e+01	  -1.6692301e-01	   2.7268304e-02	
   4.6970000e+01	  -1.6470013e-01	   2.4856976e-02	
   4.7025000e+01	  -1.6288635e-01	   2.2204664e-02	
   4.7080000e+01	  -1.6142720e-01	   1.9412057e-02	
   4.7135000e+01	  -1.6026022e-01	   1.6572924e-02	
   4.7190000e+01	  -1.5931761e-01	   1.3769330e-02	
   4.7245000e+01	  -1.5852761e-01	   1.1068808e-02	
   4.7300000e+01	  -1.5781488e-01	   8.5235592e-03	
   4.7355000e+01	  -1.5710090e-01	   6.1716890e-03	
   4.7410000e+01	  -1.5630515e-01	   4.0399356e-03	
   4.7465000e+01	  -1.5534734e-01	   2.1466824e-03	
   4.7520000e+01	  -1.5414998e-01	   5.0424256e-04	
   4.7575000e+01	  -1.5264070e-01	  -8.7990323e-04	
   4.7630000e+01	  -1.5075448e-01	  -2.0029551e-03	
   4.7685000e+01	  -1.4843638e-01	  -2.8677022e-03	
   4.7740000e+01	  -1.4564545e-01	  -3.4841129e-03	
   4.7795000e+01	  -1.4235912e-01	  -3.8711105e-03	
   4.7850000e+01	  -1.3857758e-01	  -4.0584517e-03	
   4.7905000e+01	  -1.3432741e-01	  -4.0887109e-03	
   4.7960000e+01	  -1.2966352e-01	  -4.0186964e-03	
   4.8015000e+01	  -1.2466866e-01	  -3.9191830e-03	
   4.8070000e+01	  -1.1944959e-01	  -3.8722368e-03	
   4.8125000e+01	  -1.1413055e-01	  -3.9661017e-03	
   4.8180000e+01	  -1.0884456e-01	  -4.2881827e-03	
   4.8235000e+01	  -1.0372425e-01	  -4.9173168e-03	
   4.8290000e+01	  -9.8893612e-02	  -5.9172001e-03	
   4.8345000e+01	  -9.4462010e-02	  -7.3327427e-03	
   4.8400000e+01	  -9.0520935e-02	  -9.1896955e-03	
   4.8455000e+01	  -8.7142189e-02	  -1.1496066e-02	
   4.8510000e+01	  -8.4376184e-02	  -1.4243411e-02	
   4.8565000e+01	  -8.2250260e-02	  -1.7407504e-02	
   4.8620000e+01	  -8.0767906e-02	  -2.0949199e-02	
   4.8675000e+01	  -7.9909171e-02	  -2.4816121e-02	
   4.8730000e+01	  -7.9631865e-02	  -2.8945013e-02	
   4.8785000e+01	  -7.9873566e-02	  -3.3264542e-02	
   4.8840000e+01	  -8.0554991e-02	  -3.7698294e-02	
   4.8895000e+01	  -8.1584738e-02	  -4.2167351e-02	
   4.8950000e+01	  -8.2864691e-02	  -4.6592082e-02	
   4.9005000e+01	  -8.4295690e-02	  -5.0893651e-02	
   4.9060000e+01	  -8.5783354e-02	  -5.4995838e-02	
   4.9115000e+01	  -8.7243316e-02	  -5.8827161e-02	
   4.9170000e+01	  -8.8604807e-02	  -6.2323078e-02	
   4.9225000e+01	  -8.9812579e-02	  -6.5428556e-02	
   4.9280000e+01	  -9.0828046e-02	  -6.8101126e-02	
   4.9335000e+01	  -9.1630127e-02	  -7.0313844e-02	
   4.9390000e+01	  -9.2215529e-02	  -7.2057746e-02	
   4.9445000e+01	  -9.2597871e-02	  -7.3343691e-02	
   4.9500000e+01	  -9.2804726e-02	  -7.4202979e-02	
   4.9555000e+01	  -9.2872024e-02	  -7.4685575e-02	
   4.9610000e+01	  -9.2836655e-02	  -7.4855728e-02	
   4.9665000e+01	  -9.2729670e-02	  -7.4786026e-02	
   4.9720000e+01	  -9.2571928e-02	  -7.4551024e-02	
   4.9775000e+01	  -9.2372259e-02	  -7.4220963e-02	
   4.9830000e+01	  -9.2127606e-02	  -7.3856417e-02	
   4.9885000e+01	  -9.1825376e-02	  -7.3505325e-02	
   4.9940000e+01	  -9.1447945e-02	  -7.3202882e-02	
   4.9995000e+01	  -9.0978362e-02	  -7.2973342e-02	
   5.0050000e+01	  -9.0406501e-02	  -7.2832848e-02	
   5.0105000e+01	  -8.9735431e-02	  -7.2793175e-02	
   5.0160000e+01	  -8.8986525e-02	  -7.2865729e-02	
   5.0215000e+01	  -8.8200849e-02	  -7.3064316e-02	
   5.0270000e+01	  -8.7436368e-02	  -7.3405890e-02	
   5.0325000e+01	  -8.6762942e-02	  -7.3909810e-02	
   5.0380000e+01	  -8.6256885e-02	  -7.4596145e-02	
   5.0435000e+01	  -8.5995198e-02	  -7.5483114e-02	
   5.0490000e+01	  -8.6049270e-02	  -7.6584084e-02	
   5.0545000e+01	  -8.6478521e-02	  -7.7904862e-02	
   5.0600000e+01	  -8.7324932e-02	  -7.9441582e-02	
   5.0655000e+01	  -8.8609436e-02	  -8.1179488e-02	
   5.0710000e+01	  -9.0331123e-02	  -8.3093306e-02	
   5.0765000e+01	  -9.2469639e-02	  -8.5149568e-02	
   5.0820000e+01	  -9.4990162e-02	  -8.7310189e-02	
   5.0875000e+01	  -9.7849514e-02	  -8.9536096e-02	
   5.0930000e+01	  -1.0100197e-01	  -9.1790369e-02	
   5.0985000e+01	  -1.0440386e-01	  -9.4041239e-02	
   5.1040000e+01	  -1.0801664e-01	  -9.6265087e-02	
   5.1095000e+01	  -1.1180880e-01	  -9.8448927e-02	
   5.1150000e+01	  -1.1575679e-01	  -1.0059158e-01	
   5.1205000e+01	  -1.1984552e-01	  -1.0270315e-01	
   5.1260000e+01	  -1.2406834e-01	  -1.0480281e-01	
   5.1315000e+01	  -1.2842624e-01	  -1.0691502e-01	
   5.1370000e+01	  -1.3292605e-01	  -1.0906481e-01	
   5.1425000e+01	  -1.3757804e-01	  -1.1127332e-01	
   5.1480000e+01	  -1.4239326e-01	  -1.1355420e-01	
   5.1535000e+01	  -1.4738099e-01	  -1.1591081e-01	
   5.1590000e+01	  -1.5254671e-01	  -1.1833433e-01	
   5.1645000e+01	  -1.5789145e-01	  -1.2080310e-01	
   5.1700000e+01	  -1.6341229e-01	  -1.2328403e-01	
   5.1755000e+01	  -1.6910285e-01	  -1.2573550e-01	
   5.1810000e+01	  -1.7495273e-01	  -1.2811115e-01	
   5.1865000e+01	  -1.8094596e-01	  -1.3036316e-01	
   5.1920000e+01	  -1.8705980e-01	  -1.3244443e-01	
   5.1975000e+01	  -1.9326445e-01	  -1.3430944e-01	
   5.2030000e+01	  -1.9952379e-01	  -1.3591441e-01	
   5.2085000e+01	  -2.0579795e-01	  -1.3721820e-01	
   5.2140000e+01	  -2.1204727e-01	  -1.3818444e-01	
   5.2195000e+01	  -2.1823646e-01	  -1.3878438e-01	
   5.2250000e+01	  -2.2433756e-01	  -1.3899941e-01	
   5.2305000e+01	  -2.3033171e-01	  -1.3882318e-01	
   5.2360000e+01	  -2.3621057e-01	  -1.3826360e-01	
   5.2415000e+01	  -2.4197756e-01	  -1.3734418e-01	
   5.2470000e+01	  -2.4764902e-01	  -1.3610461e-01	
   5.2525000e+01	  -2.5325490e-01	  -1.3460131e-01	
   5.2580000e+01	  -2.5883807e-01	  -1.3290753e-01	
   5.2635000e+01	  -2.6445111e-01	  -1.3111212e-01	
   5.2690000e+01	  -2.7015037e-01	  -1.2931558e-01	
   5.2745000e+01	  -2.7598894e-01	  -1.2762406e-01	
   5.2800000e+01	  -2.8201009e-01	  -1.2614227e-01	
   5.2855000e+01	  -2.8824197e-01	  -1.2496608e-01	
   5.2910000e+01	  -2.9469442e-01	  -1.2417592e-01	
   5.2965000e+01	  -3.0135900e-01	  -1.2383229e-01	
   5.3020000e+01	  -3.0821207e-01	  -1.2397387e-01	
   5.3075000e+01	  -3.1521940e-01	  -1.2461760e-01	
   5.3130000e+01	  -3.2234103e-01	  -1.2576002e-01	
   5.3185000e+01	  -3.2953527e-01	  -1.2737918e-01	
   5.3240000e+01	  -3.3676144e-01	  -1.2943727e-01	
   5.3295000e+01	  -3.4398108e-01	  -1.3188363e-01	
   5.3350000e+01	  -3.5115824e-01	  -1.3465828e-01	
   5.3405000e+01	  -3.5825945e-01	  -1.3769558e-01	
   5.3460000e+01	  -3.6525379e-01	  -1.4092772e-01	
   5.3515000e+01	  -3.7211314e-01	  -1.4428754e-01	
   5.3570000e+01	  -3.7881210e-01	  -1.4771036e-01	
   5.3625000e+01	  -3.8532757e-01	  -1.5113488e-01	
   5.3680000e+01	  -3.9163802e-01	  -1.5450336e-01	
   5.3735000e+01	  -3.9772323e-01	  -1.5776111e-01	
   5.3790000e+01	  -4.0356486e-01	  -1.6085587e-01	
   5.3845000e+01	  -4.0914802e-01	  -1.6373789e-01	
   5.3900000e+01	  -4.1446373e-01	  -1.6636118e-01	
   5.3955000e+01	  -4.1951148e-01	  -1.6868580e-01	
   5.4010000e+01	  -4.2430105e-01	  -1.7068030e-01	
   5.4065000e+01	  -4.2885313e-01	  -1.7232393e-01	
   5.4120000e+01	  -4.3319814e-01	  -1.7360821e-01	
   5.4175000e+01	  -4.3737308e-01	  -1.7453744e-01	
   5.4230000e+01	  -4.4141684e-01	  -1.7512862e-01	
   5.4285000e+01	  -4.4536512e-01	  -1.7541117e-01	
   5.4340000e+01	  -4.4924571e-01	  -1.7542641e-01	
   5.4395000e+01	  -4.5307503e-01	  -1.7522621e-01	
   5.4450000e+01	  -4.5685708e-01	  -1.7487072e-01	
   5.4505000e+01	  -4.6058466e-01	  -1.7442549e-01	
   5.4560000e+01	  -4.6424210e-01	  -1.7395789e-01	
   5.4615000e+01	  -4.6780798e-01	  -1.7353333e-01	
   5.4670000e+01	  -4.7125757e-01	  -1.7321170e-01	
   5.4725000e+01	  -4.7456527e-01	  -1.7304496e-01	
   5.4780000e+01	  -4.7770779e-01	  -1.7307594e-01	
   5.4835000e+01	  -4.8066767e-01	  -1.7333802e-01	
   5.4890000e+01	  -4.8343621e-01	  -1.7385508e-01	
   5.4945000e+01	  -4.8601521e-01	  -1.7464172e-01	
   5.5000000e+01	  -4.8841768e-01	  -1.7570400e-01	
   5.5055000e+01	  -4.9066748e-01	  -1.7704072e-01	
   5.5110000e+01	  -4.9279783e-01	  -1.7864440e-01	
   5.5165000e+01	  -4.9484826e-01	  -1.8050208e-01	
   5.5220000e+01	  -4.9686048e-01	  -1.8259535e-01	
   5.5275000e+01	  -4.9887381e-01	  -1.8489941e-01	
   5.5330000e+01	  -5.0092075e-01	  -1.8738101e-01	
   5.5385000e+01	  -5.0302310e-01	  -1.8999650e-01	
   5.5440000e+01	  -5.0518957e-01	  -1.9269131e-01	
   5.5495000e+01	  -5.0741533e-01	  -1.9540129e-01	
   5.5550000e+01	  -5.0968387e-01	  -1.9805550e-01	
   5.5605000e+01	  -5.1197062e-01	  -2.0058018e-01	
   5.5660000e+01	  -5.1424813e-01	  -2.0290383e-01	
   5.5715000e+01	  -5.1649161e-01	  -2.0496240e-01	
   5.5770000e+01	  -5.1868383e-01	  -2.0670340e-01	
   5.5825000e+01	  -5.2081852e-01	  -2.0808839e-01	
   5.5880000e+01	  -5.2290170e-01	  -2.0909418e-01	
   5.5935000e+01	  -5.2495045e-01	  -2.0971280e-01	
   5.5990000e+01	  -5.2698873e-01	  -2.0995037e-01	
   5.6045000e+01	  -5.2904234e-01	  -2.0982503e-01	
   5.6100000e+01	  -5.3113481e-01	  -2.0936453e-01	
   5.6155000e+01	  -5.3328509e-01	  -2.0860329e-01	
   5.6210000e+01	  -5.3550629e-01	  -2.0757867e-01	
   5.6265000e+01	  -5.3780503e-01	  -2.0632693e-01	
   5.6320000e+01	  -5.4018122e-01	  -2.0487967e-01	
   5.6375000e+01	  -5.4262808e-01	  -2.0326113e-01	
   5.6430000e+01	  -5.4513259e-01	  -2.0148688e-01	
   5.6485000e+01	  -5.4767651e-01	  -1.9956457e-01	
   5.6540000e+01	  -5.5023877e-01	  -1.9749696e-01	
   5.6595000e+01	  -5.5279813e-01	  -1.9528655e-01	
   5.6650000e+01	  -5.5533476e-01	  -1.9293977e-01	
   5.6705000e+01	  -5.5782928e-01	  -1.9046958e-01	
   5.6760000e+01	  -5.6025996e-01	  -1.8789538e-01	
   5.6815000e+01	  -5.6259963e-01	  -1.8524044e-01	
   5.6870000e+01	  -5.6481340e-01	  -1.8252776e-01	
   5.6925000e+01	  -5.6685791e-01	  -1.7977591e-01	
   5.6980000e+01	  -5.6868204e-01	  -1.7699595e-01	
   5.7035000e+01	  -5.7022798e-01	  -1.7418997e-01	
   5.7090000e+01	  -5.7143178e-01	  -1.7135069e-01	
   5.7145000e+01	  -5.7222339e-01	  -1.6846241e-01	
   5.7200000e+01	  -5.7252788e-01	  -1.6550322e-01	
   5.7255000e+01	  -5.7226907e-01	  -1.6244825e-01	
   5.7310000e+01	  -5.7137482e-01	  -1.5927336e-01	
   5.7365000e+01	  -5.6978209e-01	  -1.5595870e-01	
   5.7420000e+01	  -5.6744073e-01	  -1.5249184e-01	
   5.7475000e+01	  -5.6431535e-01	  -1.4886923e-01	
   5.7530000e+01	  -5.6038499e-01	  -1.4509544e-01	
   5.7585000e+01	  -5.5564064e-01	  -1.4118033e-01	
   5.7640000e+01	  -5.5008161e-01	  -1.3713502e-01	
   5.7695000e+01	  -5.4371137e-01	  -1.3296722e-01	
   5.7750000e+01	  -5.3653330e-01	  -1.2867707e-01	
   5.7805000e+01	  -5.2854734e-01	  -1.2425447e-01	
   5.7860000e+01	  -5.1974861e-01	  -1.1967910e-01	
   5.7915000e+01	  -5.1012772e-01	  -1.1492246e-01	
   5.7970000e+01	  -4.9967153e-01	  -1.0995116e-01	
   5.8025000e+01	  -4.8836359e-01	  -1.0473045e-01	
   5.8080000e+01	  -4.7618417e-01	  -9.9227308e-02	
   5.8135000e+01	  -4.6311035e-01	  -9.3412962e-02	
   5.8190000e+01	  -4.4911657e-01	  -8.7264705e-02	
   5.8245000e+01	  -4.3417655e-01	  -8.0766830e-02	
   5.8300000e+01	  -4.1826712e-01	  -7.3910399e-02	
   5.8355000e+01	  -4.0137280e-01	  -6.6691950e-02	
   5.8410000e+01	  -3.8348924e-01	  -5.9111745e-02	
   5.8465000e+01	  -3.6462574e-01	  -5.1172473e-02	
   5.8520000e+01	  -3.4480838e-01	  -4.2879176e-02	
   5.8575000e+01	  -3.2408456e-01	  -3.4240495e-02	
   5.8630000e+01	  -3.0252773e-01	  -2.5270579e-02	
   5.8685000e+01	  -2.8024085e-01	  -1.5991095e-02	
   5.8740000e+01	  -2.5735746e-01	  -6.4332512e-03	
   5.8795000e+01	  -2.3403939e-01	   3.3604268e-03	
   5.8850000e+01	  -2.1047098e-01	   1.3334964e-02	
   5.8905000e+01	  -1.8685074e-01	   2.3422407e-02	
   5.8960000e+01	  -1.6338261e-01	   3.3541792e-02	
   5.9015000e+01	  -1.4026779e-01	   4.3600412e-02	
   5.9070000e+01	  -1.1769705e-01	   5.3497339e-02	
   5.9125000e+01	  -9.5843234e-02	   6.3128797e-02	
   5.9180000e+01	  -7.4855558e-02	   7.2393816e-02	
   5.9235000e+01	  -5.4856715e-02	   8.1198790e-02	
   5.9290000e+01	  -3.5942702e-02	   8.9460551e-02	
   5.9345000e+01	  -1.8184012e-02	   9.7108325e-02	
   5.9400000e+01	  -1.6273784e-03	   1.0408514e-01	
   5.9455000e+01	   1.3702103e-02	   1.1034899e-01	
   5.9510000e+01	   2.7798567e-02	   1.1587354e-01	
   5.9565000e+01	   4.0672822e-02	   1.2064718e-01	
   5.9620000e+01	   5.2349760e-02	   1.2467045e-01	
   5.9675000e+01	   6.2865907e-02	   1.2795222e-01	
   5.9730000e+01	   7.2267254e-02	   1.3050602e-01	
   5.9785000e+01	   8.0607005e-02	   1.3234691e-01	
   5.9840000e+01	   8.7942845e-02	   1.3348890e-01	
   5.9895000e+01	   9.4334121e-02	   1.3394365e-01	
   5.9950000e+01	   9.9839964e-02	   1.3372101e-01	
   6.0005000e+01	   1.0451878e-01	   1.3283165e-01	
   6.0060000e+01	   1.0842855e-01	   1.3129081e-01	
   6.0115000e+01	   1.1162738e-01	   1.2912246e-01	
   6.0170000e+01	   1.1417475e-01	   1.2636296e-01	
   6.0225000e+01	   1.1613392e-01	   1.2306350e-01	
   6.0280000e+01	   1.1757529e-01	   1.1929106e-01	
   6.0335000e+01	   1.1857965e-01	   1.1512786e-01	
   6.0390000e+01	   1.1923921e-01	   1.1066900e-01	
   6.0445000e+01	   1.1965409e-01	   1.0601783e-01	
   6.0500000e+01	   1.1992426e-01	   1.0127925e-01	
   6.0555000e+01	   1.2014043e-01	   9.6552663e-02	
   6.0610000e+01	   1.2037717e-01	   9.1925922e-02	
   6.0665000e+01	   1.2068891e-01	   8.7470814e-02	
   6.0720000e+01	   1.2110828e-01	   8.3239886e-02	
   6.0775000e+01	   1.2164684e-01	   7.9265254e-02	
   6.0830000e+01	   1.2229873e-01	   7.5559570e-02	
   6.0885000e+01	   1.2304610e-01	   7.2118515e-02	
   6.0940000e+01	   1.2386393e-01	   6.8924048e-02	
   6.0995000e+01	   1.2472323e-01	   6.5948045e-02	
   6.1050000e+01	   1.2559292e-01	   6.3155908e-02	
   6.1105000e+01	   1.2644124e-01	   6.0509321e-02	
   6.1160000e+01	   1.2723685e-01	   5.7968002e-02	
   6.1215000e+01	   1.2795003e-01	   5.5491234e-02	
   6.1270000e+01	   1.2855466e-01	   5.3039621e-02	
   6.1325000e+01	   1.2903009e-01	   5.0576364e-02	
   6.1380000e+01	   1.2936234e-01	   4.8067377e-02	
   6.1435000e+01	   1.2954531e-01	   4.5480686e-02	
   6.1490000e+01	   1.2958287e-01	   4.2785914e-02	
   6.1545000e+01	   1.2949109e-01	   3.9954080e-02	
   6.1600000e+01	   1.2929916e-01	   3.6957625e-02	
   6.1655000e+01	   1.2904869e-01	   3.3770760e-02	
   6.1710000e+01	   1.2879238e-01	   3.0370251e-02	
   6.1765000e+01	   1.2859144e-01	   2.6736445e-02	
   6.1820000e+01	   1.2851089e-01	   2.2854100e-02	
   6.1875000e+01	   1.2861220e-01	   1.8712758e-02	
   6.1930000e+01	   1.2894481e-01	   1.4306561e-02	
   6.1985000e+01	   1.2953856e-01	   9.6334707e-03	
   6.2040000e+01	   1.3039830e-01	   4.6940275e-03	
   6.2095000e+01	   1.3150140e-01	  -5.0997904e-04	
   6.2150000e+01	   1.3279830e-01	  -5.9764886e-03	
   6.2205000e+01	   1.3421547e-01	  -1.1703488e-02	
   6.2260000e+01	   1.3565993e-01	  -1.7688533e-02	
   6.2315000e+01	   1.3702487e-01	  -2.3927434e-02	
   6.2370000e+01	   1.3819682e-01	  -3.0412241e-02	
   6.2425000e+01	   1.3906352e-01	  -3.7129193e-02	
   6.2480000e+01	   1.3952142e-01	  -4.4057541e-02	
   6.2535000e+01	   1.3948154e-01	  -5.1169572e-02	
   6.2590000e+01	   1.3887314e-01	  -5.8431752e-02	
   6.2645000e+01	   1.3764421e-01	  -6.5807203e-02	
   6.2700000e+01	   1.3575907e-01	  -7.3259338e-02	
   6.2755000e+01	   1.3319492e-01	  -8.0755366e-02	
   6.2810000e+01	   1.2993942e-01	  -8.8268366e-02	
   6.2865000e+01	   1.2598886e-01	  -9.5778046e-02	
   6.2920000e+01	   1.2134650e-01	  -1.0327099e-01	
   6.2975000e+01	   1.1602152e-01	  -1.1074073e-01	
   6.3030000e+01	   1.1002931e-01	  -1.1818737e-01	
   6.3085000e+01	   1.0339272e-01	  -1.2561688e-01	
   6.3140000e+01	   9.6144015e-02	  -1.3303968e-01	
   6.3195000e+01	   8.8326571e-02	  -1.4046814e-01	
   6.3250000e+01	   7.9995721e-02	  -1.4791316e-01	
   6.3305000e+01	   7.1217879e-02	  -1.5538055e-01	
   6.3360000e+01	   6.2067522e-02	  -1.6286813e-01	
   6.3415000e+01	   5.2621971e-02	  -1.7036411e-01	
   6.3470000e+01	   4.2954748e-02	  -1.7784663e-01	
   6.3525000e+01	   3.3129209e-02	  -1.8528471e-01	
   6.3580000e+01	   2.3194446e-02	  -1.9264050e-01	
   6.3635000e+01	   1.3184579e-02	  -1.9987195e-01	
   6.3690000e+01	   3.1204933e-03	  -2.0693533e-01	
   6.3745000e+01	  -6.9883616e-03	  -2.1378733e-01	
   6.3800000e+01	  -1.7143189e-02	  -2.2038740e-01	
   6.3855000e+01	  -2.7354876e-02	  -2.2670011e-01	
   6.3910000e+01	  -3.7641281e-02	  -2.3269760e-01	
   6.3965000e+01	  -4.8022743e-02	  -2.3836195e-01	
   6.4020000e+01	  -5.8516748e-02	  -2.4368736e-01	
   6.4075000e+01	  -6.9132750e-02	  -2.4868076e-01	
   6.4130000e+01	  -7.9867990e-02	  -2.5336071e-01	
   6.4185000e+01	  -9.0705140e-02	  -2.5775503e-01	
   6.4240000e+01	  -1.0161229e-01	  -2.6189791e-01	
   6.4295000e+01	  -1.1254508e-01	  -2.6582687e-01	
   6.4350000e+01	  -1.2345042e-01	  -2.6958017e-01	
   6.4405000e+01	  -1.3427132e-01	  -2.7319563e-01	
   6.4460000e+01	  -1.4495235e-01	  -2.7671089e-01	
   6.4515000e+01	  -1.5544484e-01	  -2.8016428e-01	
   6.4570000e+01	  -1.6571037e-01	  -2.8359546e-01	
   6.4625000e+01	  -1.7572189e-01	  -2.8704530e-01	
   6.4680000e+01	  -1.8546248e-01	  -2.9055498e-01	
   6.4735000e+01	  -1.9492269e-01	  -2.9416415e-01	
   6.4790000e+01	  -2.0409832e-01	  -2.9790846e-01	
   6.4845000e+01	  -2.1298961e-01	  -3.0181748e-01	
   6.4900000e+01	  -2.2160177e-01	  -3.0591327e-01	
   6.4955000e+01	  -2.2994624e-01	  -3.1020950e-01	
   6.5010000e+01	  -2.3804263e-01	  -3.1471046e-01	
   6.5065000e+01	  -2.4592108e-01	  -3.1941024e-01	
   6.5120000e+01	  -2.5362387e-01	  -3.2429201e-01	
   6.5175000e+01	  -2.6120450e-01	  -3.2932752e-01	
   6.5230000e+01	  -2.6872464e-01	  -3.3447691e-01	
   6.5285000e+01	  -2.7625056e-01	  -3.3968971e-01	
   6.5340000e+01	  -2.8385061e-01	  -3.4490768e-01	
   6.5395000e+01	  -2.9159308e-01	  -3.5006871e-01	
   6.5450000e+01	  -2.9954294e-01	  -3.5511023e-01	
   6.5505000e+01	  -3.0775662e-01	  -3.5997158e-01	
   6.5560000e+01	  -3.1627540e-01	  -3.6459499e-01	
   6.5615000e+01	  -3.2511854e-01	  -3.6892547e-01	
   6.5670000e+01	  -3.3427798e-01	  -3.7290998e-01	
   6.5725000e+01	  -3.4371688e-01	  -3.7649724e-01	
   6.5780000e+01	  -3.5337268e-01	  -3.7963921e-01	
   6.5835000e+01	  -3.6316314e-01	  -3.8229365e-01	
   6.5890000e+01	  -3.7299338e-01	  -3.8442660e-01	
   6.5945000e+01	  -3.8276320e-01	  -3.8601439e-01	
   6.6000000e+01	  -3.9237481e-01	  -3.8704502e-01	
   6.6055000e+01	  -4.0173995e-01	  -3.8751880e-01	
   6.6110000e+01	  -4.1078458e-01	  -3.8744786e-01	
   6.6165000e+01	  -4.1945105e-01	  -3.8685536e-01	
   6.6220000e+01	  -4.2769843e-01	  -3.8577523e-01	
   6.6275000e+01	  -4.3550192e-01	  -3.8425254e-01	
   6.6330000e+01	  -4.4285102e-01	  -3.8234370e-01	
   6.6385000e+01	  -4.4974663e-01	  -3.8011601e-01	
   6.6440000e+01	  -4.5619678e-01	  -3.7764547e-01	
   6.6495000e+01	  -4.6221129e-01	  -3.7501232e-01	
   6.6550000e+01	  -4.6779646e-01	  -3.7229440e-01	
   6.6605000e+01	  -4.7295132e-01	  -3.6955988e-01	
   6.6660000e+01	  -4.7766644e-01	  -3.6686075e-01	
   6.6715000e+01	  -4.8192510e-01	  -3.6422796e-01	
   6.6770000e+01	  -4.8570594e-01	  -3.6166874e-01	
   6.6825000e+01	  -4.8898621e-01	  -3.5916651e-01	
   6.6880000e+01	  -4.9174494e-01	  -3.5668292e-01	
   6.6935000e+01	  -4.9396522e-01	  -3.5416149e-01	
   6.6990000e+01	  -4.9563596e-01	  -3.5153266e-01	
   6.7045000e+01	  -4.9675376e-01	  -3.4872044e-01	
   6.7100000e+01	  -4.9732472e-01	  -3.4565010e-01	
   6.7155000e+01	  -4.9736445e-01	  -3.4225583e-01	
   6.7210000e+01	  -4.9689582e-01	  -3.3848787e-01	
   6.7265000e+01	  -4.9594579e-01	  -3.3431848e-01	
   6.7320000e+01	  -4.9454261e-01	  -3.2974569e-01	
   6.7375000e+01	  -4.9271344e-01	  -3.2479401e-01	
   6.7430000e+01	  -4.9048300e-01	  -3.1951211e-01	
   6.7485000e+01	  -4.8787422e-01	  -3.1396918e-01	
   6.7540000e+01	  -4.8491099e-01	  -3.0825065e-01	
   6.7595000e+01	  -4.8162145e-01	  -3.0245280e-01	
   6.7650000e+01	  -4.7803983e-01	  -2.9667603e-01	
   6.7705000e+01	  -4.7420693e-01	  -2.9101763e-01	
   6.7760000e+01	  -4.7016971e-01	  -2.8556517e-01	
   6.7815000e+01	  -4.6598043e-01	  -2.8039112e-01	
   6.7870000e+01	  -4.6169496e-01	  -2.7554889e-01	
   6.7925000e+01	  -4.5737033e-01	  -2.7107070e-01	
   6.7980000e+01	  -4.5306140e-01	  -2.6696720e-01	
   6.8035000e+01	  -4.4881647e-01	  -2.6322840e-01	
   6.8090000e+01	  -4.4467236e-01	  -2.5982566e-01	
   6.8145000e+01	  -4.4064955e-01	  -2.5671448e-01	
   6.8200000e+01	  -4.3674852e-01	  -2.5383788e-01	
   6.8255000e+01	  -4.3294840e-01	  -2.5112944e-01	
   6.8310000e+01	  -4.2920761e-01	  -2.4851566e-01	
   6.8365000e+01	  -4.2546571e-01	  -2.4591809e-01	
   6.8420000e+01	  -4.2164611e-01	  -2.4325535e-01	
   6.8475000e+01	  -4.1765996e-01	  -2.4044567e-01	
   6.8530000e+01	  -4.1341123e-01	  -2.3741022e-01	
   6.8585000e+01	  -4.0880272e-01	  -2.3407752e-01	
   6.8640000e+01	  -4.0374311e-01	  -2.3038812e-01	
   6.8695000e+01	  -3.9815377e-01	  -2.2629795e-01	
   6.8750000e+01	  -3.9197349e-01	  -2.2177980e-01	
   6.8805000e+01	  -3.8516027e-01	  -2.1682345e-01	
   6.8860000e+01	  -3.7769085e-01	  -2.1143527e-01	
   6.8915000e+01	  -3.6955863e-01	  -2.0563703e-01	
   6.8970000e+01	  -3.6077023e-01	  -1.9946326e-01	
   6.9025000e+01	  -3.5134214e-01	  -1.9295800e-01	
   6.9080000e+01	  -3.4129899e-01	  -1.8617123e-01	
   6.9135000e+01	  -3.3067299e-01	  -1.7915476e-01	
   6.9190000e+01	  -3.1950401e-01	  -1.7195744e-01	
   6.9245000e+01	  -3.0783975e-01	  -1.6462055e-01	
   6.9300000e+01	  -2.9573665e-01	  -1.5717459e-01	
   6.9355000e+01	  -2.8326165e-01	  -1.4963845e-01	
   6.9410000e+01	  -2.7049489e-01	  -1.4202100e-01	
   6.9465000e+01	  -2.5753296e-01	  -1.3432501e-01	
   6.9520000e+01	  -2.4449114e-01	  -1.2655228e-01	
   6.9575000e+01	  -2.3150260e-01	  -1.1870872e-01	
   6.9630000e+01	  -2.1871339e-01	  -1.1080865e-01	
   6.9685000e+01	  -2.0627428e-01	  -1.0287720e-01	
   6.9740000e+01	  -1.9433145e-01	  -9.4950470e-02	
   6.9795000e+01	  -1.8301749e-01	  -8.7073067e-02	
   6.9850000e+01	  -1.7244355e-01	  -7.9294295e-02	
   6.9905000e+01	  -1.6269336e-01	  -7.1663882e-02	
   6.9960000e+01	  -1.5381901e-01	  -6.4227811e-02	
   7.0015000e+01	  -1.4583791e-01	  -5.7024337e-02	
   7.0070000e+01	  -1.3873063e-01	  -5.0080639e-02	
   7.0125000e+01	  -1.3244091e-01	  -4.3410729e-02	
   7.0180000e+01	  -1.2687891e-01	  -3.7014646e-02	
   7.0235000e+01	  -1.2192684e-01	  -3.0878617e-02	
   7.0290000e+01	  -1.1744634e-01	  -2.4976276e-02	
   7.0345000e+01	  -1.1328802e-01	  -1.9271420e-02	
   7.0400000e+01	  -1.0930278e-01	  -1.3722147e-02	
   7.0455000e+01	  -1.0535334e-01	  -8.2856334e-03	
   7.0510000e+01	  -1.0132393e-01	  -2.9230210e-03	
   7.0565000e+01	  -9.7126773e-02	   2.3962372e-03	
   7.0620000e+01	  -9.2704441e-02	   7.6916416e-03	
   7.0675000e+01	  -8.8028013e-02	   1.2971166e-02	
   7.0730000e+01	  -8.3092611e-02	   1.8232691e-02	
   7.0785000e+01	  -7.7911591e-02	   2.3466836e-02	
   7.0840000e+01	  -7.2509703e-02	   2.8660906e-02	
   7.0895000e+01	  -6.6915498e-02	   3.3803351e-02	
   7.0950000e+01	  -6.1154227e-02	   3.8887662e-02	
   7.1005000e+01	  -5.5242696e-02	   4.3915006e-02	
   7.1060000e+01	  -4.9186703e-02	   4.8895474e-02	
   7.1115000e+01	  -4.2980736e-02	   5.3847822e-02	
   7.1170000e+01	  -3.6609594e-02	   5.8797222e-02	
   7.1225000e+01	  -3.0052269e-02	   6.3770926e-02	
   7.1280000e+01	  -2.3288082e-02	   6.8792962e-02	
   7.1335000e+01	  -1.6303371e-02	   7.3879446e-02	
   7.1390000e+01	  -9.0961339e-03	   7.9035556e-02	
   7.1445000e+01	  -1.6771734e-03	   8.4254711e-02	
   7.1500000e+01	   5.9317055e-03	   8.9520046e-02	
   7.1555000e+01	   1.3700644e-02	   9.4807533e-02	
   7.1610000e+01	   2.1594189e-02	   1.0008944e-01	
   7.1665000e+01	   2.9572962e-02	   1.0533709e-01	
   7.1720000e+01	   3.7595972e-02	   1.1052278e-01	
   7.1775000e+01	   4.5624965e-02	   1.1562143e-01	
   7.1830000e+01	   5.3630110e-02	   1.2061182e-01	
   7.1885000e+01	   6.1594789e-02	   1.2547704e-01	
   7.1940000e+01	   6.9517735e-02	   1.3020375e-01	
   7.1995000e+01	   7.7411623e-02	   1.3478005e-01	
   7.2050000e+01	   8.5297570e-02	   1.3919202e-01	
   7.2105000e+01	   9.3196290e-02	   1.4341989e-01	
   7.2160000e+01	   1.0111881e-01	   1.4743567e-01	
   7.2215000e+01	   1.0905993e-01	   1.5120320e-01	
   7.2270000e+01	   1.1699550e-01	   1.5468088e-01	
   7.2325000e+01	   1.2488317e-01	   1.5782577e-01	
   7.2380000e+01	   1.3266612e-01	   1.6059869e-01	
   7.2435000e+01	   1.4027960e-01	   1.6296995e-01	
   7.2490000e+01	   1.4765882e-01	   1.6492466e-01	
   7.2545000e+01	   1.5474630e-01	   1.6646641e-01	
   7.2600000e+01	   1.6149790e-01	   1.6761871e-01	
   7.2655000e+01	   1.6788671e-01	   1.6842430e-01	
   7.2710000e+01	   1.7390399e-01	   1.6894267e-01	
   7.2765000e+01	   1.7955714e-01	   1.6924674e-01	
   7.2820000e+01	   1.8486605e-01	   1.6941941e-01	
   7.2875000e+01	   1.8985862e-01	   1.6955017e-01	
   7.2930000e+01	   1.9456520e-01	   1.6973082e-01	
   7.2985000e+01	   1.9901132e-01	   1.7004933e-01	
   7.3040000e+01	   2.0321031e-01	   1.7058273e-01	
   7.3095000e+01	   2.0715808e-01	   1.7139068e-01	
   7.3150000e+01	   2.1083143e-01	   1.7251103e-01	
   7.3205000e+01	   2.1418901e-01	   1.7395803e-01	
   7.3260000e+01	   2.1717453e-01	   1.7572374e-01	
   7.3315000e+01	   2.1972192e-01	   1.7778206e-01	
   7.3370000e+01	   2.2176251e-01	   1.8009445e-01	
   7.3425000e+01	   2.2323303e-01	   1.8261608e-01	
   7.3480000e+01	   2.2408263e-01	   1.8530164e-01	
   7.3535000e+01	   2.2427780e-01	   1.8810938e-01	
   7.3590000e+01	   2.2380411e-01	   1.9100246e-01	
   7.3645000e+01	   2.2266556e-01	   1.9394822e-01	
   7.3700000e+01	   2.2088293e-01	   1.9691706e-01	
   7.3755000e+01	   2.1849229e-01	   1.9988196e-01	
   7.3810000e+01	   2.1554312e-01	   2.0281818e-01	
   7.3865000e+01	   2.1209565e-01	   2.0570273e-01	
   7.3920000e+01	   2.0821770e-01	   2.0851343e-01	
   7.3975000e+01	   2.0398147e-01	   2.1122736e-01	
   7.4030000e+01	   1.9946049e-01	   2.1381883e-01	
   7.4085000e+01	   1.9472764e-01	   2.1625820e-01	
   7.4140000e+01	   1.8985550e-01	   2.1851267e-01	
   7.4195000e+01	   1.8491916e-01	   2.2054901e-01	
   7.4250000e+01	   1.8000033e-01	   2.2233682e-01	
   7.4305000e+01	   1.7519055e-01	   2.2385137e-01	
   7.4360000e+01	   1.7059213e-01	   2.2507639e-01	
   7.4415000e+01	   1.6631630e-01	   2.2600632e-01	
   7.4470000e+01	   1.6247857e-01	   2.2664755e-01	
   7.4525000e+01	   1.5919131e-01	   2.2701764e-01	
   7.4580000e+01	   1.5655466e-01	   2.2714282e-01	
   7.4635000e+01	   1.5464704e-01	   2.2705399e-01	
   7.4690000e+01	   1.5351748e-01	   2.2678194e-01	
   7.4745000e+01	   1.5318137e-01	   2.2635310e-01	
   7.4800000e+01	   1.5362123e-01	   2.2578720e-01	
   7.4855000e+01	   1.5479167e-01	   2.2509682e-01	
   7.4910000e+01	   1.5662729e-01	   2.2428850e-01	
   7.4965000e+01	   1.5905171e-01	   2.2336458e-01	
   7.5020000e+01	   1.6198629e-01	   2.2232521e-01	
   7.5075000e+01	   1.6535662e-01	   2.2117009e-01	
   7.5130000e+01	   1.6909581e-01	   2.1990005e-01	
   7.5185000e+01	   1.7314557e-01	   2.1851872e-01	
   7.5240000e+01	   1.7745699e-01	   2.1703430e-01	
   7.5295000e+01	   1.8199126e-01	   2.1546108e-01	
   7.5350000e+01	   1.8671965e-01	   2.1382039e-01	
   7.5405000e+01	   1.9162256e-01	   2.1214074e-01	
   7.5460000e+01	   1.9668774e-01	   2.1045740e-01	
   7.5515000e+01	   2.0190848e-01	   2.0881149e-01	
   7.5570000e+01	   2.0728189e-01	   2.0724869e-01	
   7.5625000e+01	   2.1280787e-01	   2.0581812e-01	
   7.5680000e+01	   2.1848921e-01	   2.0457148e-01	
   7.5735000e+01	   2.2433255e-01	   2.0356185e-01	
   7.5790000e+01	   2.3034998e-01	   2.0284145e-01	
   7.5845000e+01	   2.3656004e-01	   2.0245853e-01	
   7.5900000e+01	   2.4298762e-01	   2.0245475e-01	
   7.5955000e+01	   2.4966230e-01	   2.0286402e-01	
   7.6010000e+01	   2.5661529e-01	   2.0371261e-01	
   7.6065000e+01	   2.6387582e-01	   2.0502001e-01	
   7.6120000e+01	   2.7146828e-01	   2.0679964e-01	
   7.6175000e+01	   2.7940986e-01	   2.0905890e-01	
   7.6230000e+01	   2.8770791e-01	   2.1179851e-01	
   7.6285000e+01	   2.9635627e-01	   2.1501117e-01	
   7.6340000e+01	   3.0533153e-01	   2.1867981e-01	
   7.6395000e+01	   3.1459086e-01	   2.2277569e-01	
   7.6450000e+01	   3.2407222e-01	   2.2725663e-01	
   7.6505000e+01	   3.3369684e-01	   2.3206637e-01	
   7.6560000e+01	   3.4337427e-01	   2.3713565e-01	
   7.6615000e+01	   3.5300934e-01	   2.4238491e-01	
   7.6670000e+01	   3.6250968e-01	   2.4772824e-01	
   7.6725000e+01	   3.7179271e-01	   2.5307804e-01	
   7.6780000e+01	   3.8079170e-01	   2.5835012e-01	
   7.6835000e+01	   3.8946039e-01	   2.6346833e-01	
   7.6890000e+01	   3.9777495e-01	   2.6836823e-01	
   7.6945000e+01	   4.0573205e-01	   2.7299949e-01	
   7.7000000e+01	   4.1334391e-01	   2.7732698e-01	
   7.7055000e+01	   4.2063189e-01	   2.8133016e-01	
   7.7110000e+01	   4.2762002e-01	   2.8500067e-01	
   7.7165000e+01	   4.3432859e-01	   2.8833897e-01	
   7.7220000e+01	   4.4076833e-01	   2.9135107e-01	
   7.7275000e+01	   4.4693570e-01	   2.9404546e-01	
   7.7330000e+01	   4.5281040e-01	   2.9643098e-01	
   7.7385000e+01	   4.5835655e-01	   2.9851652e-01	
   7.7440000e+01	   4.6352828e-01	   3.0031307e-01	
   7.7495000e+01	   4.6827824e-01	   3.0183696e-01	
   7.7550000e+01	   4.7256608e-01	   3.0311262e-01	
   7.7605000e+01	   4.7636523e-01	   3.0417385e-01	
   7.7660000e+01	   4.7966703e-01	   3.0506316e-01	
   7.7715000e+01	   4.8248137e-01	   3.0582891e-01	
   7.7770000e+01	   4.8483338e-01	   3.0652127e-01	
   7.7825000e+01	   4.8675687e-01	   3.0718795e-01	
   7.7880000e+01	   4.8828658e-01	   3.0787115e-01	
   7.7935000e+01	   4.8945135e-01	   3.0860549e-01	
   7.7990000e+01	   4.9026907e-01	   3.0941678e-01	
   7.8045000e+01	   4.9074448e-01	   3.1032119e-01	
   7.8100000e+01	   4.9086988e-01	   3.1132474e-01	
   7.8155000e+01	   4.9062788e-01	   3.1242278e-01	
   7.8210000e+01	   4.8999450e-01	   3.1359966e-01	
   7.8265000e+01	   4.8894242e-01	   3.1482910e-01	
   7.8320000e+01	   4.8744504e-01	   3.1607565e-01	
   7.8375000e+01	   4.8548181e-01	   3.1729686e-01	
   7.8430000e+01	   4.8304414e-01	   3.1844588e-01	
   7.8485000e+01	   4.8014054e-01	   3.1947460e-01	
   7.8540000e+01	   4.7680018e-01	   3.2033706e-01	
   7.8595000e+01	   4.7307420e-01	   3.2099233e-01	
   7.8650000e+01	   4.6903522e-01	   3.2140638e-01	
   7.8705000e+01	   4.6477513e-01	   3.2155349e-01	
   7.8760000e+01	   4.6040034e-01	   3.2141716e-01	
   7.8815000e+01	   4.5602423e-01	   3.2099019e-01	
   7.8870000e+01	   4.5175833e-01	   3.2027448e-01	
   7.8925000e+01	   4.4770534e-01	   3.1928140e-01	
   7.8980000e+01	   4.4395529e-01	   3.1803260e-01	
   7.9035000e+01	   4.4058472e-01	   3.1656099e-01	
   7.9090000e+01	   4.3765757e-01	   3.1491163e-01	
   7.9145000e+01	   4.3522652e-01	   3.1314199e-01	
   7.9200000e+01	   4.3333270e-01	   3.1132077e-01	
   7.9255000e+01	   4.3200349e-01	   3.0952489e-01	
   7.9310000e+01	   4.3124938e-01	   3.0783555e-01	
   7.9365000e+01	   4.3106162e-01	   3.0633416e-01	
   7.9420000e+01	   4.3141060e-01	   3.0509826e-01	
   7.9475000e+01	   4.3224437e-01	   3.0419665e-01	
   7.9530000e+01	   4.3348681e-01	   3.0368382e-01	
   7.9585000e+01	   4.3503643e-01	   3.0359450e-01	
   7.9640000e+01	   4.3676776e-01	   3.0393938e-01	
   7.9695000e+01	   4.3853707e-01	   3.0470336e-01	
   7.9750000e+01	   4.4019242e-01	   3.0584647e-01	
   7.9805000e+01	   4.4158576e-01	   3.0730734e-01	
   7.9860000e+01	   4.4258363e-01	   3.0900780e-01	
   7.9915000e+01	   4.4307376e-01	   3.1085747e-01	
   7.9970000e+01	   4.4296754e-01	   3.1275814e-01	
   8.0025000e+01	   4.4220019e-01	   3.1460841e-01	
   8.0080000e+01	   4.4073056e-01	   3.1630867e-01	
   8.0135000e+01	   4.3854088e-01	   3.1776600e-01	
   8.0190000e+01	   4.3563670e-01	   3.1889857e-01	
   8.0245000e+01	   4.3204613e-01	   3.1963938e-01	
   8.0300000e+01	   4.2781771e-01	   3.1993878e-01	
   8.0355000e+01	   4.2301644e-01	   3.1976524e-01	
   8.0410000e+01	   4.1771912e-01	   3.1910445e-01	
   8.0465000e+01	   4.1201028e-01	   3.1795707e-01	
   8.0520000e+01	   4.0597940e-01	   3.1633565e-01	
   8.0575000e+01	   3.9971866e-01	   3.1426105e-01	
   8.0630000e+01	   3.9332064e-01	   3.1175954e-01	
   8.0685000e+01	   3.8687572e-01	   3.0886140e-01	
   8.0740000e+01	   3.8046939e-01	   3.0560119e-01	
   8.0795000e+01	   3.7418053e-01	   3.0201926e-01	
   8.0850000e+01	   3.6808147e-01	   2.9816382e-01	
   8.0905000e+01	   3.6223925e-01	   2.9409253e-01	
   8.0960000e+01	   3.5671651e-01	   2.8987216e-01	
   8.1015000e+01	   3.5157047e-01	   2.8557585e-01	
   8.1070000e+01	   3.4685089e-01	   2.8127908e-01	
   8.1125000e+01	   3.4259842e-01	   2.7705562e-01	
   8.1180000e+01	   3.3884338e-01	   2.7297359e-01	
   8.1235000e+01	   3.3560403e-01	   2.6909124e-01	
   8.1290000e+01	   3.3288455e-01	   2.6545331e-01	
   8.1345000e+01	   3.3067407e-01	   2.6208832e-01	
   8.1400000e+01	   3.2894729e-01	   2.5900683e-01	
   8.1455000e+01	   3.2766620e-01	   2.5620101e-01	
   8.1510000e+01	   3.2678305e-01	   2.5364659e-01	
   8.1565000e+01	   3.2624462e-01	   2.5130745e-01	
   8.1620000e+01	   3.2599633e-01	   2.4914157e-01	
   8.1675000e+01	   3.2598496e-01	   2.4710729e-01	
   8.1730000e+01	   3.2616038e-01	   2.4516901e-01	
   8.1785000e+01	   3.2647686e-01	   2.4330146e-01	
   8.1840000e+01	   3.2689390e-01	   2.4149124e-01	
   8.1895000e+01	   3.2737681e-01	   2.3973590e-01	
   8.1950000e+01	   3.2789711e-01	   2.3804103e-01	
   8.2005000e+01	   3.2843221e-01	   2.3641618e-01	
   8.2060000e+01	   3.2896388e-01	   2.3486985e-01	
   8.2115000e+01	   3.2947576e-01	   2.3340470e-01	
   8.2170000e+01	   3.2995125e-01	   2.3201423e-01	
   8.2225000e+01	   3.3037261e-01	   2.3068156e-01	
   8.2280000e+01	   3.3072198e-01	   2.2938077e-01	
   8.2335000e+01	   3.3098352e-01	   2.2808019e-01	
   8.2390000e+01	   3.3114636e-01	   2.2674703e-01	
   8.2445000e+01	   3.3120717e-01	   2.2535251e-01	
   8.2500000e+01	   3.3117109e-01	   2.2387591e-01	
   8.2555000e+01	   3.3105071e-01	   2.2230688e-01	
   8.2610000e+01	   3.3086387e-01	   2.2064610e-01	
   8.2665000e+01	   3.3063150e-01	   2.1890485e-01	
   8.2720000e+01	   3.3037609e-01	   2.1710351e-01	
   8.2775000e+01	   3.3012038e-01	   2.1526860e-01	
   8.2830000e+01	   3.2988585e-01	   2.1342877e-01	
   8.2885000e+01	   3.2969105e-01	   2.1161050e-01	
   8.2940000e+01	   3.2954988e-01	   2.0983421e-01	
   8.2995000e+01	   3.2947051e-01	   2.0811178e-01	
   8.3050000e+01	   3.2945493e-01	   2.0644641e-01	
   8.3105000e+01	   3.2949955e-01	   2.0483474e-01	
   8.3160000e+01	   3.2959687e-01	   2.0327031e-01	
   8.3215000e+01	   3.2973834e-01	   2.0174687e-01	
   8.3270000e+01	   3.2991825e-01	   2.0026062e-01	
   8.3325000e+01	   3.3013812e-01	   1.9881115e-01	
   8.3380000e+01	   3.3041013e-01	   1.9740135e-01	
   8.3435000e+01	   3.3075817e-01	   1.9603681e-01	
   8.3490000e+01	   3.3121580e-01	   1.9472522e-01	
   8.3545000e+01	   3.3182167e-01	   1.9347535e-01	
   8.3600000e+01	   3.3261360e-01	   1.9229523e-01	
   8.3655000e+01	   3.3362199e-01	   1.9118907e-01	
   8.3710000e+01	   3.3486339e-01	   1.9015346e-01	
   8.3765000e+01	   3.3633587e-01	   1.8917420e-01	
   8.3820000e+01	   3.3801719e-01	   1.8822454e-01	
   8.3875000e+01	   3.3986604e-01	   1.8726544e-01	
   8.3930000e+01	   3.4182543e-01	   1.8624753e-01	
   8.3985000e+01	   3.4382726e-01	   1.8511422e-01	
   8.4040000e+01	   3.4579708e-01	   1.8380523e-01	
   8.4095000e+01	   3.4765856e-01	   1.8226033e-01	
   8.4150000e+01	   3.4933752e-01	   1.8042324e-01	
   8.4205000e+01	   3.5076532e-01	   1.7824540e-01	
   8.4260000e+01	   3.5188137e-01	   1.7568914e-01	
   8.4315000e+01	   3.5263449e-01	   1.7272975e-01	
   8.4370000e+01	   3.5298313e-01	   1.6935658e-01	
   8.4425000e+01	   3.5289346e-01	   1.6557289e-01	
   8.4480000e+01	   3.5233472e-01	   1.6139377e-01	
   8.4535000e+01	   3.5127300e-01	   1.5684241e-01	
   8.4590000e+01	   3.4966659e-01	   1.5194544e-01	
   8.4645000e+01	   3.4746513e-01	   1.4672878e-01	
   8.4700000e+01	   3.4461226e-01	   1.4121474e-01	
   8.4755000e+01	   3.4105107e-01	   1.3542079e-01	
   8.4810000e+01	   3.3673200e-01	   1.2936017e-01	
   8.4865000e+01	   3.3162188e-01	   1.2304388e-01	
   8.4920000e+01	   3.2571161e-01	   1.1648331e-01	
   8.4975000e+01	   3.1902118e-01	   1.0969309e-01	
   8.5030000e+01	   3.1160158e-01	   1.0269412e-01	
   8.5085000e+01	   3.0353315e-01	   9.5515492e-02	
   8.5140000e+01	   2.9492005e-01	   8.8194448e-02	
   8.5195000e+01	   2.8588209e-01	   8.0774324e-02	
   8.5250000e+01	   2.7654535e-01	   7.3301769e-02	
   8.5305000e+01	   2.6703275e-01	   6.5824382e-02	
   8.5360000e+01	   2.5745505e-01	   5.8388946e-02	
   8.5415000e+01	   2.4790344e-01	   5.1039981e-02	
   8.5470000e+01	   2.3844450e-01	   4.3818239e-02	
   8.5525000e+01	   2.2911801e-01	   3.6759014e-02	
   8.5580000e+01	   2.1993807e-01	   2.9890870e-02	
   8.5635000e+01	   2.1089767e-01	   2.3235613e-02	
   8.5690000e+01	   2.0197523e-01	   1.6809206e-02	
   8.5745000e+01	   1.9314081e-01	   1.0622682e-02	
   8.5800000e+01	   1.8436021e-01	   4.6827191e-03	
   8.5855000e+01	   1.7559743e-01	  -1.0077034e-03	
   8.5910000e+01	   1.6681633e-01	  -6.4484352e-03	
   8.5965000e+01	   1.5798194e-01	  -1.1641461e-02	
   8.6020000e+01	   1.4906103e-01	  -1.6590668e-02	
   8.6075000e+01	   1.4002211e-01	  -2.1301921e-02	
   8.6130000e+01	   1.3083490e-01	  -2.5783226e-02	
   8.6185000e+01	   1.2147004e-01	  -3.0044823e-02	
   8.6240000e+01	   1.1189901e-01	  -3.4099005e-02	
   8.6295000e+01	   1.0209391e-01	  -3.7959560e-02	
   8.6350000e+01	   9.2027489e-02	  -4.1640983e-02	
   8.6405000e+01	   8.1674075e-02	  -4.5157545e-02	
   8.6460000e+01	   7.1012338e-02	  -4.8522002e-02	
   8.6515000e+01	   6.0029403e-02	  -5.1743860e-02	
   8.6570000e+01	   4.8724810e-02	  -5.4827738e-02	
   8.6625000e+01	   3.7112806e-02	  -5.7772737e-02	
   8.6680000e+01	   2.5222667e-02	  -6.0573123e-02	
   8.6735000e+01	   1.3097900e-02	  -6.3219982e-02	
   8.6790000e+01	   7.9474386e-04	  -6.5703885e-02	
   8.6845000e+01	  -1.1620407e-02	  -6.8018592e-02	
   8.6900000e+01	  -2.4074851e-02	  -7.0164931e-02	
   8.6955000e+01	  -3.6494280e-02	  -7.2153689e-02	
   8.7010000e+01	  -4.8808006e-02	  -7.4007339e-02	
   8.7065000e+01	  -6.0953872e-02	  -7.5760622e-02	
   8.7120000e+01	  -7.2881038e-02	  -7.7459171e-02	
   8.7175000e+01	  -8.4549404e-02	  -7.9155610e-02	
   8.7230000e+01	  -9.5926344e-02	  -8.0903920e-02	
   8.7285000e+01	  -1.0698214e-01	  -8.2753426e-02	
   8.7340000e+01	  -1.1768477e-01	  -8.4743188e-02	
   8.7395000e+01	  -1.2799472e-01	  -8.6897272e-02	
   8.7450000e+01	  -1.3786086e-01	  -8.9221431e-02	
   8.7505000e+01	  -1.4721895e-01	  -9.1701493e-02	
   8.7560000e+01	  -1.5599333e-01	  -9.4303397e-02	
   8.7615000e+01	  -1.6410184e-01	  -9.6974849e-02	
   8.7670000e+01	  -1.7146296e-01	  -9.9648603e-02	
   8.7725000e+01	  -1.7800426e-01	  -1.0224728e-01	
   8.7780000e+01	  -1.8367115e-01	  -1.0468906e-01	
   8.7835000e+01	  -1.8843473e-01	  -1.0689329e-01	
   8.7890000e+01	  -1.9229696e-01	  -1.0878546e-01	
   8.7945000e+01	  -1.9529208e-01	  -1.1030154e-01	
   8.8000000e+01	  -1.9748416e-01	  -1.1139145e-01	
   8.8055000e+01	  -1.9896126e-01	  -1.1202105e-01	
   8.8110000e+01	  -1.9982731e-01	  -1.1217262e-01	
   8.8165000e+01	  -2.0019337e-01	  -1.1184375e-01	
   8.8220000e+01	  -2.0016936e-01	  -1.1104526e-01	
   8.8275000e+01	  -1.9985708e-01	  -1.0979811e-01	
   8.8330000e+01	  -1.9934448e-01	  -1.0812989e-01	
   8.8385000e+01	  -1.9870191e-01	  -1.0607159e-01	
   8.8440000e+01	  -1.9798063e-01	  -1.0365500e-01	
   8.8495000e+01	  -1.9721364e-01	  -1.0091096e-01	
   8.8550000e+01	  -1.9641861e-01	  -9.7868554e-02	
   8.8605000e+01	  -1.9560249e-01	  -9.4556112e-02	
   8.8660000e+01	  -1.9476652e-01	  -9.1003418e-02	
   8.8715000e+01	  -1.9391039e-01	  -8.7243849e-02	
   8.8770000e+01	  -1.9303473e-01	  -8.3315695e-02	
   8.8825000e+01	  -1.9214244e-01	  -7.9262756e-02	
   8.8880000e+01	  -1.9123869e-01	  -7.5134208e-02	
   8.8935000e+01	  -1.9032994e-01	  -7.0983513e-02	
   8.8990000e+01	  -1.8942256e-01	  -6.6866470e-02	
   8.9045000e+01	  -1.8852146e-01	  -6.2838601e-02	
   8.9100000e+01	  -1.8762889e-01	  -5.8951963e-02	
   8.9155000e+01	  -1.8674412e-01	  -5.5251811e-02	
   8.9210000e+01	  -1.8586458e-01	  -5.1774192e-02	
   8.9265000e+01	  -1.8498848e-01	  -4.8545026e-02	
   8.9320000e+01	  -1.8411720e-01	  -4.5580060e-02	
   8.9375000e+01	  -1.8325580e-01	  -4.2884797e-02	
   8.9430000e+01	  -1.8241225e-01	  -4.0454610e-02	
   8.9485000e+01	  -1.8159662e-01	  -3.8275760e-02	
   8.9540000e+01	  -1.8082043e-01	  -3.6327341e-02	
   8.9595000e+01	  -1.8009571e-01	  -3.4583468e-02	
   8.9650000e+01	  -1.7943336e-01	  -3.3015150e-02	
   8.9705000e+01	  -1.7884124e-01	  -3.1591419e-02	
   8.9760000e+01	  -1.7832209e-01	  -3.0279426e-02	
   8.9815000e+01	  -1.7787179e-01	  -2.9043980e-02	
   8.9870000e+01	  -1.7747882e-01	  -2.7847678e-02	
   8.9925000e+01	  -1.7712493e-01	  -2.6652076e-02	
   8.9980000e+01	  -1.7678676e-01	  -2.5419241e-02	
   9.0035000e+01	  -1.7643761e-01	  -2.4113302e-02	
   9.0090000e+01	  -1.7604954e-01	  -2.2702110e-02	
   9.0145000e+01	  -1.7559539e-01	  -2.1158656e-02	
   9.0200000e+01	  -1.7505001e-01	  -1.9461497e-02	
   9.0255000e+01	  -1.7439088e-01	  -1.7594482e-02	
   9.0310000e+01	  -1.7359863e-01	  -1.5547111e-02	
   9.0365000e+01	  -1.7265855e-01	  -1.3316294e-02	
   9.0420000e+01	  -1.7156294e-01	  -1.0908968e-02	
   9.0475000e+01	  -1.7031312e-01	  -8.3444981e-03	
   9.0530000e+01	  -1.6892044e-01	  -5.6559504e-03	
   9.0585000e+01	  -1.6740553e-01	  -2.8892992e-03	
   9.0640000e+01	  -1.6579570e-01	  -9.9872995e-05	
   9.0695000e+01	  -1.6412090e-01	   2.6534591e-03	
   9.0750000e+01	  -1.6240954e-01	   5.3146907e-03	
   9.0805000e+01	  -1.6068558e-01	   7.8362246e-03	
   9.0860000e+01	  -1.5896718e-01	   1.0182997e-02	
   9.0915000e+01	  -1.5726676e-01	   1.2334976e-02	
   9.0970000e+01	  -1.5559170e-01	   1.4288043e-02	
   9.1025000e+01	  -1.5394490e-01	   1.6053681e-02	
   9.1080000e+01	  -1.5232493e-01	   1.7657774e-02	
   9.1135000e+01	  -1.5072653e-01	   1.9138128e-02	
   9.1190000e+01	  -1.4914265e-01	   2.0540242e-02	
   9.1245000e+01	  -1.4756742e-01	   2.1911988e-02	
   9.1300000e+01	  -1.4599883e-01	   2.3298519e-02	
   9.1355000e+01	  -1.4444005e-01	   2.4737996e-02	
   9.1410000e+01	  -1.4289959e-01	   2.6258096e-02	
   9.1465000e+01	  -1.4139003e-01	   2.7873587e-02	
   9.1520000e+01	  -1.3992480e-01	   2.9585458e-02	
   9.1575000e+01	  -1.3851309e-01	   3.1381598e-02	
   9.1630000e+01	  -1.3715419e-01	   3.3238838e-02	
   9.1685000e+01	  -1.3583252e-01	   3.5126409e-02	
   9.1740000e+01	  -1.3451518e-01	   3.7010355e-02	
   9.1795000e+01	  -1.3315301e-01	   3.8857424e-02	
   9.1850000e+01	  -1.3168608e-01	   4.0636942e-02	
   9.1905000e+01	  -1.3005276e-01	   4.2320446e-02	
   9.1960000e+01	  -1.2820063e-01	   4.3880180e-02	
   9.2015000e+01	  -1.2609686e-01	   4.5287636e-02	
   9.2070000e+01	  -1.2373653e-01	   4.6512431e-02	
   9.2125000e+01	  -1.2114766e-01	   4.7521586e-02	
   9.2180000e+01	  -1.1839205e-01	   4.8279375e-02	
   9.2235000e+01	  -1.1556187e-01	   4.8747735e-02	
   9.2290000e+01	  -1.1277311e-01	   4.8886969e-02	
   9.2345000e+01	  -1.1015755e-01	   4.8656938e-02	
   9.2400000e+01	  -1.0785394e-01	   4.8019179e-02	
   9.2455000e+01	  -1.0599905e-01	   4.6939835e-02	
   9.2510000e+01	  -1.0471871e-01	   4.5392719e-02	
   9.2565000e+01	  -1.0411898e-01	   4.3362296e-02	
   9.2620000e+01	  -1.0427810e-01	   4.0846394e-02	
   9.2675000e+01	  -1.0524064e-01	   3.7857821e-02	
   9.2730000e+01	  -1.0701575e-01	   3.4424022e-02	
   9.2785000e+01	  -1.0957937e-01	   3.0585052e-02	
   9.2840000e+01	  -1.1287950e-01	   2.6390715e-02	
   9.2895000e+01	  -1.1684374e-01	   2.1896921e-02	
   9.2950000e+01	  -1.2138859e-01	   1.7161033e-02	
   9.3005000e+01	  -1.2642914e-01	   1.2236853e-02	
   9.3060000e+01	  -1.3188726e-01	   7.1704624e-03	
   9.3115000e+01	  -1.3769642e-01	   1.9974832e-03	
   9.3170000e+01	  -1.4380291e-01	  -3.2580924e-03	
   9.3225000e+01	  -1.5016365e-01	  -8.5830907e-03	
   9.3280000e+01	  -1.5674078e-01	  -1.3972213e-02	
   9.3335000e+01	  -1.6349493e-01	  -1.9423790e-02	
   9.3390000e+01	  -1.7037945e-01	  -2.4935403e-02	
   9.3445000e+01	  -1.7733754e-01	  -3.0500035e-02	
   9.3500000e+01	  -1.8430170e-01	  -3.6103193e-02	
   9.3555000e+01	  -1.9119538e-01	  -4.1721776e-02	
   9.3610000e+01	  -1.9793654e-01	  -4.7324958e-02	
   9.3665000e+01	  -2.0444188e-01	  -5.2876171e-02	
   9.3720000e+01	  -2.1063038e-01	  -5.8335306e-02	
   9.3775000e+01	  -2.1642575e-01	  -6.3661386e-02	
   9.3830000e+01	  -2.2175856e-01	  -6.8815968e-02	
   9.3885000e+01	  -2.2656836e-01	  -7.3766029e-02	
   9.3940000e+01	  -2.3080458e-01	  -7.8484911e-02	
   9.3995000e+01	  -2.3442626e-01	  -8.2951434e-02	
   9.4050000e+01	  -2.3740138e-01	  -8.7148300e-02	
   9.4105000e+01	  -2.3970653e-01	  -9.1060606e-02	
   9.4160000e+01	  -2.4132761e-01	  -9.4675050e-02	
   9.4215000e+01	  -2.4226194e-01	  -9.7980225e-02	
   9.4270000e+01	  -2.4252093e-01	  -1.0096753e-01	
   9.4325000e+01	  -2.4213145e-01	  -1.0363164e-01	
   9.4380000e+01	  -2.4113440e-01	  -1.0597010e-01	
   9.4435000e+01	  -2.3958123e-01	  -1.0798280e-01	
   9.4490000e+01	  -2.3753053e-01	  -1.0967201e-01	
   9.4545000e+01	  -2.3504562e-01	  -1.1104299e-01	
   9.4600000e+01	  -2.3219225e-01	  -1.1210455e-01	
   9.4655000e+01	  -2.2903526e-01	  -1.1286928e-01	
   9.4710000e+01	  -2.2563454e-01	  -1.1335350e-01	
   9.4765000e+01	  -2.2204109e-01	  -1.1357726e-01	
   9.4820000e+01	  -2.1829408e-01	  -1.1356378e-01	
   9.4875000e+01	  -2.1441925e-01	  -1.1333820e-01	
   9.4930000e+01	  -2.1042833e-01	  -1.1292590e-01	
   9.4985000e+01	  -2.0631873e-01	  -1.1235074e-01	
   9.5040000e+01	  -2.0207395e-01	  -1.1163411e-01	
   9.5095000e+01	  -1.9766604e-01	  -1.1079520e-01	
   9.5150000e+01	  -1.9306053e-01	  -1.0985217e-01	
   9.5205000e+01	  -1.8822249e-01	  -1.0882345e-01	
   9.5260000e+01	  -1.8312246e-01	  -1.0772887e-01	
   9.5315000e+01	  -1.7774166e-01	  -1.0659110e-01	
   9.5370000e+01	  -1.7207623e-01	  -1.0543708e-01	
   9.5425000e+01	  -1.6613994e-01	  -1.0429849e-01	
   9.5480000e+01	  -1.5996471e-01	  -1.0321117e-01	
   9.5535000e+01	  -1.5359916e-01	  -1.0221378e-01	
   9.5590000e+01	  -1.4710567e-01	  -1.0134618e-01	
   9.5645000e+01	  -1.4055732e-01	  -1.0064727e-01	
   9.5700000e+01	  -1.3403549e-01	  -1.0015212e-01	
   9.5755000e+01	  -1.2762830e-01	  -9.9888754e-02	
   9.5810000e+01	  -1.2142874e-01	  -9.9875068e-02	
   9.5865000e+01	  -1.1553073e-01	  -1.0011632e-01	
   9.5920000e+01	  -1.1002297e-01	  -1.0060344e-01	
   9.5975000e+01	  -1.0498261e-01	  -1.0131253e-01	
   9.6030000e+01	  -1.0047090e-01	  -1.0220597e-01	
   9.6085000e+01	  -9.6531539e-02	  -1.0323464e-01	
   9.6140000e+01	  -9.3190804e-02	  -1.0434093e-01	
   9.6195000e+01	  -9.0459156e-02	  -1.0546265e-01	
   9.6250000e+01	  -8.8334104e-02	  -1.0653810e-01	
   9.6305000e+01	  -8.6803769e-02	  -1.0751195e-01	
   9.6360000e+01	  -8.5850552e-02	  -1.0834114e-01	
   9.6415000e+01	  -8.5454830e-02	  -1.0900004e-01	
   9.6470000e+01	  -8.5598024e-02	  -1.0948385e-01	
   9.6525000e+01	  -8.6263580e-02	  -1.0980869e-01	
   9.6580000e+01	  -8.7435129e-02	  -1.1000804e-01	
   9.6635000e+01	  -8.9092838e-02	  -1.1012669e-01	
   9.6690000e+01	  -9.1209543e-02	  -1.1021401e-01	
   9.6745000e+01	  -9.3747584e-02	  -1.1031787e-01	
   9.6800000e+01	  -9.6657026e-02	  -1.1048031e-01	
   9.6855000e+01	  -9.9875920e-02	  -1.1073572e-01	
   9.6910000e+01	  -1.0333239e-01	  -1.1111111e-01	
   9.6965000e+01	  -1.0694761e-01	  -1.1162729e-01	
   9.7020000e+01	  -1.1063925e-01	  -1.1230005e-01	
   9.7075000e+01	  -1.1432535e-01	  -1.1314113e-01	
   9.7130000e+01	  -1.1792828e-01	  -1.1415868e-01	
   9.7185000e+01	  -1.2137764e-01	  -1.1535738e-01	
   9.7240000e+01	  -1.2461217e-01	  -1.1673856e-01	
   9.7295000e+01	  -1.2758106e-01	  -1.1830045e-01	
   9.7350000e+01	  -1.3024456e-01	  -1.2003773e-01	
   9.7405000e+01	  -1.3257292e-01	  -1.2193977e-01	
   9.7460000e+01	  -1.3454426e-01	  -1.2398853e-01	
   9.7515000e+01	  -1.3614252e-01	  -1.2615732e-01	
   9.7570000e+01	  -1.3735606e-01	  -1.2841081e-01	
   9.7625000e+01	  -1.3817634e-01	  -1.3070544e-01	
   9.7680000e+01	  -1.3859629e-01	  -1.3299015e-01	
   9.7735000e+01	  -1.3860900e-01	  -1.3520772e-01	
   9.7790000e+01	  -1.3820621e-01	  -1.3729698e-01	
   9.7845000e+01	  -1.3737675e-01	  -1.3919607e-01	
   9.7900000e+01	  -1.3610549e-01	  -1.4084681e-01	
   9.7955000e+01	  -1.3437355e-01	  -1.4219941e-01	
   9.8010000e+01	  -1.3215903e-01	  -1.4321611e-01	
   9.8065000e+01	  -1.2943675e-01	  -1.4387281e-01	
   9.8120000e+01	  -1.2617698e-01	  -1.4415878e-01	
   9.8175000e+01	  -1.2234407e-01	  -1.4407517e-01	
   9.8230000e+01	  -1.1789620e-01	  -1.4363306e-01	
   9.8285000e+01	  -1.1278650e-01	  -1.4285148e-01	
   9.8340000e+01	  -1.0696579e-01	  -1.4175577e-01	
   9.8395000e+01	  -1.0038635e-01	  -1.4037619e-01	
   9.8450000e+01	  -9.3006101e-02	  -1.3874625e-01	
   9.8505000e+01	  -8.4792624e-02	  -1.3690084e-01	
   9.8560000e+01	  -7.5727457e-02	  -1.3487475e-01	
   9.8615000e+01	  -6.5810429e-02	  -1.3270224e-01	
   9.8670000e+01	  -5.5063069e-02	  -1.3041732e-01	
   9.8725000e+01	  -4.3529822e-02	  -1.2805433e-01	
   9.8780000e+01	  -3.1276862e-02	  -1.2564781e-01	
   9.8835000e+01	  -1.8389157e-02	  -1.2323178e-01	
   9.8890000e+01	  -4.9665544e-03	  -1.2083817e-01	
   9.8945000e+01	   8.8801288e-03	  -1.1849484e-01	
   9.9000000e+01	   2.3031994e-02	  -1.1622365e-01	
   9.9055000e+01	   3.7364047e-02	  -1.1403898e-01	
   9.9110000e+01	   5.1747384e-02	  -1.1194603e-01	
   9.9165000e+01	   6.6052363e-02	  -1.0993887e-01	
   9.9220000e+01	   8.0152676e-02	  -1.0799844e-01	
   9.9275000e+01	   9.3929885e-02	  -1.0609158e-01	
   9.9330000e+01	   1.0727782e-01	  -1.0417171e-01	
   9.9385000e+01	   1.2010585e-01	  -1.0218118e-01	
   9.9440000e+01	   1.3234029e-01	  -1.0005532e-01	
   9.9495000e+01	   1.4392447e-01	  -9.7727456e-02	
   9.9550000e+01	   1.5481914e-01	  -9.5133556e-02	
   9.9605000e+01	   1.6500316e-01	  -9.2215756e-02	
   9.9660000e+01	   1.7447384e-01	  -8.8924434e-02	
   9.9715000e+01	   1.8324686e-01	  -8.5218832e-02	
   9.9770000e+01	   1.9135646e-01	  -8.1066126e-02	
   9.9825000e+01	   1.9885527e-01	  -7.6439526e-02	
   9.9880000e+01	   2.0581314e-01	  -7.1316515e-02	
   9.9935000e+01	   2.1231461e-01	  -6.5678080e-02	
   9.9990000e+01	   2.1845506e-01	  -5.9509263e-02	
   1.0004500e+02	   2.2433611e-01	  -5.2801098e-02	
   1.0010000e+02	   2.3006015e-01	  -4.5554032e-02	
   1.0015500e+02	   2.3572471e-01	  -3.7782586e-02	
   1.0021000e+02	   2.4141760e-01	  -2.9520137e-02	
   1.0026500e+02	   2.4721422e-01	  -2.0822277e-02	
   1.0032000e+02	   2.5317721e-01	  -1.1767860e-02	
   1.0037500e+02	   2.5935728e-01	  -2.4576655e-03	
   1.0043000e+02	   2.6579485e-01	   6.9890549e-03	
   1.0048500e+02	   2.7252177e-01	   1.6439572e-02	
   1.0054000e+02	   2.7956225e-01	   2.5753454e-02	
   1.0059500e+02	   2.8693311e-01	   3.4788836e-02	
   1.0065000e+02	   2.9464391e-01	   4.3409216e-02	
   1.0070500e+02	   3.0269737e-01	   5.1490385e-02	
   1.0076000e+02	   3.1108997e-01	   5.8926562e-02	
   1.0081500e+02	   3.1981269e-01	   6.5635174e-02	
   1.0087000e+02	   3.2885206e-01	   7.1559979e-02	
   1.0092500e+02	   3.3819058e-01	   7.6672017e-02	
   1.0098000e+02	   3.4780612e-01	   8.0968050e-02	
   1.0103500e+02	   3.5767137e-01	   8.4467225e-02	
   1.0109000e+02	   3.6775537e-01	   8.7207164e-02	
   1.0114500e+02	   3.7802754e-01	   8.9240211e-02	
   1.0120000e+02	   3.8846270e-01	   9.0630225e-02	
   1.0125500e+02	   3.9904515e-01	   9.1450447e-02	
   1.0131000e+02	   4.0977094e-01	   9.1782579e-02	
   1.0136500e+02	   4.2064774e-01	   9.1716491e-02	
   1.0142000e+02	   4.3169170e-01	   9.1349653e-02	
   1.0147500e+02	   4.4292131e-01	   9.0785604e-02	
   1.0153000e+02	   4.5434956e-01	   9.0130862e-02	
   1.0158500e+02	   4.6597555e-01	   8.9490102e-02	
   1.0164000e+02	   4.7777679e-01	   8.8960307e-02	
   1.0169500e+02	   4.8970400e-01	   8.8625262e-02	
   1.0175000e+02	   5.0167951e-01	   8.8551211e-02	
   1.0180500e+02	   5.1359907e-01	   8.8783745e-02	
   1.0186000e+02	   5.2533631e-01	   8.9345991e-02	
   1.0191500e+02	   5.3674918e-01	   9.0238363e-02	
   1.0197000e+02	   5.4768757e-01	   9.1439625e-02	
   1.0202500e+02	   5.5800079e-01	   9.2908692e-02	
   1.0208000e+02	   5.6754444e-01	   9.4587399e-02	
   1.0213500e+02	   5.7618734e-01	   9.6405051e-02	
   1.0219000e+02	   5.8381878e-01	   9.8284669e-02	
   1.0224500e+02	   5.9035482e-01	   1.0014951e-01	
   1.0230000e+02	   5.9574267e-01	   1.0192865e-01	
   1.0235500e+02	   5.9996313e-01	   1.0356145e-01	
   1.0241000e+02	   6.0303107e-01	   1.0500082e-01	
   1.0246500e+02	   6.0499250e-01	   1.0621486e-01	
   1.0252000e+02	   6.0591805e-01	   1.0718673e-01	
   1.0257500e+02	   6.0589485e-01	   1.0791326e-01	
   1.0263000e+02	   6.0501854e-01	   1.0840286e-01	
   1.0268500e+02	   6.0338695e-01	   1.0867290e-01	
   1.0274000e+02	   6.0109647e-01	   1.0874713e-01	
   1.0279500e+02	   5.9824091e-01	   1.0865367e-01	
   1.0285000e+02	   5.9491177e-01	   1.0842365e-01	
   1.0290500e+02	   5.9119930e-01	   1.0809085e-01	
   1.0296000e+02	   5.8719477e-01	   1.0769239e-01	
   1.0301500e+02	   5.8299481e-01	   1.0727064e-01	
   1.0307000e+02	   5.7870574e-01	   1.0687508e-01	
   1.0312500e+02	   5.7444545e-01	   1.0656275e-01	
   1.0318000e+02	   5.7034183e-01	   1.0639674e-01	
   1.0323500e+02	   5.6652870e-01	   1.0644310e-01	
   1.0329000e+02	   5.6314030e-01	   1.0676664e-01	
   1.0334500e+02	   5.6030514e-01	   1.0742624e-01	
   1.0340000e+02	   5.5813966e-01	   1.0846985e-01	
   1.0345500e+02	   5.5674210e-01	   1.0992993e-01	
   1.0351000e+02	   5.5618647e-01	   1.1181937e-01	
   1.0356500e+02	   5.5651719e-01	   1.1412880e-01	
   1.0362000e+02	   5.5774511e-01	   1.1682579e-01	
   1.0367500e+02	   5.5984673e-01	   1.1985618e-01	
   1.0373000e+02	   5.6276705e-01	   1.2314743e-01	
   1.0378500e+02	   5.6642548e-01	   1.2661316e-01	
   1.0384000e+02	   5.7072302e-01	   1.3015880e-01	
   1.0389500e+02	   5.7554912e-01	   1.3368779e-01	
   1.0395000e+02	   5.8078715e-01	   1.3710789e-01	
   1.0400500e+02	   5.8631812e-01	   1.4033644e-01	
   1.0406000e+02	   5.9202298e-01	   1.4330408e-01	
   1.0411500e+02	   5.9778425e-01	   1.4595665e-01	
   1.0417000e+02	   6.0348733e-01	   1.4825586e-01	
   1.0422500e+02	   6.0902200e-01	   1.5017899e-01	
   1.0428000e+02	   6.1428451e-01	   1.5171828e-01	
   1.0433500e+02	   6.1918134e-01	   1.5288037e-01	
   1.0439000e+02	   6.2363461e-01	   1.5368575e-01	
   1.0444500e+02	   6.2758667e-01	   1.5416776e-01	
   1.0450000e+02	   6.3100160e-01	   1.5437119e-01	
   1.0455500e+02	   6.3386318e-01	   1.5435048e-01	
   1.0461000e+02	   6.3617047e-01	   1.5416732e-01	
   1.0466500e+02	   6.3793222e-01	   1.5388726e-01	
   1.0472000e+02	   6.3916182e-01	   1.5357583e-01	
   1.0477500e+02	   6.3987461e-01	   1.5329523e-01	
   1.0483000e+02	   6.4008844e-01	   1.5310149e-01	
   1.0488500e+02	   6.3982574e-01	   1.5304197e-01	
   1.0494000e+02	   6.3911539e-01	   1.5315302e-01	
   1.0499500e+02	   6.3799343e-01	   1.5345836e-01	
   1.0505000e+02	   6.3650374e-01	   1.5396801e-01	
   1.0510500e+02	   6.3469907e-01	   1.5467818e-01	
   1.0516000e+02	   6.3264235e-01	   1.5557279e-01	
   1.0521500e+02	   6.3040730e-01	   1.5662673e-01	
   1.0527000e+02	   6.2807717e-01	   1.5780960e-01	
   1.0532500e+02	   6.2574155e-01	   1.5908919e-01	
   1.0538000e+02	   6.2349207e-01	   1.6043447e-01	
   1.0543500e+02	   6.2141804e-01	   1.6181872e-01	
   1.0549000e+02	   6.1960227e-01	   1.6322243e-01	
   1.0554500e+02	   6.1811730e-01	   1.6463556e-01	
   1.0560000e+02	   6.1702272e-01	   1.6605854e-01	
   1.0565500e+02	   6.1636423e-01	   1.6750174e-01	
   1.0571000e+02	   6.1617380e-01	   1.6898338e-01	
   1.0576500e+02	   6.1646936e-01	   1.7052597e-01	
   1.0582000e+02	   6.1725342e-01	   1.7215211e-01	
   1.0587500e+02	   6.1851178e-01	   1.7388028e-01	
   1.0593000e+02	   6.2021437e-01	   1.7572111e-01	
   1.0598500e+02	   6.2231870e-01	   1.7767474e-01	
   1.0604000e+02	   6.2477548e-01	   1.7973015e-01	
   1.0609500e+02	   6.2753519e-01	   1.8186676e-01	
   1.0615000e+02	   6.3055398e-01	   1.8405772e-01	
   1.0620500e+02	   6.3379779e-01	   1.8627398e-01	
   1.0626000e+02	   6.3724438e-01	   1.8848841e-01	
   1.0631500e+02	   6.4088319e-01	   1.9067905e-01	
   1.0637000e+02	   6.4471231e-01	   1.9283040e-01	
   1.0642500e+02	   6.4873126e-01	   1.9493259e-01	
   1.0648000e+02	   6.5293068e-01	   1.9697885e-01	
   1.0653500e+02	   6.5728095e-01	   1.9896147e-01	
   1.0659000e+02	   6.6172258e-01	   2.0086711e-01	
   1.0664500e+02	   6.6616048e-01	   2.0267264e-01	
   1.0670000e+02	   6.7046325e-01	   2.0434294e-01	
   1.0675500e+02	   6.7446693e-01	   2.0583053e-01	
   1.0681000e+02	   6.7798140e-01	   2.0707620e-01	
   1.0686500e+02	   6.8079876e-01	   2.0801076e-01	
   1.0692000e+02	   6.8270357e-01	   2.0855783e-01	
   1.0697500e+02	   6.8348456e-01	   2.0863797e-01	
   1.0703000e+02	   6.8294657e-01	   2.0817372e-01	
   1.0708500e+02	   6.8092199e-01	   2.0709533e-01	
   1.0714000e+02	   6.7728080e-01	   2.0534648e-01	
   1.0719500e+02	   6.7193840e-01	   2.0288913e-01	
   1.0725000e+02	   6.6486048e-01	   1.9970618e-01	
   1.0730500e+02	   6.5606385e-01	   1.9580192e-01	
   1.0736000e+02	   6.4561295e-01	   1.9120096e-01	
   1.0741500e+02	   6.3361294e-01	   1.8594624e-01	
   1.0747000e+02	   6.2020073e-01	   1.8009597e-01	
   1.0752500e+02	   6.0553551e-01	   1.7371950e-01	
   1.0758000e+02	   5.8978927e-01	   1.6689242e-01	
   1.0763500e+02	   5.7313815e-01	   1.5969154e-01	
   1.0769000e+02	   5.5575448e-01	   1.5219030e-01	
   1.0774500e+02	   5.3779993e-01	   1.4445522e-01	
   1.0780000e+02	   5.1942083e-01	   1.3654391e-01	
   1.0785500e+02	   5.0074591e-01	   1.2850500e-01	
   1.0791000e+02	   4.8188628e-01	   1.2037984e-01	
   1.0796500e+02	   4.6293753e-01	   1.1220586e-01	
   1.0802000e+02	   4.4398292e-01	   1.0402039e-01	
   1.0807500e+02	   4.2509606e-01	   9.5863238e-02	
   1.0813000e+02	   4.0634164e-01	   8.7777081e-02	
   1.0818500e+02	   3.8777467e-01	   7.9806181e-02	
   1.0824000e+02	   3.6943962e-01	   7.1994503e-02	
   1.0829500e+02	   3.5136975e-01	   6.4383605e-02	
   1.0835000e+02	   3.3358590e-01	   5.7010074e-02	
   1.0840500e+02	   3.1609499e-01	   4.9902819e-02	
   1.0846000e+02	   2.9888939e-01	   4.3080976e-02	
   1.0851500e+02	   2.8194836e-01	   3.6552953e-02	
   1.0857000e+02	   2.6524172e-01	   3.0316890e-02	
   1.0862500e+02	   2.4873510e-01	   2.4362927e-02	
   1.0868000e+02	   2.3239516e-01	   1.8677059e-02	
   1.0873500e+02	   2.1619362e-01	   1.3245020e-02	
   1.0879000e+02	   2.0010833e-01	   8.0544508e-03	
   1.0884500e+02	   1.8412207e-01	   3.0951019e-03	
   1.0890000e+02	   1.6822079e-01	  -1.6418258e-03	
   1.0895500e+02	   1.5239258e-01	  -6.1644110e-03	
   1.0901000e+02	   1.3662739e-01	  -1.0480751e-02	
   1.0906500e+02	   1.2091759e-01	  -1.4599666e-02	
   1.0912000e+02	   1.0525926e-01	  -1.8531408e-02	
   1.0917500e+02	   8.9653758e-02	  -2.2288717e-02	
   1.0923000e+02	   7.4109315e-02	  -2.5888114e-02	
   1.0928500e+02	   5.8643045e-02	  -2.9350572e-02	
   1.0934000e+02	   4.3283638e-02	  -3.2701059e-02	
   1.0939500e+02	   2.8073891e-02	  -3.5967281e-02	
   1.0945000e+02	   1.3072583e-02	  -3.9177794e-02	
   1.0950500e+02	  -1.6443270e-03	  -4.2359217e-02	
   1.0956000e+02	  -1.5983783e-02	  -4.5532766e-02	
   1.0961500e+02	  -2.9837940e-02	  -4.8710994e-02	
   1.0967000e+02	  -4.3088424e-02	  -5.1895123e-02	
   1.0972500e+02	  -5.5611363e-02	  -5.5072856e-02	
   1.0978000e+02	  -6.7282827e-02	  -5.8217013e-02	
   1.0983500e+02	  -7.7985261e-02	  -6.1285939e-02	
   1.0989000e+02	  -8.7614880e-02	  -6.4225958e-02	
   1.0994500e+02	  -9.6088985e-02	  -6.6975357e-02	
   1.1000000e+02	  -1.0335247e-01	  -6.9469378e-02	
   1.1005500e+02	  -1.0938367e-01	  -7.1646021e-02	
   1.1011000e+02	  -1.1419919e-01	  -7.3452139e-02	
   1.1016500e+02	  -1.1785626e-01	  -7.4848704e-02	
   1.1022000e+02	  -1.2045090e-01	  -7.5814620e-02	
   1.1027500e+02	  -1.2211218e-01	  -7.6349337e-02	
   1.1033000e+02	  -1.2299391e-01	  -7.6474068e-02	
   1.1038500e+02	  -1.2326481e-01	  -7.6230543e-02	
   1.1044000e+02	  -1.2309838e-01	  -7.5676986e-02	
   1.1049500e+02	  -1.2266334e-01	  -7.4882349e-02	
   1.1055000e+02	  -1.2211508e-01	  -7.3919666e-02	
   1.1060500e+02	  -1.2158809e-01	  -7.2858977e-02	
   1.1066000e+02	  -1.2119086e-01	  -7.1761016e-02	
   1.1071500e+02	  -1.2100435e-01	  -7.0673534e-02	
   1.1077000e+02	  -1.2108437e-01	  -6.9631016e-02	
   1.1082500e+02	  -1.2146612e-01	  -6.8656878e-02	
   1.1088000e+02	  -1.2217005e-01	  -6.7766985e-02	
   1.1093500e+02	  -1.2320870e-01	  -6.6973864e-02	
   1.1099000e+02	  -1.2459379e-01	  -6.6291161e-02	
   1.1104500e+02	  -1.2634246e-01	  -6.5737568e-02	
   1.1110000e+02	  -1.2848182e-01	  -6.5339129e-02	
   1.1115500e+02	  -1.3105130e-01	  -6.5128919e-02	
   1.1121000e+02	  -1.3410219e-01	  -6.5143932e-02	
   1.1126500e+02	  -1.3769428e-01	  -6.5420209e-02	
   1.1132000e+02	  -1.4189036e-01	  -6.5987707e-02	
   1.1137500e+02	  -1.4675025e-01	  -6.6866018e-02	
   1.1143000e+02	  -1.5232586e-01	  -6.8061292e-02	
   1.1148500e+02	  -1.5865811e-01	  -6.9564449e-02	
   1.1154000e+02	  -1.6577518e-01	  -7.1350827e-02	
   1.1159500e+02	  -1.7369201e-01	  -7.3381392e-02	
   1.1165000e+02	  -1.8241037e-01	  -7.5605319e-02	
   1.1170500e+02	  -1.9191928e-01	  -7.7963580e-02	
   1.1176000e+02	  -2.0219523e-01	  -8.0393257e-02	
   1.1181500e+02	  -2.1320149e-01	  -8.2832124e-02	
   1.1187000e+02	  -2.2488620e-01	  -8.5222446e-02	
   1.1192500e+02	  -2.3717949e-01	  -8.7513033e-02	
   1.1198000e+02	  -2.4999145e-01	  -8.9659586e-02	
   1.1203500e+02	  -2.6321228e-01	  -9.1624276e-02	
   1.1209000e+02	  -2.7671444e-01	  -9.3375018e-02	
   1.1214500e+02	  -2.9035553e-01	  -9.4884167e-02	
   1.1220000e+02	  -3.0398092e-01	  -9.6126664e-02	
   1.1225500e+02	  -3.1742610e-01	  -9.7078496e-02	
   1.1231000e+02	  -3.3051950e-01	  -9.7716297e-02	
   1.1236500e+02	  -3.4308687e-01	  -9.8018421e-02	
   1.1242000e+02	  -3.5495807e-01	  -9.7967706e-02	
   1.1247500e+02	  -3.6597690e-01	  -9.7555689e-02	
   1.1253000e+02	  -3.7601160e-01	  -9.6786854e-02	
   1.1258500e+02	  -3.8496267e-01	  -9.5680944e-02	
   1.1264000e+02	  -3.9276569e-01	  -9.4272381e-02	
   1.1269500e+02	  -3.9938944e-01	  -9.2607089e-02	
   1.1275000e+02	  -4.0483056e-01	  -9.0737705e-02	
   1.1280500e+02	  -4.0910661e-01	  -8.8718390e-02	
   1.1286000e+02	  -4.1224953e-01	  -8.6600586e-02	
   1.1291500e+02	  -4.1430236e-01	  -8.4430662e-02	
   1.1297000e+02	  -4.1531944e-01	  -8.2249313e-02	
   1.1302500e+02	  -4.1536818e-01	  -8.0091703e-02	
   1.1308000e+02	  -4.1452973e-01	  -7.7987801e-02	
   1.1313500e+02	  -4.1289845e-01	  -7.5963271e-02	
   1.1319000e+02	  -4.1058086e-01	  -7.4041216e-02	
   1.1324500e+02	  -4.0769496e-01	  -7.2244544e-02	
   1.1330000e+02	  -4.0436934e-01	  -7.0598776e-02	
   1.1335500e+02	  -4.0074097e-01	  -6.9135085e-02	
   1.1341000e+02	  -3.9695057e-01	  -6.7892582e-02	
   1.1346500e+02	  -3.9313565e-01	  -6.6918493e-02	
   1.1352000e+02	  -3.8942264e-01	  -6.6265584e-02	
   1.1357500e+02	  -3.8591937e-01	  -6.5986973e-02	
   1.1363000e+02	  -3.8270847e-01	  -6.6128929e-02	
   1.1368500e+02	  -3.7984240e-01	  -6.6723237e-02	
   1.1374000e+02	  -3.7734230e-01	  -6.7781532e-02	
   1.1379500e+02	  -3.7520176e-01	  -6.9293204e-02	
   1.1385000e+02	  -3.7339451e-01	  -7.1226767e-02	
   1.1390500e+02	  -3.7188291e-01	  -7.3533532e-02	
   1.1396000e+02	  -3.7062559e-01	  -7.6152759e-02	
   1.1401500e+02	  -3.6958433e-01	  -7.9017710e-02	
   1.1407000e+02	  -3.6873011e-01	  -8.2061713e-02	
   1.1412500e+02	  -3.6804725e-01	  -8.5223063e-02	
   1.1418000e+02	  -3.6753469e-01	  -8.8448118e-02	
   1.1423500e+02	  -3.6720469e-01	  -9.1692510e-02	
   1.1429000e+02	  -3.6708026e-01	  -9.4920562e-02	
   1.1434500e+02	  -3.6719244e-01	  -9.8103419e-02	
   1.1440000e+02	  -3.6757811e-01	  -1.0121682e-01	
   1.1445500e+02	  -3.6827780e-01	  -1.0423909e-01	
   1.1451000e+02	  -3.6933260e-01	  -1.0714920e-01	
   1.1456500e+02	  -3.7077929e-01	  -1.0992464e-01	
   1.1462000e+02	  -3.7264448e-01	  -1.1253958e-01	
   1.1467500e+02	  -3.7493883e-01	  -1.1496377e-01	
   1.1473000e+02	  -3.7765329e-01	  -1.1716213e-01	
   1.1478500e+02	  -3.8075833e-01	  -1.1909517e-01	
   1.1484000e+02	  -3.8420600e-01	  -1.2072056e-01	
   1.1489500e+02	  -3.8793328e-01	  -1.2199583e-01	
   1.1495000e+02	  -3.9186565e-01	  -1.2288212e-01	
   1.1500500e+02	  -3.9592070e-01	  -1.2334854e-01	
   1.1506000e+02	  -4.0001176e-01	  -1.2337671e-01	
   1.1511500e+02	  -4.0405137e-01	  -1.2296496e-01	
   1.1517000e+02	  -4.0795441e-01	  -1.2213130e-01	
   1.1522500e+02	  -4.1164166e-01	  -1.2091521e-01	
   1.1528000e+02	  -4.1504441e-01	  -1.1937786e-01	
   1.1533500e+02	  -4.1810916e-01	  -1.1760052e-01	
   1.1539000e+02	  -4.2080094e-01	  -1.1568032e-01	
   1.1544500e+02	  -4.2310442e-01	  -1.1372414e-01	
   1.1550000e+02	  -4.2502367e-01	  -1.1184168e-01	
   1.1555500e+02	  -4.2658205e-01	  -1.1013918e-01	
   1.1561000e+02	  -4.2782274e-01	  -1.0871378e-01	
   1.1566500e+02	  -4.2880945e-01	  -1.0764894e-01	
   1.1572000e+02	  -4.2962724e-01	  -1.0701150e-01	
   1.1577500e+02	  -4.3038289e-01	  -1.0685100e-01	
   1.1583000e+02	  -4.3120424e-01	  -1.0720110e-01	
   1.1588500e+02	  -4.3223782e-01	  -1.0808240e-01	
   1.1594000e+02	  -4.3364417e-01	  -1.0950615e-01	
   1.1599500e+02	  -4.3559092e-01	  -1.1147772e-01	
   1.1605000e+02	  -4.3824383e-01	  -1.1399827e-01	
   1.1610500e+02	  -4.4175650e-01	  -1.1706440e-01	
   1.1616000e+02	  -4.4626050e-01	  -1.2066633e-01	
   1.1621500e+02	  -4.5185695e-01	  -1.2478578e-01	
   1.1627000e+02	  -4.5860974e-01	  -1.2939335e-01	
   1.1632500e+02	  -4.6654053e-01	  -1.3444610e-01	
   1.1638000e+02	  -4.7562677e-01	  -1.3988644e-01	
   1.1643500e+02	  -4.8580302e-01	  -1.4564314e-01	
   1.1649000e+02	  -4.9696464e-01	  -1.5163374e-01	
   1.1654500e+02	  -5.0897222e-01	  -1.5776743e-01	
   1.1660000e+02	  -5.2165647e-01	  -1.6394778e-01	
   1.1665500e+02	  -5.3482420e-01	  -1.7007605e-01	
   1.1671000e+02	  -5.4826596e-01	  -1.7605514e-01	
   1.1676500e+02	  -5.6176546e-01	  -1.8179404e-01	
   1.1682000e+02	  -5.7511067e-01	  -1.8721216e-01	
   1.1687500e+02	  -5.8810471e-01	  -1.9224275e-01	
   1.1693000e+02	  -6.0057416e-01	  -1.9683428e-01	
   1.1698500e+02	  -6.1237423e-01	  -2.0095012e-01	
   1.1704000e+02	  -6.2339160e-01	  -2.0456730e-01	
   1.1709500e+02	  -6.3354500e-01	  -2.0767489e-01	
   1.1715000e+02	  -6.4278347e-01	  -2.1027152e-01	
   1.1720500e+02	  -6.5108313e-01	  -2.1236259e-01	
   1.1726000e+02	  -6.5844424e-01	  -2.1395813e-01	
   1.1731500e+02	  -6.6488941e-01	  -2.1507233e-01	
   1.1737000e+02	  -6.7046310e-01	  -2.1572451e-01	
   1.1742500e+02	  -6.7523133e-01	  -2.1594095e-01	
   1.1748000e+02	  -6.7928062e-01	  -2.1575673e-01	
   1.1753500e+02	  -6.8271472e-01	  -2.1521613e-01	
   1.1759000e+02	  -6.8564885e-01	  -2.1437082e-01	
   1.1764500e+02	  -6.8820235e-01	  -2.1327648e-01	
   1.1770000e+02	  -6.9049137e-01	  -2.1198930e-01	
   1.1775500e+02	  -6.9262207e-01	  -2.1056262e-01	
   1.1781000e+02	  -6.9468435e-01	  -2.0904396e-01	
   1.1786500e+02	  -6.9674676e-01	  -2.0747295e-01	
   1.1792000e+02	  -6.9885350e-01	  -2.0588038e-01	
   1.1797500e+02	  -7.0102335e-01	  -2.0428796e-01	
   1.1803000e+02	  -7.0324985e-01	  -2.0270797e-01	
   1.1808500e+02	  -7.0550338e-01	  -2.0114316e-01	
   1.1814000e+02	  -7.0773540e-01	  -1.9958766e-01	
   1.1819500e+02	  -7.0988410e-01	  -1.9802932e-01	
   1.1825000e+02	  -7.1187987e-01	  -1.9645306e-01	
   1.1830500e+02	  -7.1364931e-01	  -1.9484506e-01	
   1.1836000e+02	  -7.1511719e-01	  -1.9319641e-01	
   1.1841500e+02	  -7.1620660e-01	  -1.9150530e-01	
   1.1847000e+02	  -7.1683857e-01	  -1.8977701e-01	
   1.1852500e+02	  -7.1693322e-01	  -1.8802243e-01	
   1.1858000e+02	  -7.1641374e-01	  -1.8625593e-01	
   1.1863500e+02	  -7.1521253e-01	  -1.8449316e-01	
   1.1869000e+02	  -7.1327740e-01	  -1.8274890e-01	
   1.1874500e+02	  -7.1057673e-01	  -1.8103588e-01	
   1.1880000e+02	  -7.0710339e-01	  -1.7936534e-01	
   1.1885500e+02	  -7.0287658e-01	  -1.7774912e-01	
   1.1891000e+02	  -6.9794091e-01	  -1.7620154e-01	
   1.1896500e+02	  -6.9236319e-01	  -1.7473971e-01	
   1.1902000e+02	  -6.8622779e-01	  -1.7338276e-01	
   1.1907500e+02	  -6.7963116e-01	  -1.7215049e-01	
   1.1913000e+02	  -6.7267543e-01	  -1.7106176e-01	
   1.1918500e+02	  -6.6546181e-01	  -1.7013286e-01	
   1.1924000e+02	  -6.5808458e-01	  -1.6937618e-01	
   1.1929500e+02	  -6.5062633e-01	  -1.6879936e-01	
   1.1935000e+02	  -6.4315436e-01	  -1.6840490e-01	
   1.1940500e+02	  -6.3571896e-01	  -1.6819030e-01	
   1.1946000e+02	  -6.2835470e-01	  -1.6814834e-01	
   1.1951500e+02	  -6.2108414e-01	  -1.6826699e-01	
   1.1957000e+02	  -6.1392221e-01	  -1.6852888e-01	
   1.1962500e+02	  -6.0687981e-01	  -1.6891087e-01	
   1.1968000e+02	  -5.9996676e-01	  -1.6938518e-01	
   1.1973500e+02	  -5.9319424e-01	  -1.6992182e-01	
   1.1979000e+02	  -5.8657612e-01	  -1.7049132e-01	
   1.1984500e+02	  -5.8012969e-01	  -1.7106713e-01	
   1.1990000e+02	  -5.7387629e-01	  -1.7162832e-01	
   1.1995500e+02	  -5.6784220e-01	  -1.7216244e-01	
   1.2001000e+02	  -5.6205929e-01	  -1.7266849e-01	
   1.2006500e+02	  -5.5656507e-01	  -1.7315922e-01	
   1.2012000e+02	  -5.5140198e-01	  -1.7366194e-01	
   1.2017500e+02	  -5.4661524e-01	  -1.7421724e-01	
   1.2023000e+02	  -5.4224911e-01	  -1.7487573e-01	
   1.2028500e+02	  -5.3834274e-01	  -1.7569375e-01	
   1.2034000e+02	  -5.3492661e-01	  -1.7672892e-01	
   1.2039500e+02	  -5.3202033e-01	  -1.7803605e-01	
   1.2045000e+02	  -5.2963229e-01	  -1.7966385e-01	
   1.2050500e+02	  -5.2776129e-01	  -1.8165281e-01	
   1.2056000e+02	  -5.2639964e-01	  -1.8403399e-01	
   1.2061500e+02	  -5.2553657e-01	  -1.8682785e-01	
   1.2067000e+02	  -5.2516093e-01	  -1.9004285e-01	
   1.2072500e+02	  -5.2526283e-01	  -1.9367419e-01	
   1.2078000e+02	  -5.2583379e-01	  -1.9770317e-01	
   1.2083500e+02	  -5.2686528e-01	  -2.0209734e-01	
   1.2089000e+02	  -5.2834576e-01	  -2.0681127e-01	
   1.2094500e+02	  -5.3025709e-01	  -2.1178813e-01	
   1.2100000e+02	  -5.3257143e-01	  -2.1696205e-01	
   1.2105500e+02	  -5.3524972e-01	  -2.2226058e-01	
   1.2111000e+02	  -5.3824244e-01	  -2.2760681e-01	
   1.2116500e+02	  -5.4149245e-01	  -2.3292160e-01	
   1.2122000e+02	  -5.4493865e-01	  -2.3812640e-01	
   1.2127500e+02	  -5.4851911e-01	  -2.4314581e-01	
   1.2133000e+02	  -5.5217296e-01	  -2.4790966e-01	
   1.2138500e+02	  -5.5584171e-01	  -2.5235458e-01	
   1.2144000e+02	  -5.5947086e-01	  -2.5642552e-01	
   1.2149500e+02	  -5.6301209e-01	  -2.6007750e-01	
   1.2155000e+02	  -5.6642532e-01	  -2.6327794e-01	
   1.2160500e+02	  -5.6968022e-01	  -2.6600937e-01	
   1.2166000e+02	  -5.7275588e-01	  -2.6827144e-01	
   1.2171500e+02	  -5.7563786e-01	  -2.7008059e-01	
   1.2177000e+02	  -5.7831278e-01	  -2.7146719e-01	
   1.2182500e+02	  -5.8076299e-01	  -2.7247134e-01	
   1.2188000e+02	  -5.8296356e-01	  -2.7313887e-01	
   1.2193500e+02	  -5.8488200e-01	  -2.7351797e-01	
   1.2199000e+02	  -5.8647977e-01	  -2.7365615e-01	
   1.2204500e+02	  -5.8771427e-01	  -2.7359764e-01	
   1.2210000e+02	  -5.8854035e-01	  -2.7338153e-01	
   1.2215500e+02	  -5.8891173e-01	  -2.7304078e-01	
   1.2221000e+02	  -5.8878302e-01	  -2.7260222e-01	
   1.2226500e+02	  -5.8811272e-01	  -2.7208784e-01	
   1.2232000e+02	  -5.8686661e-01	  -2.7151725e-01	
   1.2237500e+02	  -5.8502004e-01	  -2.7091075e-01	
   1.2243000e+02	  -5.8255845e-01	  -2.7029175e-01	
   1.2248500e+02	  -5.7947627e-01	  -2.6968786e-01	
   1.2254000e+02	  -5.7577506e-01	  -2.6913022e-01	
   1.2259500e+02	  -5.7146234e-01	  -2.6865114e-01	
   1.2265000e+02	  -5.6655179e-01	  -2.6828122e-01	
   1.2270500e+02	  -5.6106475e-01	  -2.6804676e-01	
   1.2276000e+02	  -5.5503229e-01	  -2.6796796e-01	
   1.2281500e+02	  -5.4849673e-01	  -2.6805744e-01	
   1.2287000e+02	  -5.4151154e-01	  -2.6831884e-01	
   1.2292500e+02	  -5.3413955e-01	  -2.6874607e-01	
   1.2298000e+02	  -5.2645034e-01	  -2.6932352e-01	
   1.2303500e+02	  -5.1851681e-01	  -2.7002754e-01	
   1.2309000e+02	  -5.1041030e-01	  -2.7082872e-01	
   1.2314500e+02	  -5.0219392e-01	  -2.7169465e-01	
   1.2320000e+02	  -4.9391499e-01	  -2.7259224e-01	
   1.2325500e+02	  -4.8559826e-01	  -2.7348905e-01	
   1.2331000e+02	  -4.7724202e-01	  -2.7435282e-01	
   1.2336500e+02	  -4.6881848e-01	  -2.7515030e-01	
   1.2342000e+02	  -4.6027858e-01	  -2.7584596e-01	
   1.2347500e+02	  -4.5155890e-01	  -2.7640062e-01	
   1.2353000e+02	  -4.4258827e-01	  -2.7676983e-01	
   1.2358500e+02	  -4.3329351e-01	  -2.7690242e-01	
   1.2364000e+02	  -4.2360543e-01	  -2.7674098e-01	
   1.2369500e+02	  -4.1346627e-01	  -2.7622491e-01	
   1.2375000e+02	  -4.0283803e-01	  -2.7529575e-01	
   1.2380500e+02	  -3.9171062e-01	  -2.7390372e-01	
   1.2386000e+02	  -3.8010807e-01	  -2.7201461e-01	
   1.2391500e+02	  -3.6809160e-01	  -2.6961606e-01	
   1.2397000e+02	  -3.5575888e-01	  -2.6672215e-01	
   1.2402500e+02	  -3.4323993e-01	  -2.6337532e-01	
   1.2408000e+02	  -3.3069055e-01	  -2.5964509e-01	
   1.2413500e+02	  -3.1828406e-01	  -2.5562358e-01	
   1.2419000e+02	  -3.0620149e-01	  -2.5141848e-01	
   1.2424500e+02	  -2.9462147e-01	  -2.4714441e-01	
   1.2430000e+02	  -2.8371098e-01	  -2.4291394e-01	
   1.2435500e+02	  -2.7361790e-01	  -2.3882906e-01	
   1.2441000e+02	  -2.6446504e-01	  -2.3497428e-01	
   1.2446500e+02	  -2.5634554e-01	  -2.3141177e-01	
   1.2452000e+02	  -2.4931975e-01	  -2.2817876e-01	
   1.2457500e+02	  -2.4341415e-01	  -2.2528715e-01	
   1.2463000e+02	  -2.3862252e-01	  -2.2272587e-01	
   1.2468500e+02	  -2.3490974e-01	  -2.2046603e-01	
   1.2474000e+02	  -2.3221789e-01	  -2.1846799e-01	
   1.2479500e+02	  -2.3047242e-01	  -2.1668876e-01	
   1.2485000e+02	  -2.2958708e-01	  -2.1508858e-01	
   1.2490500e+02	  -2.2946716e-01	  -2.1363602e-01	
   1.2496000e+02	  -2.3001124e-01	  -2.1231060e-01	
   1.2501500e+02	  -2.3111143e-01	  -2.1110276e-01	
   1.2507000e+02	  -2.3265280e-01	  -2.1001126e-01	
   1.2512500e+02	  -2.3451322e-01	  -2.0903929e-01	
   1.2518000e+02	  -2.3656425e-01	  -2.0818959e-01	
   1.2523500e+02	  -2.3867244e-01	  -2.0745940e-01	
   1.2529000e+02	  -2.4070153e-01	  -2.0683657e-01	
   1.2534500e+02	  -2.4251635e-01	  -2.0629795e-01	
   1.2540000e+02	  -2.4398789e-01	  -2.0580995e-01	
   1.2545500e+02	  -2.4499816e-01	  -2.0533038e-01	
   1.2551000e+02	  -2.4544397e-01	  -2.0481154e-01	
   1.2556500e+02	  -2.4523950e-01	  -2.0420442e-01	
   1.2562000e+02	  -2.4431807e-01	  -2.0346352e-01	
   1.2567500e+02	  -2.4263273e-01	  -2.0255101e-01	
   1.2573000e+02	  -2.4015575e-01	  -2.0143945e-01	
   1.2578500e+02	  -2.3687695e-01	  -2.0011320e-01	
   1.2584000e+02	  -2.3280144e-01	  -1.9856842e-01	
   1.2589500e+02	  -2.2794720e-01	  -1.9681112e-01	
   1.2595000e+02	  -2.2234305e-01	  -1.9485381e-01	
   1.2600500e+02	  -2.1602774e-01	  -1.9271187e-01	
   1.2606000e+02	  -2.0905006e-01	  -1.9040079e-01	
   1.2611500e+02	  -2.0146815e-01	  -1.8793475e-01	
   1.2617000e+02	  -1.9334720e-01	  -1.8532591e-01	
   1.2622500e+02	  -1.8475618e-01	  -1.8258438e-01	
   1.2628000e+02	  -1.7576469e-01	  -1.7971882e-01	
   1.2633500e+02	  -1.6644000e-01	  -1.7673762e-01	
   1.2639000e+02	  -1.5684326e-01	  -1.7365008e-01	
   1.2644500e+02	  -1.4702518e-01	  -1.7046711e-01	
   1.2650000e+02	  -1.3702202e-01	  -1.6720106e-01	
   1.2655500e+02	  -1.2685296e-01	  -1.6386447e-01	
   1.2661000e+02	  -1.1651966e-01	  -1.6046824e-01	
   1.2666500e+02	  -1.0600819e-01	  -1.5701978e-01	
   1.2672000e+02	  -9.5292752e-02	  -1.5352159e-01	
   1.2677500e+02	  -8.4340547e-02	  -1.4997024e-01	
   1.2683000e+02	  -7.3117370e-02	  -1.4635552e-01	
