
0   2   1   4
   0.0000000e+00	  -1.2942856e-01	  -2.2587003e-01	  -2.3392542e-01	
   5.5000000e-02	  -1.3078622e-01	  -2.3355257e-01	  -2.2764760e-01	
   1.1000000e-01	  -1.3147052e-01	  -2.3999892e-01	  -2.2115581e-01	
   1.6500000e-01	  -1.3158934e-01	  -2.4534118e-01	  -2.1449129e-01	
   2.2000000e-01	  -1.3124797e-01	  -2.4971619e-01	  -2.0769008e-01	
   2.7500000e-01	  -1.3054229e-01	  -2.5325680e-01	  -2.0078227e-01	
   3.3000000e-01	  -1.2955370e-01	  -2.5608659e-01	  -1.9379378e-01	
   3.8500000e-01	  -1.2834538e-01	  -2.5831713e-01	  -1.8674892e-01	
   4.4000000e-01	  -1.2696063e-01	  -2.6004705e-01	  -1.7967268e-01	
   4.9500000e-01	  -1.2542387e-01	  -2.6136284e-01	  -1.7259168e-01	
   5.5000000e-01	  -1.2374401e-01	  -2.6234073e-01	  -1.6553220e-01	
   6.0500000e-01	  -1.2191833e-01	  -2.6304708e-01	  -1.5851498e-01	
   6.6000000e-01	  -1.1993557e-01	  -2.6353577e-01	  -1.5154947e-01	
   7.1500000e-01	  -1.1777832e-01	  -2.6384316e-01	  -1.4463026e-01	
   7.7000000e-01	  -1.1542578e-01	  -2.6398380e-01	  -1.3773698e-01	
   8.2500000e-01	  -1.1285715e-01	  -2.6394905e-01	  -1.3083681e-01	
   8.8000000e-01	  -1.1005628e-01	  -2.6370953e-01	  -1.2388915e-01	
   9.3500000e-01	  -1.0701686e-01	  -2.6322043e-01	  -1.1685190e-01	
   9.9000000e-01	  -1.0374704e-01	  -2.6242811e-01	  -1.0968753e-01	
   1.0450000e+00	  -1.0027169e-01	  -2.6127588e-01	  -1.0236692e-01	
   1.1000000e+00	  -9.6631808e-02	  -2.5970753e-01	  -9.4871177e-02	
   1.1550000e+00	  -9.2881256e-02	  -2.5766849e-01	  -8.7192450e-02	
   1.2100000e+00	  -8.9081733e-02	  -2.5510525e-01	  -7.9334296e-02	
   1.2650000e+00	  -8.5296766e-02	  -2.5196540e-01	  -7.1310748e-02	
   1.3200000e+00	  -8.1586009e-02	  -2.4820066e-01	  -6.3144845e-02	
   1.3750000e+00	  -7.8000587e-02	  -2.4377212e-01	  -5.4869590e-02	
   1.4300000e+00	  -7.4579690e-02	  -2.3865402e-01	  -4.6532585e-02	
   1.4850000e+00	  -7.1348773e-02	  -2.3283378e-01	  -3.8200815e-02	
   1.5400000e+00	  -6.8319956e-02	  -2.2631009e-01	  -2.9960492e-02	
   1.5950000e+00	  -6.5494524e-02	  -2.1909221e-01	  -2.1910384e-02	
   1.6500000e+00	  -6.2866530e-02	  -2.1120163e-01	  -1.4151376e-02	
   1.7050000e+00	  -6.0426454e-02	  -2.0267453e-01	  -6.7764882e-03	
   1.7600000e+00	  -5.8164151e-02	  -1.9356292e-01	   1.3601431e-04	
   1.8150000e+00	  -5.6070189e-02	  -1.8393424e-01	   6.5264251e-03	
   1.8700000e+00	  -5.4134899e-02	  -1.7386979e-01	   1.2355429e-02	
   1.9250000e+00	  -5.2345752e-02	  -1.6346231e-01	   1.7604191e-02	
   1.9800000e+00	  -5.0685113e-02	  -1.5281441e-01	   2.2272055e-02	
   2.0350000e+00	  -4.9129864e-02	  -1.4203874e-01	   2.6372223e-02	
   2.0900000e+00	  -4.7652341e-02	  -1.3125814e-01	   2.9927339e-02	
   2.1450000e+00	  -4.6221046e-02	  -1.2060360e-01	   3.2966309e-02	
   2.2000000e+00	  -4.4800827e-02	  -1.1021000e-01	   3.5521774e-02	
   2.2550000e+00	  -4.3353403e-02	  -1.0021175e-01	   3.7627427e-02	
   2.3100000e+00	  -4.1838679e-02	  -9.0738285e-02	   3.9315873e-02	
   2.3650000e+00	  -4.0216426e-02	  -8.1908427e-02	   4.0618088e-02	
   2.4200000e+00	  -3.8447886e-02	  -7.3823495e-02	   4.1564672e-02	
   2.4750000e+00	  -3.6497107e-02	  -6.6560862e-02	   4.2189131e-02	
   2.5300000e+00	  -3.4331875e-02	  -6.0169521e-02	   4.2533011e-02	
   2.5850000e+00	  -3.1924267e-02	  -5.4667065e-02	   4.2650884e-02	
   2.6400000e+00	  -2.9251221e-02	  -5.0036488e-02	   4.2612748e-02	
   2.6950000e+00	  -2.6295146e-02	  -4.6222927e-02	   4.2503921e-02	
   2.7500000e+00	  -2.3043964e-02	  -4.3132304e-02	   4.2424882e-02	
   2.8050000e+00	  -1.9490289e-02	  -4.0633470e-02	   4.2492179e-02	
   2.8600000e+00	  -1.5630279e-02	  -3.8564357e-02	   4.2838231e-02	
   2.9150000e+00	  -1.1462797e-02	  -3.6741853e-02	   4.3607355e-02	
   2.9700000e+00	  -6.9888366e-03	  -3.4973867e-02	   4.4948067e-02	
   3.0250000e+00	  -2.2108121e-03	  -3.3071060e-02	   4.7003350e-02	
   3.0800000e+00	   2.8681984e-03	  -3.0856723e-02	   4.9899776e-02	
   3.1350000e+00	   8.2445232e-03	  -2.8174922e-02	   5.3735856e-02	
   3.1900000e+00	   1.3913020e-02	  -2.4897007e-02	   5.8570964e-02	
   3.2450000e+00	   1.9865820e-02	  -2.0926033e-02	   6.4416551e-02	
   3.3000000e+00	   2.6091104e-02	  -1.6199466e-02	   7.1230813e-02	
   3.3550000e+00	   3.2571949e-02	  -1.0690717e-02	   7.8918367e-02	
   3.4100000e+00	   3.9285585e-02	  -4.4088630e-03	   8.7337476e-02	
   3.4650000e+00	   4.6203459e-02	   2.6038004e-03	   9.6315483e-02	
   3.5200000e+00	   5.3291856e-02	   1.0274995e-02	   1.0566873e-01	
   3.5750000e+00	   6.0512382e-02	   1.8504880e-02	   1.1522129e-01	
   3.6300000e+00	   6.7821958e-02	   2.7168060e-02	   1.2481900e-01	
   3.6850000e+00	   7.5172442e-02	   3.6116665e-02	   1.3433764e-01	
   3.7400000e+00	   8.2510311e-02	   4.5185089e-02	   1.4368500e-01	
   3.7950000e+00	   8.9777177e-02	   5.4196339e-02	   1.5279744e-01	
   3.8500000e+00	   9.6911721e-02	   6.2970732e-02	   1.6163302e-01	
   3.9050000e+00	   1.0385303e-01	   7.1337373e-02	   1.7016396e-01	
   3.9600000e+00	   1.1054496e-01	   7.9146690e-02	   1.7836998e-01	
   4.0150000e+00	   1.1694094e-01	   8.6281206e-02	   1.8623289e-01	
   4.0700000e+00	   1.2300880e-01	   9.2662642e-02	   1.9373195e-01	
   4.1250000e+00	   1.2873467e-01	   9.8254333e-02	   2.0084011e-01	
   4.1800000e+00	   1.3412496e-01	   1.0305840e-01	   2.0752180e-01	
   4.2350000e+00	   1.3920621e-01	   1.0710845e-01	   2.1373328e-01	
   4.2900000e+00	   1.4402334e-01	   1.1046008e-01	   2.1942554e-01	
   4.3450000e+00	   1.4863650e-01	   1.1318124e-01	   2.2454975e-01	
   4.4000000e+00	   1.5311682e-01	   1.1534342e-01	   2.2906389e-01	
   4.4550000e+00	   1.5754114e-01	   1.1701490e-01	   2.3293820e-01	
   4.5100000e+00	   1.6198692e-01	   1.1825708e-01	   2.3615731e-01	
   4.5650000e+00	   1.6652770e-01	   1.1912381e-01	   2.3871884e-01	
   4.6200000e+00	   1.7122880e-01	   1.1966188e-01	   2.4062923e-01	
   4.6750000e+00	   1.7614327e-01	   1.1991175e-01	   2.4189818e-01	
   4.7300000e+00	   1.8130893e-01	   1.1990922e-01	   2.4253317e-01	
   4.7850000e+00	   1.8674721e-01	   1.1968765e-01	   2.4253473e-01	
   4.8400000e+00	   1.9246328e-01	   1.1927876e-01	   2.4189237e-01	
   4.8950000e+00	   1.9844703e-01	   1.1871075e-01	   2.4058207e-01	
   4.9500000e+00	   2.0467485e-01	   1.1800443e-01	   2.3856781e-01	
   5.0050000e+00	   2.1111219e-01	   1.1716921e-01	   2.3580792e-01	
   5.0600000e+00	   2.1771616e-01	   1.1620077e-01	   2.3226417e-01	
   5.1150000e+00	   2.2443730e-01	   1.1508129e-01	   2.2791183e-01	
   5.1700000e+00	   2.3122061e-01	   1.1378296e-01	   2.2275035e-01	
   5.2250000e+00	   2.3800658e-01	   1.1227432e-01	   2.1681443e-01	
   5.2800000e+00	   2.4473251e-01	   1.1052767e-01	   2.1018314e-01	
   5.3350000e+00	   2.5133426e-01	   1.0852544e-01	   2.0298353e-01	
   5.3900000e+00	   2.5774873e-01	   1.0626426e-01	   1.9538672e-01	
   5.4450000e+00	   2.6391673e-01	   1.0375672e-01	   1.8759639e-01	
   5.5000000e+00	   2.6978600e-01	   1.0103157e-01	   1.7983225e-01	
   5.5550000e+00	   2.7531336e-01	   9.8132321e-02	   1.7231253e-01	
   5.6100000e+00	   2.8046570e-01	   9.5114721e-02	   1.6523876e-01	
   5.6650000e+00	   2.8522031e-01	   9.2043626e-02	   1.5878378e-01	
   5.7200000e+00	   2.8956498e-01	   8.8989823e-02	   1.5308263e-01	
   5.7750000e+00	   2.9349819e-01	   8.6027616e-02	   1.4822730e-01	
   5.8300000e+00	   2.9702927e-01	   8.3234877e-02	   1.4426620e-01	
   5.8850000e+00	   3.0017844e-01	   8.0696437e-02	   1.4120737e-01	
   5.9400000e+00	   3.0297546e-01	   7.8508309e-02	   1.3902452e-01	
   5.9950000e+00	   3.0545617e-01	   7.6778326e-02	   1.3766552e-01	
   6.0500000e+00	   3.0765721e-01	   7.5620891e-02	   1.3706299e-01	
   6.1050000e+00	   3.0961040e-01	   7.5147155e-02	   1.3714412e-01	
   6.1600000e+00	   3.1133821e-01	   7.5453869e-02	   1.3783763e-01	
   6.2150000e+00	   3.1285137e-01	   7.6614252e-02	   1.3907717e-01	
   6.2700000e+00	   3.1414941e-01	   7.8673149e-02	   1.4080268e-01	
   6.3250000e+00	   3.1522401e-01	   8.1646570e-02	   1.4296182e-01	
   6.3800000e+00	   3.1606423e-01	   8.5523735e-02	   1.4551209e-01	
   6.4350000e+00	   3.1666214e-01	   9.0269973e-02	   1.4842260e-01	
   6.4900000e+00	   3.1701771e-01	   9.5830299e-02	   1.5167421e-01	
   6.5450000e+00	   3.1714253e-01	   1.0213379e-01	   1.5525798e-01	
   6.6000000e+00	   3.1706239e-01	   1.0909834e-01	   1.5917168e-01	
   6.6550000e+00	   3.1681917e-01	   1.1663552e-01	   1.6341406e-01	
   6.7100000e+00	   3.1647181e-01	   1.2465579e-01	   1.6797768e-01	
   6.7650000e+00	   3.1609537e-01	   1.3307278e-01	   1.7284243e-01	
   6.8200000e+00	   3.1577681e-01	   1.4180463e-01	   1.7797055e-01	
   6.8750000e+00	   3.1560710e-01	   1.5077153e-01	   1.8330268e-01	
   6.9300000e+00	   3.1567150e-01	   1.5989102e-01	   1.8875443e-01	
   6.9850000e+00	   3.1604036e-01	   1.6907312e-01	   1.9421448e-01	
   7.0400000e+00	   3.1676232e-01	   1.7821631e-01	   1.9954442e-01	
   7.0950000e+00	   3.1786015e-01	   1.8720478e-01	   2.0458080e-01	
   7.1500000e+00	   3.1932887e-01	   1.9590715e-01	   2.0914003e-01	
   7.2050000e+00	   3.2113591e-01	   2.0417793e-01	   2.1302682e-01	
   7.2600000e+00	   3.2322345e-01	   2.1186193e-01	   2.1604549e-01	
   7.3150000e+00	   3.2551310e-01	   2.1880176e-01	   2.1801311e-01	
   7.3700000e+00	   3.2791345e-01	   2.2484752e-01	   2.1877330e-01	
   7.4250000e+00	   3.3032903e-01	   2.2986666e-01	   2.1820952e-01	
   7.4800000e+00	   3.3266869e-01	   2.3375121e-01	   2.1625624e-01	
   7.5350000e+00	   3.3485136e-01	   2.3642182e-01	   2.1290680e-01	
   7.5900000e+00	   3.3680867e-01	   2.3782983e-01	   2.0821627e-01	
   7.6450000e+00	   3.3848484e-01	   2.3795861e-01	   2.0229795e-01	
   7.7000000e+00	   3.3983452e-01	   2.3682465e-01	   1.9531347e-01	
   7.7550000e+00	   3.4082004e-01	   2.3447831e-01	   1.8745926e-01	
   7.8100000e+00	   3.4140921e-01	   2.3100439e-01	   1.7895295e-01	
   7.8650000e+00	   3.4157449e-01	   2.2652145e-01	   1.7002212e-01	
   7.9200000e+00	   3.4129310e-01	   2.2117833e-01	   1.6089642e-01	
   7.9750000e+00	   3.4054807e-01	   2.1514763e-01	   1.5180370e-01	
   8.0300000e+00	   3.3933031e-01	   2.0861790e-01	   1.4296930e-01	
   8.0850000e+00	   3.3764130e-01	   2.0178648e-01	   1.3461591e-01	
   8.1400000e+00	   3.3549530e-01	   1.9485403e-01	   1.2696059e-01	
   8.1950000e+00	   3.3292020e-01	   1.8802103e-01	   1.2020768e-01	
   8.2500000e+00	   3.2995734e-01	   1.8148563e-01	   1.1453927e-01	
   8.3050000e+00	   3.2666052e-01	   1.7544176e-01	   1.1010530e-01	
   8.3600000e+00	   3.2309329e-01	   1.7007534e-01	   1.0701502e-01	
   8.4150000e+00	   3.1932458e-01	   1.6555769e-01	   1.0533201e-01	
   8.4700000e+00	   3.1542447e-01	   1.6203811e-01	   1.0507504e-01	
   8.5250000e+00	   3.1146140e-01	   1.5963886e-01	   1.0622389e-01	
   8.5800000e+00	   3.0750020e-01	   1.5845346e-01	   1.0872646e-01	
   8.6350000e+00	   3.0360023e-01	   1.5854639e-01	   1.1250510e-01	
   8.6900000e+00	   2.9981427e-01	   1.5995210e-01	   1.1746370e-01	
   8.7450000e+00	   2.9618863e-01	   1.6267332e-01	   1.2349645e-01	
   8.8000000e+00	   2.9276390e-01	   1.6667921e-01	   1.3049698e-01	
   8.8550000e+00	   2.8957581e-01	   1.7190467e-01	   1.3836533e-01	
   8.9100000e+00	   2.8665616e-01	   1.7825108e-01	   1.4701229e-01	
   8.9650000e+00	   2.8403401e-01	   1.8558853e-01	   1.5636081e-01	
   9.0200000e+00	   2.8173630e-01	   1.9375902e-01	   1.6634410e-01	
   9.0750000e+00	   2.7978693e-01	   2.0258121e-01	   1.7690138e-01	
   9.1300000e+00	   2.7820440e-01	   2.1185769e-01	   1.8797385e-01	
   9.1850000e+00	   2.7699931e-01	   2.2138476e-01	   1.9950250e-01	
   9.2400000e+00	   2.7617351e-01	   2.3096305e-01	   2.1142719e-01	
   9.2950000e+00	   2.7572140e-01	   2.4040720e-01	   2.2368540e-01	
   9.3500000e+00	   2.7563225e-01	   2.4955351e-01	   2.3620967e-01	
   9.4050000e+00	   2.7589258e-01	   2.5826516e-01	   2.4892448e-01	
   9.4600000e+00	   2.7648820e-01	   2.6643428e-01	   2.6174359e-01	
   9.5150000e+00	   2.7740593e-01	   2.7398063e-01	   2.7456874e-01	
   9.5700000e+00	   2.7863556e-01	   2.8084703e-01	   2.8729053e-01	
   9.6250000e+00	   2.8017172e-01	   2.8699375e-01	   2.9979296e-01	
   9.6800000e+00	   2.8201434e-01	   2.9239337e-01	   3.1196091e-01	
   9.7350000e+00	   2.8416689e-01	   2.9702697e-01	   3.2368875e-01	
   9.7900000e+00	   2.8663269e-01	   3.0088129e-01	   3.3488778e-01	
   9.8450000e+00	   2.8941037e-01	   3.0394684e-01	   3.4549166e-01	
   9.9000000e+00	   2.9249043e-01	   3.0621662e-01	   3.5545931e-01	
   9.9550000e+00	   2.9585399e-01	   3.0768643e-01	   3.6477515e-01	
   1.0010000e+01	   2.9947425e-01	   3.0835741e-01	   3.7344807e-01	
   1.0065000e+01	   3.0331959e-01	   3.0824018e-01	   3.8151040e-01	
   1.0120000e+01	   3.0735686e-01	   3.0735780e-01	   3.8901642e-01	
   1.0175000e+01	   3.1155396e-01	   3.0574685e-01	   3.9603940e-01	
   1.0230000e+01	   3.1588234e-01	   3.0345840e-01	   4.0266790e-01	
   1.0285000e+01	   3.2031985e-01	   3.0056035e-01	   4.0900263e-01	
   1.0340000e+01	   3.2485319e-01	   2.9714040e-01	   4.1515306e-01	
   1.0395000e+01	   3.2947884e-01	   2.9330709e-01	   4.2123193e-01	
   1.0450000e+01	   3.3420222e-01	   2.8918747e-01	   4.2734776e-01	
   1.0505000e+01	   3.3903560e-01	   2.8492093e-01	   4.3359683e-01	
   1.0560000e+01	   3.4399557e-01	   2.8064987e-01	   4.4005610e-01	
   1.0615000e+01	   3.4910019e-01	   2.7650870e-01	   4.4677754e-01	
   1.0670000e+01	   3.5436658e-01	   2.7261390e-01	   4.5378503e-01	
   1.0725000e+01	   3.5980964e-01	   2.6905726e-01	   4.6107489e-01	
   1.0780000e+01	   3.6544205e-01	   2.6590333e-01	   4.6861940e-01	
   1.0835000e+01	   3.7127395e-01	   2.6319005e-01	   4.7637127e-01	
   1.0890000e+01	   3.7731153e-01	   2.6093183e-01	   4.8426773e-01	
   1.0945000e+01	   3.8355450e-01	   2.5912408e-01	   4.9223444e-01	
   1.1000000e+01	   3.8999293e-01	   2.5774702e-01	   5.0018890e-01	
   1.1055000e+01	   3.9660434e-01	   2.5676778e-01	   5.0804249e-01	
   1.1110000e+01	   4.0335180e-01	   2.5614255e-01	   5.1570089e-01	
   1.1165000e+01	   4.1018327e-01	   2.5582080e-01	   5.2306395e-01	
   1.1220000e+01	   4.1703185e-01	   2.5575088e-01	   5.3002692e-01	
   1.1275000e+01	   4.2381692e-01	   2.5588424e-01	   5.3648378e-01	
   1.1330000e+01	   4.3044615e-01	   2.5617669e-01	   5.4233234e-01	
   1.1385000e+01	   4.3681858e-01	   2.5658689e-01	   5.4747959e-01	
   1.1440000e+01	   4.4282863e-01	   2.5707303e-01	   5.5184564e-01	
   1.1495000e+01	   4.4837093e-01	   2.5759025e-01	   5.5536565e-01	
   1.1550000e+01	   4.5334594e-01	   2.5809056e-01	   5.5799006e-01	
   1.1605000e+01	   4.5766599e-01	   2.5852479e-01	   5.5968489e-01	
   1.1660000e+01	   4.6126154e-01	   2.5884446e-01	   5.6043258e-01	
   1.1715000e+01	   4.6408629e-01	   2.5900304e-01	   5.6023296e-01	
   1.1770000e+01	   4.6612031e-01	   2.5895829e-01	   5.5910390e-01	
   1.1825000e+01	   4.6737073e-01	   2.5867690e-01	   5.5708223e-01	
   1.1880000e+01	   4.6787076e-01	   2.5813997e-01	   5.5422548e-01	
   1.1935000e+01	   4.6767776e-01	   2.5734703e-01	   5.5061499e-01	
   1.1990000e+01	   4.6687062e-01	   2.5631790e-01	   5.4635982e-01	
   1.2045000e+01	   4.6554687e-01	   2.5509340e-01	   5.4159974e-01	
   1.2100000e+01	   4.6381942e-01	   2.5373506e-01	   5.3650504e-01	
   1.2155000e+01	   4.6181301e-01	   2.5232214e-01	   5.3127201e-01	
   1.2210000e+01	   4.5966007e-01	   2.5094461e-01	   5.2611499e-01	
   1.2265000e+01	   4.5749559e-01	   2.4969262e-01	   5.2125729e-01	
   1.2320000e+01	   4.5545052e-01	   2.4864506e-01	   5.1692263e-01	
   1.2375000e+01	   4.5364428e-01	   2.4785943e-01	   5.1332672e-01	
   1.2430000e+01	   4.5217828e-01	   2.4736394e-01	   5.1066747e-01	
   1.2485000e+01	   4.5113172e-01	   2.4715191e-01	   5.0911418e-01	
   1.2540000e+01	   4.5056028e-01	   2.4717880e-01	   5.0879762e-01	
   1.2595000e+01	   4.5049663e-01	   2.4736292e-01	   5.0980283e-01	
   1.2650000e+01	   4.5095209e-01	   2.4759057e-01	   5.1216563e-01	
   1.2705000e+01	   4.5191838e-01	   2.4772473e-01	   5.1587308e-01	
   1.2760000e+01	   4.5336887e-01	   2.4761442e-01	   5.2086677e-01	
   1.2815000e+01	   4.5525913e-01	   2.4710347e-01	   5.2704705e-01	
   1.2870000e+01	   4.5752739e-01	   2.4603994e-01	   5.3427777e-01	
   1.2925000e+01	   4.6009554e-01	   2.4428714e-01	   5.4239219e-01	
   1.2980000e+01	   4.6287093e-01	   2.4173470e-01	   5.5120005e-01	
   1.3035000e+01	   4.6574863e-01	   2.3830672e-01	   5.6049438e-01	
   1.3090000e+01	   4.6861416e-01	   2.3396519e-01	   5.7005687e-01	
   1.3145000e+01	   4.7134739e-01	   2.2870968e-01	   5.7966219e-01	
   1.3200000e+01	   4.7382730e-01	   2.2257448e-01	   5.8908181e-01	
   1.3255000e+01	   4.7593630e-01	   2.1562430e-01	   5.9808744e-01	
   1.3310000e+01	   4.7756310e-01	   2.0794960e-01	   6.0645489e-01	
   1.3365000e+01	   4.7860506e-01	   1.9966260e-01	   6.1396931e-01	
   1.3420000e+01	   4.7897077e-01	   1.9089509e-01	   6.2043152e-01	
   1.3475000e+01	   4.7858319e-01	   1.8179767e-01	   6.2566415e-01	
   1.3530000e+01	   4.7738307e-01	   1.7253927e-01	   6.2951679e-01	
   1.3585000e+01	   4.7533310e-01	   1.6330514e-01	   6.3187069e-01	
   1.3640000e+01	   4.7242172e-01	   1.5429120e-01	   6.3264362e-01	
   1.3695000e+01	   4.6866557e-01	   1.4569376e-01	   6.3179514e-01	
   1.3750000e+01	   4.6410968e-01	   1.3769699e-01	   6.2933189e-01	
   1.3805000e+01	   4.5882632e-01	   1.3046195e-01	   6.2531228e-01	
   1.3860000e+01	   4.5291279e-01	   1.2411884e-01	   6.1984898e-01	
   1.3915000e+01	   4.4648780e-01	   1.1876265e-01	   6.1310664e-01	
   1.3970000e+01	   4.3968656e-01	   1.1445180e-01	   6.0529400e-01	
   1.4025000e+01	   4.3265470e-01	   1.1120921e-01	   5.9665250e-01	
   1.4080000e+01	   4.2554122e-01	   1.0902396e-01	   5.8744426e-01	
   1.4135000e+01	   4.1849098e-01	   1.0785236e-01	   5.7794118e-01	
   1.4190000e+01	   4.1163733e-01	   1.0761897e-01	   5.6841505e-01	
   1.4245000e+01	   4.0509558e-01	   1.0821896e-01	   5.5912868e-01	
   1.4300000e+01	   3.9895786e-01	   1.0952215e-01	   5.5032732e-01	
   1.4355000e+01	   3.9329046e-01	   1.1137760e-01	   5.4223066e-01	
   1.4410000e+01	   3.8813439e-01	   1.1361788e-01	   5.3502618e-01	
   1.4465000e+01	   3.8350880e-01	   1.1606339e-01	   5.2886473e-01	
   1.4520000e+01	   3.7941535e-01	   1.1852671e-01	   5.2385740e-01	
   1.4575000e+01	   3.7584188e-01	   1.2081638e-01	   5.2007257e-01	
   1.4630000e+01	   3.7276511e-01	   1.2273994e-01	   5.1753400e-01	
   1.4685000e+01	   3.7015311e-01	   1.2410762e-01	   5.1622118e-01	
   1.4740000e+01	   3.6796743e-01	   1.2473798e-01	   5.1607154e-01	
   1.4795000e+01	   3.6616489e-01	   1.2446517e-01	   5.1698335e-01	
   1.4850000e+01	   3.6469980e-01	   1.2314716e-01	   5.1881920e-01	
   1.4905000e+01	   3.6352764e-01	   1.2067456e-01	   5.2141185e-01	
   1.4960000e+01	   3.6260946e-01	   1.1697893e-01	   5.2457292e-01	
   1.5015000e+01	   3.6191601e-01	   1.1203968e-01	   5.2810300e-01	
   1.5070000e+01	   3.6143127e-01	   1.0588938e-01	   5.3180114e-01	
   1.5125000e+01	   3.6115581e-01	   9.8618209e-02	   5.3547311e-01	
   1.5180000e+01	   3.6111005e-01	   9.0376837e-02	   5.3893781e-01	
   1.5235000e+01	   3.6133701e-01	   8.1376913e-02	   5.4203223e-01	
   1.5290000e+01	   3.6190413e-01	   7.1888854e-02	   5.4461545e-01	
   1.5345000e+01	   3.6290366e-01	   6.2237259e-02	   5.4657161e-01	
   1.5400000e+01	   3.6445105e-01	   5.2794002e-02	   5.4781041e-01	
   1.5455000e+01	   3.6668067e-01	   4.3968882e-02	   5.4826352e-01	
   1.5510000e+01	   3.6973970e-01	   3.6198482e-02	   5.4787763e-01	
   1.5565000e+01	   3.7378180e-01	   2.9934484e-02	   5.4660691e-01	
   1.5620000e+01	   3.7896232e-01	   2.5632302e-02	   5.4440823e-01	
   1.5675000e+01	   3.8543531e-01	   2.3740049e-02	   5.4124022e-01	
   1.5730000e+01	   3.9335181e-01	   2.4687282e-02	   5.3706586e-01	
   1.5785000e+01	   4.0285786e-01	   2.8872566e-02	   5.3185724e-01	
   1.5840000e+01	   4.1409121e-01	   3.6649498e-02	   5.2560062e-01	
   1.5895000e+01	   4.2717632e-01	   4.8312198e-02	   5.1830052e-01	
   1.5950000e+01	   4.4221806e-01	   6.4082262e-02	   5.0998371e-01	
   1.6005000e+01	   4.5929528e-01	   8.4098783e-02	   5.0070353e-01	
   1.6060000e+01	   4.7845396e-01	   1.0841156e-01	   4.9054416e-01	
   1.6115000e+01	   4.9969938e-01	   1.3697656e-01	   4.7962359e-01	
   1.6170000e+01	   5.2298715e-01	   1.6965256e-01	   4.6809477e-01	
   1.6225000e+01	   5.4821450e-01	   2.0619852e-01	   4.5614423e-01	
   1.6280000e+01	   5.7521301e-01	   2.4627191e-01	   4.4398559e-01	
   1.6335000e+01	   6.0374396e-01	   2.8942917e-01	   4.3184686e-01	
   1.6390000e+01	   6.3349703e-01	   3.3512974e-01	   4.1995369e-01	
   1.6445000e+01	   6.6409420e-01	   3.8274579e-01	   4.0851347e-01	
   1.6500000e+01	   6.9509979e-01	   4.3157894e-01	   3.9770470e-01	
   1.6555000e+01	   7.2603731e-01	   4.8088457e-01	   3.8767350e-01	
   1.6610000e+01	   7.5641222e-01	   5.2990213e-01	   3.7853593e-01	
   1.6665000e+01	   7.8573752e-01	   5.7788810e-01	   3.7038268e-01	
   1.6720000e+01	   8.1355753e-01	   6.2414617e-01	   3.6328229e-01	
   1.6775000e+01	   8.3946639e-01	   6.6805100e-01	   3.5728074e-01	
   1.6830000e+01	   8.6312083e-01	   7.0906636e-01	   3.5239834e-01	
   1.6885000e+01	   8.8424822e-01	   7.4675928e-01	   3.4862618e-01	
   1.6940000e+01	   9.0265038e-01	   7.8080924e-01	   3.4592415e-01	
   1.6995000e+01	   9.1820276e-01	   8.1100976e-01	   3.4422097e-01	
   1.7050000e+01	   9.3084946e-01	   8.3726118e-01	   3.4341636e-01	
   1.7105000e+01	   9.4059572e-01	   8.5955721e-01	   3.4338458e-01	
   1.7160000e+01	   9.4749955e-01	   8.7796851e-01	   3.4397819e-01	
   1.7215000e+01	   9.5166293e-01	   8.9262572e-01	   3.4503126e-01	
   1.7270000e+01	   9.5322300e-01	   9.0370390e-01	   3.4636273e-01	
   1.7325000e+01	   9.5234313e-01	   9.1140948e-01	   3.4778085e-01	
   1.7380000e+01	   9.4920399e-01	   9.1596964e-01	   3.4908805e-01	
   1.7435000e+01	   9.4399532e-01	   9.1762376e-01	   3.5008520e-01	
   1.7490000e+01	   9.3690996e-01	   9.1661690e-01	   3.5057568e-01	
   1.7545000e+01	   9.2814113e-01	   9.1319531e-01	   3.5037057e-01	
   1.7600000e+01	   9.1788268e-01	   9.0760341e-01	   3.4929482e-01	
   1.7655000e+01	   9.0633065e-01	   9.0008192e-01	   3.4719279e-01	
   1.7710000e+01	   8.9368408e-01	   8.9086691e-01	   3.4393251e-01	
   1.7765000e+01	   8.8014379e-01	   8.8019105e-01	   3.3940963e-01	
   1.7820000e+01	   8.6590877e-01	   8.6828675e-01	   3.3355145e-01	
   1.7875000e+01	   8.5117125e-01	   8.5538892e-01	   3.2632092e-01	
   1.7930000e+01	   8.3611144e-01	   8.4173464e-01	   3.1772045e-01	
   1.7985000e+01	   8.2089283e-01	   8.2755949e-01	   3.0779561e-01	
   1.8040000e+01	   8.0565822e-01	   8.1309120e-01	   2.9663705e-01	
   1.8095000e+01	   7.9052706e-01	   7.9854171e-01	   2.8437875e-01	
   1.8150000e+01	   7.7559367e-01	   7.8409912e-01	   2.7119216e-01	
   1.8205000e+01	   7.6092685e-01	   7.6992149e-01	   2.5727806e-01	
   1.8260000e+01	   7.4657055e-01	   7.5613318e-01	   2.4285740e-01	
   1.8315000e+01	   7.3254581e-01	   7.4282303e-01	   2.2816159e-01	
   1.8370000e+01	   7.1885312e-01	   7.3004258e-01	   2.1342180e-01	
   1.8425000e+01	   7.0547471e-01	   7.1780284e-01	   1.9885758e-01	
   1.8480000e+01	   6.9237613e-01	   7.0606999e-01	   1.8466596e-01	
   1.8535000e+01	   6.7950722e-01	   6.9476235e-01	   1.7101275e-01	
   1.8590000e+01	   6.6680341e-01	   6.8375113e-01	   1.5802668e-01	
   1.8645000e+01	   6.5418824e-01	   6.7286604e-01	   1.4579613e-01	
   1.8700000e+01	   6.4157666e-01	   6.6190576e-01	   1.3436755e-01	
   1.8755000e+01	   6.2887775e-01	   6.5065203e-01	   1.2374425e-01	
   1.8810000e+01	   6.1599595e-01	   6.3888385e-01	   1.1388566e-01	
   1.8865000e+01	   6.0283201e-01	   6.2638867e-01	   1.0470896e-01	
   1.8920000e+01	   5.8928503e-01	   6.1296915e-01	   9.6094932e-02	
   1.8975000e+01	   5.7525643e-01	   5.9844655e-01	   8.7897440e-02	
   1.9030000e+01	   5.6065540e-01	   5.8266350e-01	   7.9954320e-02	
   1.9085000e+01	   5.4540548e-01	   5.6548902e-01	   7.2098689e-02	
   1.9140000e+01	   5.2945174e-01	   5.4682603e-01	   6.4170606e-02	
   1.9195000e+01	   5.1276760e-01	   5.2661876e-01	   5.6028217e-02	
   1.9250000e+01	   4.9536024e-01	   5.0485950e-01	   4.7556988e-02	
   1.9305000e+01	   4.7727462e-01	   4.8159592e-01	   3.8676617e-02	
   1.9360000e+01	   4.5859630e-01	   4.5693894e-01	   2.9345850e-02	
   1.9415000e+01	   4.3945280e-01	   4.3106867e-01	   1.9565156e-02	
   1.9470000e+01	   4.2001243e-01	   4.0423638e-01	   9.3774823e-03	
   1.9525000e+01	   4.0048053e-01	   3.7676255e-01	  -1.1326528e-03	
   1.9580000e+01	   3.8109260e-01	   3.4903103e-01	  -1.1842412e-02	
   1.9635000e+01	   3.6210342e-01	   3.2147796e-01	  -2.2597282e-02	
   1.9690000e+01	   3.4377247e-01	   2.9457450e-01	  -3.3220695e-02	
   1.9745000e+01	   3.2634716e-01	   2.6880368e-01	  -4.3525082e-02	
   1.9800000e+01	   3.1004512e-01	   2.4463246e-01	  -5.3324060e-02	
   1.9855000e+01	   2.9503528e-01	   2.2247872e-01	  -6.2446134e-02	
   1.9910000e+01	   2.8141871e-01	   2.0267465e-01	  -7.0748635e-02	
   1.9965000e+01	   2.6921252e-01	   1.8543247e-01	  -7.8128961e-02	
   2.0020000e+01	   2.5834189e-01	   1.7082018e-01	  -8.4530789e-02	
   2.0075000e+01	   2.4864359e-01	   1.5875105e-01	  -8.9944294e-02	
   2.0130000e+01	   2.3988118e-01	   1.4898899e-01	  -9.4399905e-02	
   2.0185000e+01	   2.3176933e-01	   1.4117261e-01	  -9.7956234e-02	
   2.0240000e+01	   2.2400241e-01	   1.3485660e-01	  -1.0068573e-01	
   2.0295000e+01	   2.1628120e-01	   1.2956041e-01	  -1.0266318e-01	
   2.0350000e+01	   2.0833381e-01	   1.2481319e-01	  -1.0396013e-01	
   2.0405000e+01	   1.9993021e-01	   1.2019027e-01	  -1.0464466e-01	
   2.0460000e+01	   1.9089228e-01	   1.1534034e-01	  -1.0478494e-01	
   2.0515000e+01	   1.8110030e-01	   1.1000219e-01	  -1.0445475e-01	
   2.0570000e+01	   1.7049588e-01	   1.0401143e-01	  -1.0373904e-01	
   2.0625000e+01	   1.5908127e-01	   9.7299116e-02	  -1.0273714e-01	
   2.0680000e+01	   1.4691425e-01	   8.9883903e-02	  -1.0156303e-01	
   2.0735000e+01	   1.3409803e-01	   8.1856749e-02	  -1.0034374e-01	
   2.0790000e+01	   1.2076644e-01	   7.3356276e-02	  -9.9216301e-02	
   2.0845000e+01	   1.0706600e-01	   6.4535101e-02	  -9.8323005e-02	
   2.0900000e+01	   9.3138906e-02	   5.5523575e-02	  -9.7805201e-02	
   2.0955000e+01	   7.9112611e-02	   4.6403091e-02	  -9.7794805e-02	
   2.1010000e+01	   6.5100567e-02	   3.7199409e-02	  -9.8403252e-02	
   2.1065000e+01	   5.1212441e-02	   2.7896097e-02	  -9.9710224e-02	
   2.1120000e+01	   3.7566958e-02	   1.8458843e-02	  -1.0175569e-01	
   2.1175000e+01	   2.4301795e-02	   8.8606942e-03	  -1.0453659e-01	
   2.1230000e+01	   1.1579359e-02	  -8.9643018e-04	  -1.0800761e-01	
   2.1285000e+01	  -4.1114994e-04	  -1.0764847e-02	  -1.1208564e-01	
   2.1340000e+01	  -1.1456105e-02	  -2.0640179e-02	  -1.1665777e-01	
   2.1395000e+01	  -2.1325787e-02	  -3.0358894e-02	  -1.2159220e-01	
   2.1450000e+01	  -2.9789416e-02	  -3.9705623e-02	  -1.2675087e-01	
   2.1505000e+01	  -3.6636721e-02	  -4.8430218e-02	  -1.3200237e-01	
   2.1560000e+01	  -4.1705171e-02	  -5.6274518e-02	  -1.3723390e-01	
   2.1615000e+01	  -4.4909602e-02	  -6.3006929e-02	  -1.4235883e-01	
   2.1670000e+01	  -4.6267143e-02	  -6.8457670e-02	  -1.4731656e-01	
   2.1725000e+01	  -4.5909968e-02	  -7.2544919e-02	  -1.5206431e-01	
   2.1780000e+01	  -4.4083025e-02	  -7.5286820e-02	  -1.5656573e-01	
   2.1835000e+01	  -4.1129168e-02	  -7.6800533e-02	  -1.6078189e-01	
   2.1890000e+01	  -3.7466600e-02	  -7.7291084e-02	  -1.6466678e-01	
   2.1945000e+01	  -3.3563791e-02	  -7.7032627e-02	  -1.6816636e-01	
   2.2000000e+01	  -2.9915825e-02	  -7.6346034e-02	  -1.7121942e-01	
   2.2055000e+01	  -2.7023760e-02	  -7.5576969e-02	  -1.7375894e-01	
   2.2110000e+01	  -2.5376547e-02	  -7.5076070e-02	  -1.7571386e-01	
   2.2165000e+01	  -2.5434641e-02	  -7.5181217e-02	  -1.7701260e-01	
   2.2220000e+01	  -2.7615223e-02	  -7.6203856e-02	  -1.7759002e-01	
   2.2275000e+01	  -3.2280137e-02	  -7.8423237e-02	  -1.7739809e-01	
   2.2330000e+01	  -3.9727541e-02	  -8.2089901e-02	  -1.7641813e-01	
   2.2385000e+01	  -5.0186027e-02	  -8.7433848e-02	  -1.7467076e-01	
   2.2440000e+01	  -6.3807615e-02	  -9.4667804e-02	  -1.7222035e-01	
   2.2495000e+01	  -8.0657113e-02	  -1.0397713e-01	  -1.6917285e-01	
   2.2550000e+01	  -1.0069940e-01	  -1.1549667e-01	  -1.6566799e-01	
   2.2605000e+01	  -1.2378854e-01	  -1.2928388e-01	  -1.6186805e-01	
   2.2660000e+01	  -1.4966227e-01	  -1.4529827e-01	  -1.5794621e-01	
   2.2715000e+01	  -1.7794405e-01	  -1.6339290e-01	  -1.5407750e-01	
   2.2770000e+01	  -2.0815443e-01	  -1.8331813e-01	  -1.5043320e-01	
   2.2825000e+01	  -2.3973168e-01	  -2.0473553e-01	  -1.4717666e-01	
   2.2880000e+01	  -2.7206070e-01	  -2.2723975e-01	  -1.4445883e-01	
   2.2935000e+01	  -3.0450735e-01	  -2.5038581e-01	  -1.4241336e-01	
   2.2990000e+01	  -3.3645323e-01	  -2.7371670e-01	  -1.4115144e-01	
   2.3045000e+01	  -3.6732566e-01	  -2.9678518e-01	  -1.4075607e-01	
   2.3100000e+01	  -3.9661954e-01	  -3.1916886e-01	  -1.4127479e-01	
   2.3155000e+01	  -4.2391118e-01	  -3.4048174e-01	  -1.4271236e-01	
   2.3210000e+01	  -4.4886517e-01	  -3.6038492e-01	  -1.4502654e-01	
   2.3265000e+01	  -4.7123559e-01	  -3.7859594e-01	  -1.4812880e-01	
   2.3320000e+01	  -4.9086248e-01	  -3.9489523e-01	  -1.5188989e-01	
   2.3375000e+01	  -5.0766470e-01	  -4.0912893e-01	  -1.5614928e-01	
   2.3430000e+01	  -5.2163009e-01	  -4.2120813e-01	  -1.6072661e-01	
   2.3485000e+01	  -5.3280389e-01	  -4.3110487e-01	  -1.6543321e-01	
   2.3540000e+01	  -5.4127751e-01	  -4.3884586e-01	  -1.7008344e-01	
   2.3595000e+01	  -5.4717967e-01	  -4.4450545e-01	  -1.7450727e-01	
   2.3650000e+01	  -5.5067032e-01	  -4.4819854e-01	  -1.7856354e-01	
   2.3705000e+01	  -5.5193592e-01	  -4.5007279e-01	  -1.8215084e-01	
   2.3760000e+01	  -5.5118420e-01	  -4.5030057e-01	  -1.8521291e-01	
   2.3815000e+01	  -5.4863836e-01	  -4.4907194e-01	  -1.8773879e-01	
   2.3870000e+01	  -5.4453122e-01	  -4.4658931e-01	  -1.8975906e-01	
   2.3925000e+01	  -5.3909978e-01	  -4.4306302e-01	  -1.9133942e-01	
   2.3980000e+01	  -5.3257999e-01	  -4.3870810e-01	  -1.9257290e-01	
   2.4035000e+01	  -5.2520233e-01	  -4.3374324e-01	  -1.9357256e-01	
   2.4090000e+01	  -5.1718922e-01	  -4.2839076e-01	  -1.9446534e-01	
   2.4145000e+01	  -5.0875462e-01	  -4.2287484e-01	  -1.9538637e-01	
   2.4200000e+01	  -5.0010470e-01	  -4.1741578e-01	  -1.9647320e-01	
   2.4255000e+01	  -4.9143776e-01	  -4.1222127e-01	  -1.9786025e-01	
   2.4310000e+01	  -4.8294193e-01	  -4.0747753e-01	  -1.9967407e-01	
   2.4365000e+01	  -4.7479099e-01	  -4.0334299e-01	  -2.0202937e-01	
   2.4420000e+01	  -4.6713991e-01	  -3.9994615e-01	  -2.0502592e-01	
   2.4475000e+01	  -4.6012135e-01	  -3.9738702e-01	  -2.0874559e-01	
   2.4530000e+01	  -4.5384369e-01	  -3.9574065e-01	  -2.1324874e-01	
   2.4585000e+01	  -4.4839051e-01	  -3.9506034e-01	  -2.1856966e-01	
   2.4640000e+01	  -4.4382058e-01	  -3.9537920e-01	  -2.2471212e-01	
   2.4695000e+01	  -4.4016851e-01	  -3.9671024e-01	  -2.3164669e-01	
   2.4750000e+01	  -4.3744603e-01	  -3.9904657e-01	  -2.3931082e-01	
   2.4805000e+01	  -4.3564422e-01	  -4.0236249e-01	  -2.4761141e-01	
   2.4860000e+01	  -4.3473620e-01	  -4.0661421e-01	  -2.5642919e-01	
   2.4915000e+01	  -4.3468036e-01	  -4.1174010e-01	  -2.6562423e-01	
   2.4970000e+01	  -4.3542383e-01	  -4.1766033e-01	  -2.7504230e-01	
   2.5025000e+01	  -4.3690494e-01	  -4.2427570e-01	  -2.8452182e-01	
   2.5080000e+01	  -4.3905372e-01	  -4.3146486e-01	  -2.9390148e-01	
   2.5135000e+01	  -4.4179023e-01	  -4.3908092e-01	  -3.0302787e-01	
   2.5190000e+01	  -4.4502215e-01	  -4.4695014e-01	  -3.1176244e-01	
   2.5245000e+01	  -4.4864376e-01	  -4.5487430e-01	  -3.1998586e-01	
   2.5300000e+01	  -4.5253761e-01	  -4.6263692e-01	  -3.2759894e-01	
   2.5355000e+01	  -4.5657926e-01	  -4.7001183e-01	  -3.3452103e-01	
   2.5410000e+01	  -4.6064449e-01	  -4.7677308e-01	  -3.4068857e-01	
   2.5465000e+01	  -4.6461754e-01	  -4.8270551e-01	  -3.4605502e-01	
   2.5520000e+01	  -4.6839872e-01	  -4.8761575e-01	  -3.5059113e-01	
   2.5575000e+01	  -4.7191024e-01	  -4.9134312e-01	  -3.5428457e-01	
   2.5630000e+01	  -4.7509965e-01	  -4.9376820e-01	  -3.5713922e-01	
   2.5685000e+01	  -4.7794036e-01	  -4.9481725e-01	  -3.5917497e-01	
   2.5740000e+01	  -4.8043008e-01	  -4.9446370e-01	  -3.6042765e-01	
   2.5795000e+01	  -4.8258796e-01	  -4.9272892e-01	  -3.6094839e-01	
   2.5850000e+01	  -4.8445165e-01	  -4.8968290e-01	  -3.6080162e-01	
   2.5905000e+01	  -4.8607361e-01	  -4.8544330e-01	  -3.6006233e-01	
   2.5960000e+01	  -4.8751598e-01	  -4.8017175e-01	  -3.5881315e-01	
   2.6015000e+01	  -4.8884449e-01	  -4.7406732e-01	  -3.5714242e-01	
   2.6070000e+01	  -4.9012346e-01	  -4.6735747e-01	  -3.5514220e-01	
   2.6125000e+01	  -4.9141286e-01	  -4.6028732e-01	  -3.5290499e-01	
   2.6180000e+01	  -4.9276721e-01	  -4.5310850e-01	  -3.5051803e-01	
   2.6235000e+01	  -4.9423560e-01	  -4.4606977e-01	  -3.4805622e-01	
   2.6290000e+01	  -4.9586247e-01	  -4.3940902e-01	  -3.4557626e-01	
   2.6345000e+01	  -4.9768865e-01	  -4.3334497e-01	  -3.4311412e-01	
   2.6400000e+01	  -4.9975224e-01	  -4.2806751e-01	  -3.4068593e-01	
   2.6455000e+01	  -5.0208942e-01	  -4.2372818e-01	  -3.3829049e-01	
   2.6510000e+01	  -5.0473491e-01	  -4.2043316e-01	  -3.3591291e-01	
   2.6565000e+01	  -5.0772092e-01	  -4.1823996e-01	  -3.3352840e-01	
   2.6620000e+01	  -5.1107438e-01	  -4.1715751e-01	  -3.3110626e-01	
   2.6675000e+01	  -5.1481352e-01	  -4.1714969e-01	  -3.2861425e-01	
   2.6730000e+01	  -5.1894558e-01	  -4.1814230e-01	  -3.2602403e-01	
   2.6785000e+01	  -5.2346584e-01	  -4.2003129e-01	  -3.2331639e-01	
   2.6840000e+01	  -5.2835703e-01	  -4.2269005e-01	  -3.2048491e-01	
   2.6895000e+01	  -5.3358853e-01	  -4.2597520e-01	  -3.1753746e-01	
   2.6950000e+01	  -5.3911607e-01	  -4.2973196e-01	  -3.1449582e-01	
   2.7005000e+01	  -5.4488278e-01	  -4.3379952e-01	  -3.1139418e-01	
   2.7060000e+01	  -5.5082231e-01	  -4.3801569e-01	  -3.0827666e-01	
   2.7115000e+01	  -5.5686353e-01	  -4.4222050e-01	  -3.0519408e-01	
   2.7170000e+01	  -5.6293575e-01	  -4.4625951e-01	  -3.0220051e-01	
   2.7225000e+01	  -5.6897265e-01	  -4.4998740e-01	  -2.9934931e-01	
   2.7280000e+01	  -5.7491440e-01	  -4.5327169e-01	  -2.9668872e-01	
   2.7335000e+01	  -5.8070847e-01	  -4.5599605e-01	  -2.9425721e-01	
   2.7390000e+01	  -5.8631016e-01	  -4.5806274e-01	  -2.9208047e-01	
   2.7445000e+01	  -5.9168266e-01	  -4.5939353e-01	  -2.9017107e-01	
   2.7500000e+01	  -5.9679675e-01	  -4.5992911e-01	  -2.8853057e-01	
   2.7555000e+01	  -6.0163035e-01	  -4.5962800e-01	  -2.8715324e-01	
   2.7610000e+01	  -6.0616784e-01	  -4.5846564e-01	  -2.8603019e-01	
   2.7665000e+01	  -6.1039849e-01	  -4.5643409e-01	  -2.8515219e-01	
   2.7720000e+01	  -6.1431344e-01	  -4.5354182e-01	  -2.8451058e-01	
   2.7775000e+01	  -6.1790233e-01	  -4.4981406e-01	  -2.8409735e-01	
   2.7830000e+01	  -6.2115171e-01	  -4.4529438e-01	  -2.8390605e-01	
   2.7885000e+01	  -6.2404604e-01	  -4.4004737e-01	  -2.8393453e-01	
   2.7940000e+01	  -6.2657078e-01	  -4.3416083e-01	  -2.8418903e-01	
   2.7995000e+01	  -6.2871673e-01	  -4.2774611e-01	  -2.8468892e-01	
   2.8050000e+01	  -6.3048444e-01	  -4.2093630e-01	  -2.8546933e-01	
   2.8105000e+01	  -6.3188767e-01	  -4.1388192e-01	  -2.8657884e-01	
   2.8160000e+01	  -6.3295530e-01	  -4.0674491e-01	  -2.8807201e-01	
   2.8215000e+01	  -6.3373178e-01	  -3.9969206e-01	  -2.8999971e-01	
   2.8270000e+01	  -6.3427629e-01	  -3.9288838e-01	  -2.9240027e-01	
   2.8325000e+01	  -6.3466013e-01	  -3.8648987e-01	  -2.9529345e-01	
   2.8380000e+01	  -6.3496240e-01	  -3.8063646e-01	  -2.9867794e-01	
   2.8435000e+01	  -6.3526473e-01	  -3.7544619e-01	  -3.0253206e-01	
   2.8490000e+01	  -6.3564589e-01	  -3.7101129e-01	  -3.0681627e-01	
   2.8545000e+01	  -6.3617656e-01	  -3.6739505e-01	  -3.1147562e-01	
   2.8600000e+01	  -6.3691469e-01	  -3.6462871e-01	  -3.1644158e-01	
   2.8655000e+01	  -6.3790171e-01	  -3.6270882e-01	  -3.2163396e-01	
   2.8710000e+01	  -6.3916020e-01	  -3.6159671e-01	  -3.2696349e-01	
   2.8765000e+01	  -6.4069334e-01	  -3.6122137e-01	  -3.3233432e-01	
   2.8820000e+01	  -6.4248570e-01	  -3.6148535e-01	  -3.3764624e-01	
   2.8875000e+01	  -6.4450508e-01	  -3.6227182e-01	  -3.4279722e-01	
   2.8930000e+01	  -6.4670577e-01	  -3.6345136e-01	  -3.4768667e-01	
   2.8985000e+01	  -6.4903322e-01	  -3.6488689e-01	  -3.5221936e-01	
   2.9040000e+01	  -6.5142910e-01	  -3.6643586e-01	  -3.5630945e-01	
   2.9095000e+01	  -6.5383555e-01	  -3.6795062e-01	  -3.5988436e-01	
   2.9150000e+01	  -6.5619806e-01	  -3.6927942e-01	  -3.6288847e-01	
   2.9205000e+01	  -6.5846749e-01	  -3.7026979e-01	  -3.6528492e-01	
   2.9260000e+01	  -6.6060146e-01	  -3.7077468e-01	  -3.6705497e-01	
   2.9315000e+01	  -6.6256531e-01	  -3.7066052e-01	  -3.6819597e-01	
   2.9370000e+01	  -6.6433311e-01	  -3.6981532e-01	  -3.6872000e-01	
   2.9425000e+01	  -6.6588841e-01	  -3.6815579e-01	  -3.6865295e-01	
   2.9480000e+01	  -6.6722403e-01	  -3.6563326e-01	  -3.6803214e-01	
   2.9535000e+01	  -6.6834065e-01	  -3.6223790e-01	  -3.6690211e-01	
   2.9590000e+01	  -6.6924469e-01	  -3.5800068e-01	  -3.6531035e-01	
   2.9645000e+01	  -6.6994651e-01	  -3.5299239e-01	  -3.6330500e-01	
   2.9700000e+01	  -6.7045938e-01	  -3.4731970e-01	  -3.6093481e-01	
   2.9755000e+01	  -6.7079911e-01	  -3.4111945e-01	  -3.5825020e-01	
   2.9810000e+01	  -6.7098343e-01	  -3.3455157e-01	  -3.5530350e-01	
   2.9865000e+01	  -6.7102987e-01	  -3.2779013e-01	  -3.5214742e-01	
   2.9920000e+01	  -6.7095238e-01	  -3.2101189e-01	  -3.4883177e-01	
   2.9975000e+01	  -6.7075800e-01	  -3.1438475e-01	  -3.4540015e-01	
   3.0030000e+01	  -6.7044499e-01	  -3.0805928e-01	  -3.4188780e-01	
   3.0085000e+01	  -6.7000316e-01	  -3.0216398e-01	  -3.3832099e-01	
   3.0140000e+01	  -6.6941600e-01	  -2.9680269e-01	  -3.3471798e-01	
   3.0195000e+01	  -6.6866385e-01	  -2.9205334e-01	  -3.3109215e-01	
   3.0250000e+01	  -6.6772699e-01	  -2.8796862e-01	  -3.2745680e-01	
   3.0305000e+01	  -6.6658753e-01	  -2.8457816e-01	  -3.2382952e-01	
   3.0360000e+01	  -6.6522999e-01	  -2.8189109e-01	  -3.2023399e-01	
   3.0415000e+01	  -6.6364142e-01	  -2.7989931e-01	  -3.1669821e-01	
   3.0470000e+01	  -6.6181248e-01	  -2.7858208e-01	  -3.1325086e-01	
   3.0525000e+01	  -6.5973919e-01	  -2.7791139e-01	  -3.0991826e-01	
   3.0580000e+01	  -6.5742427e-01	  -2.7785622e-01	  -3.0672340e-01	
   3.0635000e+01	  -6.5487735e-01	  -2.7838439e-01	  -3.0368687e-01	
   3.0690000e+01	  -6.5211399e-01	  -2.7946078e-01	  -3.0082758e-01	
   3.0745000e+01	  -6.4915427e-01	  -2.8104186e-01	  -2.9816195e-01	
   3.0800000e+01	  -6.4602102e-01	  -2.8306901e-01	  -2.9570159e-01	
   3.0855000e+01	  -6.4273816e-01	  -2.8546462e-01	  -2.9345016e-01	
   3.0910000e+01	  -6.3932939e-01	  -2.8813274e-01	  -2.9139984e-01	
   3.0965000e+01	  -6.3581693e-01	  -2.9096267e-01	  -2.8952695e-01	
   3.1020000e+01	  -6.3222035e-01	  -2.9383364e-01	  -2.8778754e-01	
   3.1075000e+01	  -6.2855504e-01	  -2.9661988e-01	  -2.8611416e-01	
   3.1130000e+01	  -6.2483079e-01	  -2.9919629e-01	  -2.8441520e-01	
   3.1185000e+01	  -6.2105073e-01	  -3.0144442e-01	  -2.8257754e-01	
   3.1240000e+01	  -6.1721152e-01	  -3.0325906e-01	  -2.8047221e-01	
   3.1295000e+01	  -6.1330496e-01	  -3.0455518e-01	  -2.7796244e-01	
   3.1350000e+01	  -6.0932093e-01	  -3.0527367e-01	  -2.7491382e-01	
   3.1405000e+01	  -6.0525021e-01	  -3.0538426e-01	  -2.7120495e-01	
   3.1460000e+01	  -6.0108608e-01	  -3.0488468e-01	  -2.6673627e-01	
   3.1515000e+01	  -5.9682464e-01	  -3.0379684e-01	  -2.6143593e-01	
   3.1570000e+01	  -5.9246492e-01	  -3.0216204e-01	  -2.5526343e-01	
   3.1625000e+01	  -5.8800894e-01	  -3.0003661e-01	  -2.4821202e-01	
   3.1680000e+01	  -5.8346161e-01	  -2.9748728e-01	  -2.4030881e-01	
   3.1735000e+01	  -5.7882985e-01	  -2.9458497e-01	  -2.3161170e-01	
   3.1790000e+01	  -5.7412096e-01	  -2.9139675e-01	  -2.2220401e-01	
   3.1845000e+01	  -5.6934058e-01	  -2.8797747e-01	  -2.1218918e-01	
   3.1900000e+01	  -5.6449072e-01	  -2.8436253e-01	  -2.0168688e-01	
   3.1955000e+01	  -5.5956892e-01	  -2.8056454e-01	  -1.9082936e-01	
   3.2010000e+01	  -5.5456964e-01	  -2.7657612e-01	  -1.7975795e-01	
   3.2065000e+01	  -5.4948780e-01	  -2.7237844e-01	  -1.6862047e-01	
   3.2120000e+01	  -5.4432288e-01	  -2.6795161e-01	  -1.5756936e-01	
   3.2175000e+01	  -5.3908245e-01	  -2.6328276e-01	  -1.4676006e-01	
   3.2230000e+01	  -5.3378479e-01	  -2.5836957e-01	  -1.3634906e-01	
   3.2285000e+01	  -5.2845975e-01	  -2.5322019e-01	  -1.2649152e-01	
   3.2340000e+01	  -5.2314750e-01	  -2.4785094e-01	  -1.1733730e-01	
   3.2395000e+01	  -5.1789563e-01	  -2.4228338e-01	  -1.0902466e-01	
   3.2450000e+01	  -5.1275572e-01	  -2.3654079e-01	  -1.0167220e-01	
   3.2505000e+01	  -5.0778002e-01	  -2.3064449e-01	  -9.5370494e-02	
   3.2560000e+01	  -5.0301815e-01	  -2.2461065e-01	  -9.0175036e-02	
   3.2615000e+01	  -4.9851434e-01	  -2.1844908e-01	  -8.6102223e-02	
   3.2670000e+01	  -4.9430583e-01	  -2.1216464e-01	  -8.3129099e-02	
   3.2725000e+01	  -4.9042172e-01	  -2.0575984e-01	  -8.1196330e-02	
   3.2780000e+01	  -4.8688074e-01	  -1.9923657e-01	  -8.0213223e-02	
   3.2835000e+01	  -4.8368770e-01	  -1.9259720e-01	  -8.0064464e-02	
   3.2890000e+01	  -4.8083087e-01	  -1.8584651e-01	  -8.0618354e-02	
   3.2945000e+01	  -4.7828184e-01	  -1.7899477e-01	  -8.1735074e-02	
   3.3000000e+01	  -4.7599835e-01	  -1.7206063e-01	  -8.3273368e-02	
   3.3055000e+01	  -4.7392924e-01	  -1.6507219e-01	  -8.5095501e-02	
   3.3110000e+01	  -4.7202014e-01	  -1.5806686e-01	  -8.7071457e-02	
   3.3165000e+01	  -4.7021817e-01	  -1.5109051e-01	  -8.9082830e-02	
   3.3220000e+01	  -4.6847418e-01	  -1.4419611e-01	  -9.1026152e-02	
   3.3275000e+01	  -4.6674266e-01	  -1.3744220e-01	  -9.2815840e-02	
   3.3330000e+01	  -4.6498062e-01	  -1.3089254e-01	  -9.4387059e-02	
   3.3385000e+01	  -4.6314587e-01	  -1.2461696e-01	  -9.5697602e-02	
   3.3440000e+01	  -4.6119544e-01	  -1.1869204e-01	  -9.6727774e-02	
   3.3495000e+01	  -4.5908494e-01	  -1.1320042e-01	  -9.7479273e-02	
   3.3550000e+01	  -4.5676936e-01	  -1.0822907e-01	  -9.7974769e-02	
   3.3605000e+01	  -4.5420497e-01	  -1.0386722e-01	  -9.8257831e-02	
   3.3660000e+01	  -4.5135093e-01	  -1.0020341e-01	  -9.8390734e-02	
   3.3715000e+01	  -4.4817098e-01	  -9.7321882e-02	  -9.8449022e-02	
   3.3770000e+01	  -4.4463558e-01	  -9.5298807e-02	  -9.8514852e-02	
   3.3825000e+01	  -4.4072476e-01	  -9.4198012e-02	  -9.8671787e-02	
   3.3880000e+01	  -4.3643073e-01	  -9.4065605e-02	  -9.9001530e-02	
   3.3935000e+01	  -4.3175964e-01	  -9.4924241e-02	  -9.9581545e-02	
   3.3990000e+01	  -4.2673215e-01	  -9.6768599e-02	  -1.0048259e-01	
   3.4045000e+01	  -4.2138270e-01	  -9.9562564e-02	  -1.0176551e-01	
   3.4100000e+01	  -4.1575791e-01	  -1.0323772e-01	  -1.0347792e-01	
   3.4155000e+01	  -4.0991462e-01	  -1.0769309e-01	  -1.0565274e-01	
   3.4210000e+01	  -4.0391766e-01	  -1.1279660e-01	  -1.0830957e-01	
   3.4265000e+01	  -3.9783759e-01	  -1.1838902e-01	  -1.1145686e-01	
   3.4320000e+01	  -3.9174775e-01	  -1.2429000e-01	  -1.1509263e-01	
   3.4375000e+01	  -3.8572062e-01	  -1.3030564e-01	  -1.1920387e-01	
   3.4430000e+01	  -3.7982406e-01	  -1.3623622e-01	  -1.2376635e-01	
   3.4485000e+01	  -3.7411876e-01	  -1.4188414e-01	  -1.2874583e-01	
   3.4540000e+01	  -3.6865711e-01	  -1.4706221e-01	  -1.3409977e-01	
   3.4595000e+01	  -3.6348349e-01	  -1.5160267e-01	  -1.3977881e-01	
   3.4650000e+01	  -3.5863548e-01	  -1.5536572e-01	  -1.4572769e-01	
   3.4705000e+01	  -3.5414502e-01	  -1.5824501e-01	  -1.5188522e-01	
   3.4760000e+01	  -3.5003827e-01	  -1.6016791e-01	  -1.5818276e-01	
   3.4815000e+01	  -3.4633400e-01	  -1.6109111e-01	  -1.6454127e-01	
   3.4870000e+01	  -3.4304144e-01	  -1.6099377e-01	  -1.7086884e-01	
   3.4925000e+01	  -3.4015771e-01	  -1.5987042e-01	  -1.7706046e-01	
   3.4980000e+01	  -3.3766525e-01	  -1.5772538e-01	  -1.8300118e-01	
   3.5035000e+01	  -3.3552957e-01	  -1.5457078e-01	  -1.8857273e-01	
   3.5090000e+01	  -3.3369909e-01	  -1.5042849e-01	  -1.9366380e-01	
   3.5145000e+01	  -3.3210682e-01	  -1.4533444e-01	  -1.9818203e-01	
   3.5200000e+01	  -3.3067243e-01	  -1.3934256e-01	  -2.0206398e-01	
   3.5255000e+01	  -3.2930424e-01	  -1.3252734e-01	  -2.0528010e-01	
   3.5310000e+01	  -3.2790171e-01	  -1.2498525e-01	  -2.0783446e-01	
   3.5365000e+01	  -3.2635922e-01	  -1.1683518e-01	  -2.0976110e-01	
   3.5420000e+01	  -3.2457066e-01	  -1.0821704e-01	  -2.1111966e-01	
   3.5475000e+01	  -3.2243402e-01	  -9.9288890e-02	  -2.1199151e-01	
   3.5530000e+01	  -3.1985590e-01	  -9.0222300e-02	  -2.1247461e-01	
   3.5585000e+01	  -3.1675522e-01	  -8.1194902e-02	  -2.1267427e-01	
   3.5640000e+01	  -3.1306603e-01	  -7.2379780e-02	  -2.1268958e-01	
   3.5695000e+01	  -3.0873920e-01	  -6.3933694e-02	  -2.1259888e-01	
   3.5750000e+01	  -3.0374363e-01	  -5.5987298e-02	  -2.1244914e-01	
   3.5805000e+01	  -2.9806719e-01	  -4.8639237e-02	  -2.1225187e-01	
   3.5860000e+01	  -2.9171688e-01	  -4.1954465e-02	  -2.1198474e-01	
   3.5915000e+01	  -2.8471809e-01	  -3.5966588e-02	  -2.1159647e-01	
   3.5970000e+01	  -2.7711329e-01	  -3.0683748e-02	  -2.1101337e-01	
   3.6025000e+01	  -2.6896055e-01	  -2.6096051e-02	  -2.1014724e-01	
   3.6080000e+01	  -2.6033231e-01	  -2.2181740e-02	  -2.0890360e-01	
   3.6135000e+01	  -2.5131523e-01	  -1.8911075e-02	  -2.0718901e-01	
   3.6190000e+01	  -2.4201098e-01	  -1.6248915e-02	  -2.0491679e-01	
   3.6245000e+01	  -2.3253675e-01	  -1.4156609e-02	  -2.0201176e-01	
   3.6300000e+01	  -2.2302352e-01	  -1.2592609e-02	  -1.9841445e-01	
   3.6355000e+01	  -2.1361184e-01	  -1.1511472e-02	  -1.9408474e-01	
   3.6410000e+01	  -2.0444642e-01	  -1.0861546e-02	  -1.8900440e-01	
   3.6465000e+01	  -1.9567025e-01	  -1.0581826e-02	  -1.8317915e-01	
   3.6520000e+01	  -1.8741877e-01	  -1.0598879e-02	  -1.7664009e-01	
   3.6575000e+01	  -1.7981461e-01	  -1.0825648e-02	  -1.6944445e-01	
   3.6630000e+01	  -1.7296396e-01	  -1.1163911e-02	  -1.6167442e-01	
   3.6685000e+01	  -1.6695441e-01	  -1.1510398e-02	  -1.5343240e-01	
   3.6740000e+01	  -1.6185319e-01	  -1.1764338e-02	  -1.4483114e-01	
   3.6795000e+01	  -1.5770438e-01	  -1.1833213e-02	  -1.3598044e-01	
   3.6850000e+01	  -1.5452517e-01	  -1.1635060e-02	  -1.2697415e-01	
   3.6905000e+01	  -1.5230285e-01	  -1.1098200e-02	  -1.1788156e-01	
   3.6960000e+01	  -1.5099410e-01	  -1.0160611e-02	  -1.0874498e-01	
   3.7015000e+01	  -1.5052753e-01	  -8.7704244e-03	  -9.9581924e-02	
   3.7070000e+01	  -1.5080895e-01	  -6.8877442e-03	  -9.0389672e-02	
   3.7125000e+01	  -1.5172790e-01	  -4.4870263e-03	  -8.1150107e-02	
   3.7180000e+01	  -1.5316348e-01	  -1.5586478e-03	  -7.1833767e-02	
   3.7235000e+01	  -1.5498859e-01	   1.8914707e-03	  -6.2403058e-02	
   3.7290000e+01	  -1.5707290e-01	   5.8443804e-03	  -5.2816076e-02	
   3.7345000e+01	  -1.5928493e-01	   1.0272233e-02	  -4.3031773e-02	
   3.7400000e+01	  -1.6149342e-01	   1.5143429e-02	  -3.3014722e-02	
   3.7455000e+01	  -1.6356821e-01	   2.0428032e-02	  -2.2736887e-02	
   3.7510000e+01	  -1.6538179e-01	   2.6102174e-02	  -1.2175925e-02	
   3.7565000e+01	  -1.6681182e-01	   3.2150026e-02	  -1.3116107e-03	
   3.7620000e+01	  -1.6774497e-01	   3.8562236e-02	   9.8776152e-03	
   3.7675000e+01	  -1.6808179e-01	   4.5330513e-02	   2.1416130e-02	
   3.7730000e+01	  -1.6774225e-01	   5.2439135e-02	   3.3329485e-02	
   3.7785000e+01	  -1.6667130e-01	   5.9855385e-02	   4.5639936e-02	
   3.7840000e+01	  -1.6484347e-01	   6.7521326e-02	   5.8360077e-02	
   3.7895000e+01	  -1.6226577e-01	   7.5348479e-02	   7.1484706e-02	
   3.7950000e+01	  -1.5897875e-01	   8.3215796e-02	   8.4981217e-02	
   3.8005000e+01	  -1.5505559e-01	   9.0971222e-02	   9.8780574e-02	
   3.8060000e+01	  -1.5059861e-01	   9.8437647e-02	   1.1277181e-01	
   3.8115000e+01	  -1.4573307e-01	   1.0542346e-01	   1.2680146e-01	
   3.8170000e+01	  -1.4059943e-01	   1.1173641e-01	   1.4067728e-01	
   3.8225000e+01	  -1.3534553e-01	   1.1719815e-01	   1.5417556e-01	
   3.8280000e+01	  -1.3011928e-01	   1.2165666e-01	   1.6705188e-01	
   3.8335000e+01	  -1.2506185e-01	   1.2499462e-01	   1.7905467e-01	
   3.8390000e+01	  -1.2030177e-01	   1.2713380e-01	   1.8993893e-01	
   3.8445000e+01	  -1.1595006e-01	   1.2803758e-01	   1.9947866e-01	
   3.8500000e+01	  -1.1209659e-01	   1.2771349e-01	   2.0747798e-01	
   3.8555000e+01	  -1.0880808e-01	   1.2621493e-01	   2.1378125e-01	
   3.8610000e+01	  -1.0612810e-01	   1.2363945e-01	   2.1828072e-01	
   3.8665000e+01	  -1.0407834e-01	   1.2012267e-01	   2.2092173e-01	
   3.8720000e+01	  -1.0266030e-01	   1.1582996e-01	   2.2170670e-01	
   3.8775000e+01	  -1.0185724e-01	   1.1094809e-01	   2.2069823e-01	
   3.8830000e+01	  -1.0163657e-01	   1.0567719e-01	   2.1801814e-01	
   3.8885000e+01	  -1.0195285e-01	   1.0022265e-01	   2.1384047e-01	
   3.8940000e+01	  -1.0275125e-01	   9.4786585e-02	   2.0837975e-01	
   3.8995000e+01	  -1.0397133e-01	   8.9559078e-02	   2.0187753e-01	
   3.9050000e+01	  -1.0555031e-01	   8.4709906e-02	   1.9458812e-01	
   3.9105000e+01	  -1.0742516e-01	   8.0381847e-02	   1.8676472e-01	
   3.9160000e+01	  -1.0953307e-01	   7.6686360e-02	   1.7864738e-01	
   3.9215000e+01	  -1.1181105e-01	   7.3700609e-02	   1.7045439e-01	
   3.9270000e+01	  -1.1419559e-01	   7.1464615e-02	   1.6237767e-01	
   3.9325000e+01	  -1.1662293e-01	   6.9979158e-02	   1.5458124e-01	
   3.9380000e+01	  -1.1903045e-01	   6.9206315e-02	   1.4720011e-01	
   3.9435000e+01	  -1.2135928e-01	   6.9073896e-02	   1.4033850e-01	
   3.9490000e+01	  -1.2355798e-01	   6.9482995e-02	   1.3406846e-01	
   3.9545000e+01	  -1.2558565e-01	   7.0316426e-02	   1.2843023e-01	
   3.9600000e+01	  -1.2741289e-01	   7.1446114e-02	   1.2343428e-01	
   3.9655000e+01	  -1.2902092e-01	   7.2738929e-02	   1.1906443e-01	
   3.9710000e+01	  -1.3039957e-01	   7.4061599e-02	   1.1528200e-01	
   3.9765000e+01	  -1.3154511e-01	   7.5286011e-02	   1.1203152e-01	
   3.9820000e+01	  -1.3245794e-01	   7.6295527e-02	   1.0924859e-01	
   3.9875000e+01	  -1.3314067e-01	   7.6990999e-02	   1.0686862e-01	
   3.9930000e+01	  -1.3359741e-01	   7.7294749e-02	   1.0483348e-01	
   3.9985000e+01	  -1.3383376e-01	   7.7152596e-02	   1.0309451e-01	
   4.0040000e+01	  -1.3385662e-01	   7.6535092e-02	   1.0161331e-01	
   4.0095000e+01	  -1.3367371e-01	   7.5437941e-02	   1.0036329e-01	
   4.0150000e+01	  -1.3329317e-01	   7.3880745e-02	   9.9333253e-02	
   4.0205000e+01	  -1.3272315e-01	   7.1904201e-02	   9.8532289e-02	
   4.0260000e+01	  -1.3197160e-01	   6.9566758e-02	   9.7993630e-02	
   4.0315000e+01	  -1.3104658e-01	   6.6941417e-02	   9.7774368e-02	
   4.0370000e+01	  -1.2995711e-01	   6.4113280e-02	   9.7949113e-02	
   4.0425000e+01	  -1.2871441e-01	   6.1178377e-02	   9.8598896e-02	
   4.0480000e+01	  -1.2733288e-01	   5.8242990e-02	   9.9798689e-02	
   4.0535000e+01	  -1.2583081e-01	   5.5421680e-02	   1.0160652e-01	
   4.0590000e+01	  -1.2423049e-01	   5.2833390e-02	   1.0405514e-01	
   4.0645000e+01	  -1.2255793e-01	   5.0596537e-02	   1.0714589e-01	
   4.0700000e+01	  -1.2084213e-01	   4.8823948e-02	   1.1084462e-01	
   4.0755000e+01	  -1.1911417e-01	   4.7617987e-02	   1.1507972e-01	
   4.0810000e+01	  -1.1740583e-01	   4.7066291e-02	   1.1974197e-01	
   4.0865000e+01	  -1.1574820e-01	   4.7238327e-02	   1.2468620e-01	
   4.0920000e+01	  -1.1417025e-01	   4.8182357e-02	   1.2973536e-01	
   4.0975000e+01	  -1.1269804e-01	   4.9922144e-02	   1.3468733e-01	
   4.1030000e+01	  -1.1135454e-01	   5.2453243e-02	   1.3932305e-01	
   4.1085000e+01	  -1.1016069e-01	   5.5739436e-02	   1.4341518e-01	
   4.1140000e+01	  -1.0913676e-01	   5.9710406e-02	   1.4673786e-01	
   4.1195000e+01	  -1.0830289e-01	   6.4261918e-02	   1.4907873e-01	
   4.1250000e+01	  -1.0767782e-01	   6.9259458e-02	   1.5025216e-01	
   4.1305000e+01	  -1.0727601e-01	   7.4545591e-02	   1.5011052e-01	
   4.1360000e+01	  -1.0710413e-01	   7.9950100e-02	   1.4855157e-01	
   4.1415000e+01	  -1.0715790e-01	   8.5300845e-02	   1.4552102e-01	
   4.1470000e+01	  -1.0742043e-01	   9.0433168e-02	   1.4101032e-01	
   4.1525000e+01	  -1.0786190e-01	   9.5196857e-02	   1.3505101e-01	
   4.1580000e+01	  -1.0844075e-01	   9.9460701e-02	   1.2770875e-01	
   4.1635000e+01	  -1.0910576e-01	   1.0311471e-01	   1.1907892e-01	
   4.1690000e+01	  -1.0979937e-01	   1.0606981e-01	   1.0928193e-01	
   4.1745000e+01	  -1.1046134e-01	   1.0825586e-01	   9.8456995e-02	
   4.1800000e+01	  -1.1103210e-01	   1.0961992e-01	   8.6755371e-02	
   4.1855000e+01	  -1.1145529e-01	   1.1012685e-01	   7.4335076e-02	
   4.1910000e+01	  -1.1168012e-01	   1.0976180e-01	   6.1357717e-02	
   4.1965000e+01	  -1.1166407e-01	   1.0853304e-01	   4.7986344e-02	
   4.2020000e+01	  -1.1137547e-01	   1.0647403e-01	   3.4382759e-02	
   4.2075000e+01	  -1.1079533e-01	   1.0364391e-01	   2.0702999e-02	
   4.2130000e+01	  -1.0991864e-01	   1.0012560e-01	   7.0911206e-03	
   4.2185000e+01	  -1.0875536e-01	   9.6021754e-02	  -6.3265810e-03	
   4.2240000e+01	  -1.0733045e-01	   9.1450614e-02	  -1.9444080e-02	
   4.2295000e+01	  -1.0568208e-01	   8.6542396e-02	  -3.2174100e-02	
   4.2350000e+01	  -1.0385835e-01	   8.1434730e-02	  -4.4444613e-02	
   4.2405000e+01	  -1.0191321e-01	   7.6266266e-02	  -5.6195754e-02	
   4.2460000e+01	  -9.9901648e-02	   7.1170151e-02	  -6.7378128e-02	
   4.2515000e+01	  -9.7874553e-02	   6.6269794e-02	  -7.7952771e-02	
   4.2570000e+01	  -9.5874242e-02	   6.1677357e-02	  -8.7892754e-02	
   4.2625000e+01	  -9.3931690e-02	   5.7493718e-02	  -9.7185681e-02	
   4.2680000e+01	  -9.2065442e-02	   5.3808786e-02	  -1.0583637e-01	
   4.2735000e+01	  -9.0281830e-02	   5.0701288e-02	  -1.1386979e-01	
   4.2790000e+01	  -8.8576153e-02	   4.8236891e-02	  -1.2133401e-01	
   4.2845000e+01	  -8.6934494e-02	   4.6464524e-02	  -1.2830140e-01	
   4.2900000e+01	  -8.5335727e-02	   4.5412587e-02	  -1.3486692e-01	
   4.2955000e+01	  -8.3753425e-02	   4.5086792e-02	  -1.4114267e-01	
   4.3010000e+01	  -8.2157542e-02	   4.5469678e-02	  -1.4724945e-01	
   4.3065000e+01	  -8.0515796e-02	   4.6520965e-02	  -1.5330669e-01	
   4.3120000e+01	  -7.8794758e-02	   4.8178666e-02	  -1.5942289e-01	
   4.3175000e+01	  -7.6960928e-02	   5.0361310e-02	  -1.6568843e-01	
   4.3230000e+01	  -7.4982162e-02	   5.2971346e-02	  -1.7217097e-01	
   4.3285000e+01	  -7.2829349e-02	   5.5899564e-02	  -1.7891221e-01	
   4.3340000e+01	  -7.0477738e-02	   5.9030567e-02	  -1.8592415e-01	
   4.3395000e+01	  -6.7907825e-02	   6.2248674e-02	  -1.9318505e-01	
   4.3450000e+01	  -6.5106442e-02	   6.5442839e-02	  -2.0063810e-01	
   4.3505000e+01	  -6.2068419e-02	   6.8510024e-02	  -2.0819465e-01	
   4.3560000e+01	  -5.8798258e-02	   7.1358059e-02	  -2.1574077e-01	
   4.3615000e+01	  -5.5311030e-02	   7.3909160e-02	  -2.2314477e-01	
   4.3670000e+01	  -5.1632151e-02	   7.6104088e-02	  -2.3026403e-01	
   4.3725000e+01	  -4.7796068e-02	   7.7906658e-02	  -2.3695097e-01	
   4.3780000e+01	  -4.3844014e-02	   7.9308990e-02	  -2.4305804e-01	
   4.3835000e+01	  -3.9821217e-02	   8.0337197e-02	  -2.4844306e-01	
   4.3890000e+01	  -3.5774052e-02	   8.1055204e-02	  -2.5297471e-01	
   4.3945000e+01	  -3.1747394e-02	   8.1563999e-02	  -2.5653679e-01	
   4.4000000e+01	  -2.7781909e-02	   8.1995704e-02	  -2.5903022e-01	
   4.4055000e+01	  -2.3911020e-02	   8.2504178e-02	  -2.6037382e-01	
   4.4110000e+01	  -2.0157968e-02	   8.3254626e-02	  -2.6050554e-01	
   4.4165000e+01	  -1.6533962e-02	   8.4413753e-02	  -2.5938383e-01	
   4.4220000e+01	  -1.3038074e-02	   8.6140772e-02	  -2.5698780e-01	
   4.4275000e+01	  -9.6588563e-03	   8.8579008e-02	  -2.5331674e-01	
   4.4330000e+01	  -6.3773430e-03	   9.1848088e-02	  -2.4839124e-01	
   4.4385000e+01	  -3.1707083e-03	   9.6037613e-02	  -2.4225581e-01	
   4.4440000e+01	  -1.5184205e-05	   1.0120425e-01	  -2.3498038e-01	
   4.4495000e+01	   3.1128704e-03	   1.0737334e-01	  -2.2665837e-01	
   4.4550000e+01	   6.2373317e-03	   1.1454379e-01	  -2.1740175e-01	
   4.4605000e+01	   9.3828009e-03	   1.2269460e-01	  -2.0733568e-01	
   4.4660000e+01	   1.2574452e-02	   1.3179240e-01	  -1.9659436e-01	
   4.4715000e+01	   1.5836990e-02	   1.4179972e-01	  -1.8531869e-01	
   4.4770000e+01	   1.9192544e-02	   1.5268077e-01	  -1.7365510e-01	
   4.4825000e+01	   2.2658104e-02	   1.6440203e-01	  -1.6175428e-01	
   4.4880000e+01	   2.6243829e-02	   1.7692821e-01	  -1.4976873e-01	
   4.4935000e+01	   2.9952660e-02	   1.9021681e-01	  -1.3784950e-01	
   4.4990000e+01	   3.3780560e-02	   2.0421312e-01	  -1.2614342e-01	
   4.5045000e+01	   3.7717163e-02	   2.1884577e-01	  -1.1479029e-01	
   4.5100000e+01	   4.1747362e-02	   2.3402228e-01	  -1.0391886e-01	
   4.5155000e+01	   4.5853634e-02	   2.4962440e-01	  -9.3641048e-02	
   4.5210000e+01	   5.0017879e-02	   2.6550379e-01	  -8.4045932e-02	
   4.5265000e+01	   5.4222012e-02	   2.8147941e-01	  -7.5194282e-02	
   4.5320000e+01	   5.8447921e-02	   2.9733783e-01	  -6.7114634e-02	
   4.5375000e+01	   6.2677629e-02	   3.1283662e-01	  -5.9802686e-02	
   4.5430000e+01	   6.6893854e-02	   3.2771034e-01	  -5.3225323e-02	
   4.5485000e+01	   7.1081152e-02	   3.4167891e-01	  -4.7327388e-02	
   4.5540000e+01	   7.5228070e-02	   3.5445832e-01	  -4.2037554e-02	
   4.5595000e+01	   7.9330099e-02	   3.6577256e-01	  -3.7271727e-02	
   4.5650000e+01	   8.3392439e-02	   3.7536523e-01	  -3.2935688e-02	
   4.5705000e+01	   8.7431752e-02	   3.8301118e-01	  -2.8929517e-02	
   4.5760000e+01	   9.1476715e-02	   3.8852884e-01	  -2.5154831e-02	
   4.5815000e+01	   9.5567288e-02	   3.9179293e-01	  -2.1523992e-02	
   4.5870000e+01	   9.9752528e-02	   3.9274472e-01	  -1.7969824e-02	
   4.5925000e+01	   1.0408721e-01	   3.9139844e-01	  -1.4454607e-02	
   4.5980000e+01	   1.0862814e-01	   3.8784414e-01	  -1.0976774e-02	
   4.6035000e+01	   1.1343085e-01	   3.8224721e-01	  -7.5736178e-03	
   4.6090000e+01	   1.1854699e-01	   3.7484364e-01	  -4.3192695e-03	
   4.6145000e+01	   1.2402177e-01	   3.6593040e-01	  -1.3181705e-03	
   4.6200000e+01	   1.2989178e-01	   3.5585254e-01	   1.3053189e-03	
   4.6255000e+01	   1.3618333e-01	   3.4498817e-01	   3.4200079e-03	
   4.6310000e+01	   1.4291199e-01	   3.3373226e-01	   4.9019636e-03	
   4.6365000e+01	   1.5008284e-01	   3.2247959e-01	   5.6481608e-03	
   4.6420000e+01	   1.5769051e-01	   3.1160845e-01	   5.5887204e-03	
   4.6475000e+01	   1.6571817e-01	   3.0146604e-01	   4.6966642e-03	
   4.6530000e+01	   1.7413536e-01	   2.9235592e-01	   2.9937537e-03	
   4.6585000e+01	   1.8289540e-01	   2.8452766e-01	   5.5123018e-04	
   4.6640000e+01	   1.9193378e-01	   2.7816932e-01	  -2.5146837e-03	
   4.6695000e+01	   2.0116884e-01	   2.7340370e-01	  -6.0516564e-03	
   4.6750000e+01	   2.1050514e-01	   2.7028881e-01	  -9.8828951e-03	
   4.6805000e+01	   2.1983928e-01	   2.6882237e-01	  -1.3819057e-02	
   4.6860000e+01	   2.2906723e-01	   2.6895010e-01	  -1.7668169e-02	
   4.6915000e+01	   2.3809176e-01	   2.7057643e-01	  -2.1243734e-02	
   4.6970000e+01	   2.4682805e-01	   2.7357546e-01	  -2.4372762e-02	
   4.7025000e+01	   2.5520572e-01	   2.7780024e-01	  -2.6903658e-02	
   4.7080000e+01	   2.6316770e-01	   2.8308991e-01	  -2.8711905e-02	
   4.7135000e+01	   2.7066775e-01	   2.8927490e-01	  -2.9702549e-02	
   4.7190000e+01	   2.7766810e-01	   2.9618082e-01	  -2.9811187e-02	
   4.7245000e+01	   2.8413815e-01	   3.0363232e-01	  -2.9005246e-02	
   4.7300000e+01	   2.9005416e-01	   3.1145789e-01	  -2.7285197e-02	
   4.7355000e+01	   2.9539987e-01	   3.1949412e-01	  -2.4684362e-02	
   4.7410000e+01	   3.0016670e-01	   3.2758759e-01	  -2.1266987e-02	
   4.7465000e+01	   3.0435314e-01	   3.3559460e-01	  -1.7124583e-02	
   4.7520000e+01	   3.0796457e-01	   3.4338167e-01	  -1.2370317e-02	
   4.7575000e+01	   3.1101450e-01	   3.5082887e-01	  -7.1319053e-03	
   4.7630000e+01	   3.1352658e-01	   3.5783490e-01	  -1.5440102e-03	
   4.7685000e+01	   3.1553644e-01	   3.6432113e-01	   4.2598227e-03	
   4.7740000e+01	   3.1709248e-01	   3.7023303e-01	   1.0156112e-02	
   4.7795000e+01	   3.1825521e-01	   3.7553909e-01	   1.6040498e-02	
   4.7850000e+01	   3.1909546e-01	   3.8022856e-01	   2.1835169e-02	
   4.7905000e+01	   3.1969137e-01	   3.8430818e-01	   2.7493118e-02	
   4.7960000e+01	   3.2012418e-01	   3.8779696e-01	   3.2998266e-02	
   4.8015000e+01	   3.2047314e-01	   3.9071826e-01	   3.8361115e-02	
   4.8070000e+01	   3.2081010e-01	   3.9309122e-01	   4.3610749e-02	
   4.8125000e+01	   3.2119440e-01	   3.9492460e-01	   4.8785205e-02	
   4.8180000e+01	   3.2166908e-01	   3.9621552e-01	   5.3922193e-02	
   4.8235000e+01	   3.2225947e-01	   3.9695275e-01	   5.9051089e-02	
   4.8290000e+01	   3.2297408e-01	   3.9712181e-01	   6.4186437e-02	
   4.8345000e+01	   3.2380693e-01	   3.9670931e-01	   6.9323606e-02	
   4.8400000e+01	   3.2474071e-01	   3.9570562e-01	   7.4437891e-02	
   4.8455000e+01	   3.2575031e-01	   3.9410652e-01	   7.9487553e-02	
   4.8510000e+01	   3.2680625e-01	   3.9191428e-01	   8.4418927e-02	
   4.8565000e+01	   3.2787764e-01	   3.8913743e-01	   8.9171197e-02	
   4.8620000e+01	   3.2893480e-01	   3.8578965e-01	   9.3680169e-02	
   4.8675000e+01	   3.2995134e-01	   3.8188849e-01	   9.7881537e-02	
   4.8730000e+01	   3.3090497e-01	   3.7745430e-01	   1.0171335e-01	
   4.8785000e+01	   3.3177667e-01	   3.7250932e-01	   1.0511687e-01	
   4.8840000e+01	   3.3254911e-01	   3.6707697e-01	   1.0803562e-01	
   4.8895000e+01	   3.3320528e-01	   3.6118186e-01	   1.1041248e-01	
   4.8950000e+01	   3.3372801e-01	   3.5485180e-01	   1.1218467e-01	
   4.9005000e+01	   3.3410074e-01	   3.4812272e-01	   1.1327812e-01	
   4.9060000e+01	   3.3430980e-01	   3.4104623e-01	   1.1360480e-01	
   4.9115000e+01	   3.3434782e-01	   3.3369721e-01	   1.1306517e-01	
   4.9170000e+01	   3.3421735e-01	   3.2617810e-01	   1.1155465e-01	
   4.9225000e+01	   3.3393340e-01	   3.1861824e-01	   1.0897173e-01	
   4.9280000e+01	   3.3352384e-01	   3.1116958e-01	   1.0522622e-01	
   4.9335000e+01	   3.3302740e-01	   3.0400061e-01	   1.0024743e-01	
   4.9390000e+01	   3.3248995e-01	   2.9728849e-01	   9.3992902e-02	
   4.9445000e+01	   3.3195976e-01	   2.9120884e-01	   8.6456981e-02	
   4.9500000e+01	   3.3148237e-01	   2.8592273e-01	   7.7677764e-02	
   4.9555000e+01	   3.3109531e-01	   2.8156296e-01	   6.7740342e-02	
   4.9610000e+01	   3.3082360e-01	   2.7822216e-01	   5.6775995e-02	
   4.9665000e+01	   3.3067725e-01	   2.7594506e-01	   4.4958772e-02	
   4.9720000e+01	   3.3065153e-01	   2.7472573e-01	   3.2500873e-02	
   4.9775000e+01	   3.3072966e-01	   2.7450982e-01	   1.9646179e-02	
   4.9830000e+01	   3.3088640e-01	   2.7520051e-01	   6.6605117e-03	
   4.9885000e+01	   3.3109179e-01	   2.7666709e-01	  -6.1810458e-03	
   4.9940000e+01	   3.3131462e-01	   2.7875501e-01	  -1.8607686e-02	
   4.9995000e+01	   3.3152572e-01	   2.8129659e-01	  -3.0365415e-02	
   5.0050000e+01	   3.3170042e-01	   2.8412125e-01	  -4.1227773e-02	
   5.0105000e+01	   3.3181992e-01	   2.8706417e-01	  -5.1003909e-02	
   5.0160000e+01	   3.3187199e-01	   2.8997286e-01	  -5.9543036e-02	
   5.0215000e+01	   3.3185179e-01	   2.9271100e-01	  -6.6735154e-02	
   5.0270000e+01	   3.3176281e-01	   2.9515930e-01	  -7.2509204e-02	
   5.0325000e+01	   3.3161717e-01	   2.9721362e-01	  -7.6830477e-02	
   5.0380000e+01	   3.3143443e-01	   2.9878188e-01	  -7.9698941e-02	
   5.0435000e+01	   3.3123919e-01	   2.9978178e-01	  -8.1149144e-02	
   5.0490000e+01	   3.3105825e-01	   3.0014040e-01	  -8.1250456e-02	
   5.0545000e+01	   3.3091829e-01	   2.9979665e-01	  -8.0105185e-02	
   5.0600000e+01	   3.3084479e-01	   2.9870639e-01	  -7.7843284e-02	
   5.0655000e+01	   3.3086217e-01	   2.9684862e-01	  -7.4614591e-02	
   5.0710000e+01	   3.3099400e-01	   2.9422992e-01	  -7.0580022e-02	
   5.0765000e+01	   3.3126258e-01	   2.9088565e-01	  -6.5902109e-02	
   5.0820000e+01	   3.3168777e-01	   2.8687890e-01	  -6.0734912e-02	
   5.0875000e+01	   3.3228514e-01	   2.8229844e-01	  -5.5214295e-02	
   5.0930000e+01	   3.3306339e-01	   2.7725499e-01	  -4.9450805e-02	
   5.0985000e+01	   3.3402153e-01	   2.7187531e-01	  -4.3526788e-02	
   5.1040000e+01	   3.3514733e-01	   2.6629476e-01	  -3.7497192e-02	
   5.1095000e+01	   3.3641779e-01	   2.6065004e-01	  -3.1393125e-02	
   5.1150000e+01	   3.3780073e-01	   2.5507250e-01	  -2.5228359e-02	
   5.1205000e+01	   3.3925559e-01	   2.4968157e-01	  -1.9008397e-02	
   5.1260000e+01	   3.4073324e-01	   2.4457805e-01	  -1.2739353e-02	
   5.1315000e+01	   3.4217585e-01	   2.3983783e-01	  -6.4335593e-03	
   5.1370000e+01	   3.4351830e-01	   2.3550684e-01	  -1.1115199e-04	
   5.1425000e+01	   3.4469051e-01	   2.3159873e-01	   6.2006992e-03	
   5.1480000e+01	   3.4562038e-01	   2.2809566e-01	   1.2469306e-02	
   5.1535000e+01	   3.4623727e-01	   2.2495133e-01	   1.8658086e-02	
   5.1590000e+01	   3.4647601e-01	   2.2209453e-01	   2.4727795e-02	
   5.1645000e+01	   3.4628129e-01	   2.1943301e-01	   3.0636728e-02	
   5.1700000e+01	   3.4561186e-01	   2.1685913e-01	   3.6339642e-02	
   5.1755000e+01	   3.4444353e-01	   2.1425726e-01	   4.1785732e-02	
   5.1810000e+01	   3.4277045e-01	   2.1151119e-01	   4.6916978e-02	
   5.1865000e+01	   3.4060445e-01	   2.0850963e-01	   5.1668658e-02	
   5.1920000e+01	   3.3797385e-01	   2.0514963e-01	   5.5972966e-02	
   5.1975000e+01	   3.3492253e-01	   2.0133847e-01	   5.9764931e-02	
   5.2030000e+01	   3.3150901e-01	   1.9699470e-01	   6.2988889e-02	
   5.2085000e+01	   3.2780452e-01	   1.9204892e-01	   6.5604330e-02	
   5.2140000e+01	   3.2389033e-01	   1.8644580e-01	   6.7590732e-02	
   5.2195000e+01	   3.1985499e-01	   1.8014781e-01	   6.8950704e-02	
   5.2250000e+01	   3.1579155e-01	   1.7313912e-01	   6.9710107e-02	
   5.2305000e+01	   3.1179441e-01	   1.6542779e-01	   6.9915002e-02	
   5.2360000e+01	   3.0795630e-01	   1.5704569e-01	   6.9627041e-02	
   5.2415000e+01	   3.0436569e-01	   1.4804715e-01	   6.8919137e-02	
   5.2470000e+01	   3.0110423e-01	   1.3850681e-01	   6.7871914e-02	
   5.2525000e+01	   2.9824414e-01	   1.2851676e-01	   6.6570152e-02	
   5.2580000e+01	   2.9584612e-01	   1.1818418e-01	   6.5098275e-02	
   5.2635000e+01	   2.9395875e-01	   1.0763021e-01	   6.3534869e-02	
   5.2690000e+01	   2.9261831e-01	   9.6989380e-02	   6.1947143e-02	
   5.2745000e+01	   2.9184805e-01	   8.6407967e-02	   6.0386277e-02	
   5.2800000e+01	   2.9165666e-01	   7.6041297e-02	   5.8884327e-02	
   5.2855000e+01	   2.9203703e-01	   6.6050875e-02	   5.7453675e-02	
   5.2910000e+01	   2.9296589e-01	   5.6600965e-02	   5.6089339e-02	
   5.2965000e+01	   2.9440420e-01	   4.7852935e-02	   5.4772915e-02	
   5.3020000e+01	   2.9629767e-01	   3.9956847e-02	   5.3476723e-02	
   5.3075000e+01	   2.9857711e-01	   3.3041329e-02	   5.2167700e-02	
   5.3130000e+01	   3.0115899e-01	   2.7203103e-02	   5.0810994e-02	
   5.3185000e+01	   3.0394722e-01	   2.2498317e-02	   4.9373450e-02	
   5.3240000e+01	   3.0683662e-01	   1.8938469e-02	   4.7827937e-02	
   5.3295000e+01	   3.0971778e-01	   1.6491649e-02	   4.6159005e-02	
   5.3350000e+01	   3.1248239e-01	   1.5086578e-02	   4.4368295e-02	
   5.3405000e+01	   3.1502852e-01	   1.4617085e-02	   4.2477520e-02	
   5.3460000e+01	   3.1726542e-01	   1.4948092e-02	   4.0528708e-02	
   5.3515000e+01	   3.1911762e-01	   1.5925473e-02	   3.8582341e-02	
   5.3570000e+01	   3.2052760e-01	   1.7389012e-02	   3.6713464e-02	
   5.3625000e+01	   3.2145597e-01	   1.9184697e-02	   3.5006223e-02	
   5.3680000e+01	   3.2188012e-01	   2.1173791e-02	   3.3548828e-02	
   5.3735000e+01	   3.2179255e-01	   2.3239655e-02	   3.2430707e-02	
   5.3790000e+01	   3.2120024e-01	   2.5293963e-02	   3.1741386e-02	
   5.3845000e+01	   3.2012471e-01	   2.7281671e-02	   3.1568659e-02	
   5.3900000e+01	   3.1860243e-01	   2.9182618e-02	   3.1994166e-02	
   5.3955000e+01	   3.1668499e-01	   3.1008705e-02	   3.3086809e-02	
   5.4010000e+01	   3.1443846e-01	   3.2797118e-02	   3.4895695e-02	
   5.4065000e+01	   3.1194164e-01	   3.4600748e-02	   3.7443553e-02	
   5.4120000e+01	   3.0928346e-01	   3.6477674e-02	   4.0721132e-02	
   5.4175000e+01	   3.0656024e-01	   3.8482075e-02	   4.4683688e-02	
   5.4230000e+01	   3.0387309e-01	   4.0657218e-02	   4.9250428e-02	
   5.4285000e+01	   3.0132409e-01	   4.3028999e-02	   5.4307112e-02	
   5.4340000e+01	   2.9901067e-01	   4.5599796e-02	   5.9712061e-02	
   5.4395000e+01	   2.9701884e-01	   4.8345094e-02	   6.5305238e-02	
   5.4450000e+01	   2.9541707e-01	   5.1214758e-02	   7.0918621e-02	
   5.4505000e+01	   2.9425214e-01	   5.4138101e-02	   7.6386065e-02	
   5.4560000e+01	   2.9354720e-01	   5.7030853e-02	   8.1552895e-02	
   5.4615000e+01	   2.9330178e-01	   5.9802546e-02	   8.6286792e-02	
   5.4670000e+01	   2.9349330e-01	   6.2363031e-02	   9.0489505e-02	
   5.4725000e+01	   2.9407934e-01	   6.4627015e-02	   9.4106070e-02	
   5.4780000e+01	   2.9500049e-01	   6.6516257e-02	   9.7128595e-02	
   5.4835000e+01	   2.9618332e-01	   6.7959602e-02	   9.9594590e-02	
   5.4890000e+01	   2.9754316e-01	   6.8891019e-02	   1.0158142e-01	
   5.4945000e+01	   2.9898660e-01	   6.9246869e-02	   1.0319817e-01	
   5.5000000e+01	   3.0041417e-01	   6.8965221e-02	   1.0457614e-01	
   5.5055000e+01	   3.0172385e-01	   6.7989068e-02	   1.0585959e-01	
   5.5110000e+01	   3.0281427e-01	   6.6272488e-02	   1.0719737e-01	
   5.5165000e+01	   3.0358734e-01	   6.3787630e-02	   1.0873480e-01	
   5.5220000e+01	   3.0395079e-01	   6.0531518e-02	   1.1060519e-01	
   5.5275000e+01	   3.0382155e-01	   5.6531936e-02	   1.1292139e-01	
   5.5330000e+01	   3.0312914e-01	   5.1850864e-02	   1.1576847e-01	
   5.5385000e+01	   3.0181823e-01	   4.6584287e-02	   1.1919842e-01	
   5.5440000e+01	   2.9984993e-01	   4.0858653e-02	   1.2322792e-01	
   5.5495000e+01	   2.9720265e-01	   3.4825079e-02	   1.2783977e-01	
   5.5550000e+01	   2.9387290e-01	   2.8652271e-02	   1.3298793e-01	
   5.5605000e+01	   2.8987548e-01	   2.2518427e-02	   1.3860505e-01	
   5.5660000e+01	   2.8524317e-01	   1.6602077e-02	   1.4461066e-01	
   5.5715000e+01	   2.8002579e-01	   1.1072349e-02	   1.5091862e-01	
   5.5770000e+01	   2.7428920e-01	   6.0796199e-03	   1.5744363e-01	
   5.5825000e+01	   2.6811398e-01	   1.7474664e-03	   1.6410741e-01	
   5.5880000e+01	   2.6159347e-01	  -1.8327683e-03	   1.7084486e-01	
   5.5935000e+01	   2.5483074e-01	  -4.6033299e-03	   1.7760907e-01	
   5.5990000e+01	   2.4793408e-01	  -6.5375921e-03	   1.8437259e-01	
   5.6045000e+01	   2.4101046e-01	  -7.6361336e-03	   1.9112366e-01	
   5.6100000e+01	   2.3415849e-01	  -7.9233758e-03	   1.9785891e-01	
   5.6155000e+01	   2.2746267e-01	  -7.4448341e-03	   2.0457507e-01	
   5.6210000e+01	   2.2099020e-01	  -6.2641572e-03	   2.1126087e-01	
   5.6265000e+01	   2.1478968e-01	  -4.4597507e-03	   2.1788923e-01	
   5.6320000e+01	   2.0889079e-01	  -2.1213973e-03	   2.2441087e-01	
   5.6375000e+01	   2.0330513e-01	   6.5298742e-04	   2.3075101e-01	
   5.6430000e+01	   1.9802839e-01	   3.7610123e-03	   2.3680974e-01	
   5.6485000e+01	   1.9304351e-01	   7.1005598e-03	   2.4246675e-01	
   5.6540000e+01	   1.8832470e-01	   1.0575465e-02	   2.4759035e-01	
   5.6595000e+01	   1.8384171e-01	   1.4100625e-02	   2.5204922e-01	
   5.6650000e+01	   1.7956342e-01	   1.7604735e-02	   2.5572436e-01	
   5.6705000e+01	   1.7545928e-01	   2.1030583e-02	   2.5851960e-01	
   5.6760000e+01	   1.7149871e-01	   2.4334841e-02	   2.6037019e-01	
   5.6815000e+01	   1.6764985e-01	   2.7488968e-02	   2.6124873e-01	
   5.6870000e+01	   1.6387918e-01	   3.0480586e-02	   2.6116688e-01	
   5.6925000e+01	   1.6015231e-01	   3.3313736e-02	   2.6017301e-01	
   5.6980000e+01	   1.5643576e-01	   3.6007805e-02	   2.5834834e-01	
   5.7035000e+01	   1.5269895e-01	   3.8595754e-02	   2.5580392e-01	
   5.7090000e+01	   1.4891564e-01	   4.1121505e-02	   2.5267703e-01	
   5.7145000e+01	   1.4506434e-01	   4.3636179e-02	   2.4912361e-01	
   5.7200000e+01	   1.4112827e-01	   4.6193955e-02	   2.4530650e-01	
   5.7255000e+01	   1.3709595e-01	   4.8848281e-02	   2.4138290e-01	
   5.7310000e+01	   1.3296235e-01	   5.1647854e-02	   2.3749438e-01	
   5.7365000e+01	   1.2872916e-01	   5.4631614e-02	   2.3376011e-01	
   5.7420000e+01	   1.2440393e-01	   5.7823867e-02	   2.3027283e-01	
   5.7475000e+01	   1.1999848e-01	   6.1231808e-02	   2.2709714e-01	
   5.7530000e+01	   1.1552784e-01	   6.4846280e-02	   2.2426952e-01	
   5.7585000e+01	   1.1100970e-01	   6.8645047e-02	   2.2179982e-01	
   5.7640000e+01	   1.0646460e-01	   7.2597913e-02	   2.1967524e-01	
   5.7695000e+01	   1.0191670e-01	   7.6672976e-02	   2.1786754e-01	
   5.7750000e+01	   9.7394446e-02	   8.0842370e-02	   2.1634190e-01	
   5.7805000e+01	   9.2930564e-02	   8.5086007e-02	   2.1506574e-01	
   5.7860000e+01	   8.8561454e-02	   8.9393299e-02	   2.1401644e-01	
   5.7915000e+01	   8.4326188e-02	   9.3763362e-02	   2.1318803e-01	
   5.7970000e+01	   8.0264830e-02	   9.8203646e-02	   2.1259538e-01	
   5.8025000e+01	   7.6416006e-02	   1.0272708e-01	   2.1227559e-01	
   5.8080000e+01	   7.2814543e-02	   1.0734915e-01	   2.1228805e-01	
   5.8135000e+01	   6.9489707e-02	   1.1208620e-01	   2.1271589e-01	
   5.8190000e+01	   6.6463647e-02	   1.1695531e-01	   2.1366779e-01	
   5.8245000e+01	   6.3749458e-02	   1.2197498e-01	   2.1527655e-01	
   5.8300000e+01	   6.1348869e-02	   1.2716651e-01	   2.1769122e-01	
   5.8355000e+01	   5.9250038e-02	   1.3255566e-01	   2.2106374e-01	
   5.8410000e+01	   5.7426016e-02	   1.3817412e-01	   2.2553395e-01	
   5.8465000e+01	   5.5834447e-02	   1.4406045e-01	   2.3121738e-01	
   5.8520000e+01	   5.4418870e-02	   1.5025988e-01	   2.3819743e-01	
   5.8575000e+01	   5.3111046e-02	   1.5682271e-01	   2.4652065e-01	
   5.8630000e+01	   5.1833290e-02	   1.6380076e-01	   2.5619322e-01	
   5.8685000e+01	   5.0500564e-02	   1.7124146e-01	   2.6717833e-01	
   5.8740000e+01	   4.9023212e-02	   1.7918003e-01	   2.7939599e-01	
   5.8795000e+01	   4.7311032e-02	   1.8763142e-01	   2.9272733e-01	
   5.8850000e+01	   4.5277814e-02	   1.9658426e-01	   3.0702330e-01	
   5.8905000e+01	   4.2844628e-02	   2.0599847e-01	   3.2211590e-01	
   5.8960000e+01	   3.9941372e-02	   2.1580705e-01	   3.3782940e-01	
   5.9015000e+01	   3.6507826e-02	   2.2592203e-01	   3.5398988e-01	
   5.9070000e+01	   3.2495629e-02	   2.3624147e-01	   3.7043247e-01	
   5.9125000e+01	   2.7871187e-02	   2.4665404e-01	   3.8700560e-01	
   5.9180000e+01	   2.2618543e-02	   2.5704000e-01	   4.0357210e-01	
   5.9235000e+01	   1.6741495e-02	   2.6727054e-01	   4.2000722e-01	
   5.9290000e+01	   1.0264709e-02	   2.7720856e-01	   4.3619479e-01	
   5.9345000e+01	   3.2336839e-03	   2.8671194e-01	   4.5202249e-01	
   5.9400000e+01	  -4.2861029e-03	   2.9563915e-01	   4.6737846e-01	
   5.9455000e+01	  -1.2210246e-02	   3.0385618e-01	   4.8215162e-01	
   5.9510000e+01	  -2.0436711e-02	   3.1124323e-01	   4.9623572e-01	
   5.9565000e+01	  -2.8848049e-02	   3.1769991e-01	   5.0953415e-01	
   5.9620000e+01	  -3.7314671e-02	   3.2314806e-01	   5.2196281e-01	
   5.9675000e+01	  -4.5698777e-02	   3.2753230e-01	   5.3345102e-01	
   5.9730000e+01	  -5.3859168e-02	   3.3081802e-01	   5.4394196e-01	
   5.9785000e+01	  -6.1657632e-02	   3.3298744e-01	   5.5339314e-01	
   5.9840000e+01	  -6.8966923e-02	   3.3403528e-01	   5.6177590e-01	
   5.9895000e+01	  -7.5679045e-02	   3.3396551e-01	   5.6907428e-01	
   5.9950000e+01	  -8.1712198e-02	   3.3278867e-01	   5.7528420e-01	
   6.0005000e+01	  -8.7015229e-02	   3.3051986e-01	   5.8041312e-01	
   6.0060000e+01	  -9.1569096e-02	   3.2717819e-01	   5.8447995e-01	
   6.0115000e+01	  -9.5385455e-02	   3.2278867e-01	   5.8751543e-01	
   6.0170000e+01	  -9.8503242e-02	   3.1738573e-01	   5.8956302e-01	
   6.0225000e+01	  -1.0098458e-01	   3.1101727e-01	   5.9068021e-01	
   6.0280000e+01	  -1.0291064e-01	   3.0374800e-01	   5.9094059e-01	
   6.0335000e+01	  -1.0437726e-01	   2.9566195e-01	   5.9043752e-01	
   6.0390000e+01	  -1.0549012e-01	   2.8686371e-01	   5.8928746e-01	
   6.0445000e+01	  -1.0635989e-01	   2.7747765e-01	   5.8763023e-01	
   6.0500000e+01	  -1.0709723e-01	   2.6764507e-01	   5.8562572e-01	
   6.0555000e+01	  -1.0780826e-01	   2.5751929e-01	   5.8344864e-01	
   6.0610000e+01	  -1.0859102e-01	   2.4725901e-01	   5.8128212e-01	
   6.0665000e+01	  -1.0953339e-01	   2.3702070e-01	   5.7930965e-01	
   6.0720000e+01	  -1.1071192e-01	   2.2695184e-01	   5.7770691e-01	
   6.0775000e+01	  -1.1218995e-01	   2.1718679e-01	   5.7663525e-01	
   6.0830000e+01	  -1.1401500e-01	   2.0784585e-01	   5.7623678e-01	
   6.0885000e+01	  -1.1621621e-01	   1.9903706e-01	   5.7662913e-01	
   6.0940000e+01	  -1.1880239e-01	   1.9085947e-01	   5.7789969e-01	
   6.0995000e+01	  -1.2176057e-01	   1.8340616e-01	   5.8010038e-01	
   6.1050000e+01	  -1.2505535e-01	   1.7676471e-01	   5.8324296e-01	
   6.1105000e+01	  -1.2863042e-01	   1.7101472e-01	   5.8729499e-01	
   6.1160000e+01	  -1.3241228e-01	   1.6622417e-01	   5.9217748e-01	
   6.1215000e+01	  -1.3631538e-01	   1.6244543e-01	   5.9776472e-01	
   6.1270000e+01	  -1.4024766e-01	   1.5971112e-01	   6.0388589e-01	
   6.1325000e+01	  -1.4411545e-01	   1.5802994e-01	   6.1032826e-01	
   6.1380000e+01	  -1.4782693e-01	   1.5738406e-01	   6.1684389e-01	
   6.1435000e+01	  -1.5129400e-01	   1.5772816e-01	   6.2316011e-01	
   6.1490000e+01	  -1.5443361e-01	   1.5898931e-01	   6.2899324e-01	
   6.1545000e+01	  -1.5716979e-01	   1.6106789e-01	   6.3406407e-01	
   6.1600000e+01	  -1.5943685e-01	   1.6384047e-01	   6.3811402e-01	
   6.1655000e+01	  -1.6118292e-01	   1.6716507e-01	   6.4091994e-01	
   6.1710000e+01	  -1.6237321e-01	   1.7088718e-01	   6.4230489e-01	
   6.1765000e+01	  -1.6299257e-01	   1.7484571e-01	   6.4214369e-01	
   6.1820000e+01	  -1.6304694e-01	   1.7887908e-01	   6.4036483e-01	
   6.1875000e+01	  -1.6256358e-01	   1.8283218e-01	   6.3695193e-01	
   6.1930000e+01	  -1.6158959e-01	   1.8656298e-01	   6.3194558e-01	
   6.1985000e+01	  -1.6018887e-01	   1.8994690e-01	   6.2544428e-01	
   6.2040000e+01	  -1.5843771e-01	   1.9287812e-01	   6.1760252e-01	
   6.2095000e+01	  -1.5641927e-01	   1.9526916e-01	   6.0862498e-01	
   6.2150000e+01	  -1.5421799e-01	   1.9705000e-01	   5.9875536e-01	
   6.2205000e+01	  -1.5191476e-01	   1.9816689e-01	   5.8826038e-01	
   6.2260000e+01	  -1.4958353e-01	   1.9858110e-01	   5.7741126e-01	
   6.2315000e+01	  -1.4728951e-01	   1.9826760e-01	   5.6646614e-01	
   6.2370000e+01	  -1.4508832e-01	   1.9721350e-01	   5.5565578e-01	
   6.2425000e+01	  -1.4302626e-01	   1.9541619e-01	   5.4517344e-01	
   6.2480000e+01	  -1.4114085e-01	   1.9288207e-01	   5.3516821e-01	
   6.2535000e+01	  -1.3946154e-01	   1.8962562e-01	   5.2574120e-01	
   6.2590000e+01	  -1.3801052e-01	   1.8566771e-01	   5.1694350e-01	
   6.2645000e+01	  -1.3680377e-01	   1.8103309e-01	   5.0877559e-01	
   6.2700000e+01	  -1.3585189e-01	   1.7574791e-01	   5.0118855e-01	
   6.2755000e+01	  -1.3516008e-01	   1.6983786e-01	   4.9408932e-01	
   6.2810000e+01	  -1.3472755e-01	   1.6332664e-01	   4.8735173e-01	
   6.2865000e+01	  -1.3454666e-01	   1.5623469e-01	   4.8083232e-01	
   6.2920000e+01	  -1.3460254e-01	   1.4857863e-01	   4.7438777e-01	
   6.2975000e+01	  -1.3487316e-01	   1.4037195e-01	   4.6789153e-01	
   6.3030000e+01	  -1.3533025e-01	   1.3162614e-01	   4.6124744e-01	
   6.3085000e+01	  -1.3594124e-01	   1.2235099e-01	   4.5439963e-01	
   6.3140000e+01	  -1.3667152e-01	   1.1255352e-01	   4.4733810e-01	
   6.3195000e+01	  -1.3748642e-01	   1.0223629e-01	   4.4010034e-01	
   6.3250000e+01	  -1.3835216e-01	   9.1396235e-02	   4.3276835e-01	
   6.3305000e+01	  -1.3923649e-01	   8.0025110e-02	   4.2546076e-01	
   6.3360000e+01	  -1.4010900e-01	   6.8112697e-02	   4.1832041e-01	
   6.3415000e+01	  -1.4094173e-01	   5.5652610e-02	   4.1149977e-01	
   6.3470000e+01	  -1.4171011e-01	   4.2648639e-02	   4.0514725e-01	
   6.3525000e+01	  -1.4239443e-01	   2.9118795e-02	   3.9939758e-01	
   6.3580000e+01	  -1.4298120e-01	   1.5096601e-02	   3.9436695e-01	
   6.3635000e+01	  -1.4346335e-01	   6.3157050e-04	   3.9015068e-01	
   6.3690000e+01	  -1.4383914e-01	  -1.4210268e-02	   3.8682050e-01	
   6.3745000e+01	  -1.4411063e-01	  -2.9347004e-02	   3.8442043e-01	
   6.3800000e+01	  -1.4428202e-01	  -4.4683297e-02	   3.8296230e-01	
   6.3855000e+01	  -1.4435807e-01	  -6.0113973e-02	   3.8242300e-01	
   6.3910000e+01	  -1.4434285e-01	  -7.5528340e-02	   3.8274455e-01	
   6.3965000e+01	  -1.4423945e-01	  -9.0815431e-02	   3.8383613e-01	
   6.4020000e+01	  -1.4405090e-01	  -1.0586997e-01	   3.8557670e-01	
   6.4075000e+01	  -1.4378221e-01	  -1.2059782e-01	   3.8781802e-01	
   6.4130000e+01	  -1.4344300e-01	  -1.3491881e-01	   3.9038918e-01	
   6.4185000e+01	  -1.4304982e-01	  -1.4876505e-01	   3.9310381e-01	
   6.4240000e+01	  -1.4262718e-01	  -1.6207494e-01	   3.9576979e-01	
   6.4295000e+01	  -1.4220674e-01	  -1.7478558e-01	   3.9820002e-01	
   6.4350000e+01	  -1.4182576e-01	  -1.8682708e-01	   4.0022236e-01	
   6.4405000e+01	  -1.4152523e-01	  -1.9812111e-01	   4.0168690e-01	
   6.4460000e+01	  -1.4134758e-01	  -2.0858355e-01	   4.0246987e-01	
   6.4515000e+01	  -1.4133329e-01	  -2.1813088e-01	   4.0247411e-01	
   6.4570000e+01	  -1.4151661e-01	  -2.2668959e-01	   4.0162707e-01	
   6.4625000e+01	  -1.4192115e-01	  -2.3420765e-01	   3.9987820e-01	
   6.4680000e+01	  -1.4255671e-01	  -2.4066508e-01	   3.9719825e-01	
   6.4735000e+01	  -1.4341774e-01	  -2.4608055e-01	   3.9358007e-01	
   6.4790000e+01	  -1.4448415e-01	  -2.5051253e-01	   3.8903797e-01	
   6.4845000e+01	  -1.4572412e-01	  -2.5405526e-01	   3.8360390e-01	
   6.4900000e+01	  -1.4709736e-01	  -2.5683071e-01	   3.7732226e-01	
   6.4955000e+01	  -1.4855734e-01	  -2.5897844e-01	   3.7024592e-01	
   6.5010000e+01	  -1.5005247e-01	  -2.6064584e-01	   3.6243350e-01	
   6.5065000e+01	  -1.5152712e-01	  -2.6197986e-01	   3.5394669e-01	
   6.5120000e+01	  -1.5292258e-01	  -2.6311998e-01	   3.4484784e-01	
   6.5175000e+01	  -1.5417751e-01	  -2.6419139e-01	   3.3519808e-01	
   6.5230000e+01	  -1.5522788e-01	  -2.6529917e-01	   3.2505470e-01	
   6.5285000e+01	  -1.5600715e-01	  -2.6652475e-01	   3.1446661e-01	
   6.5340000e+01	  -1.5644637e-01	  -2.6792513e-01	   3.0346980e-01	
   6.5395000e+01	  -1.5647413e-01	  -2.6953393e-01	   2.9208577e-01	
   6.5450000e+01	  -1.5601643e-01	  -2.7136340e-01	   2.8032400e-01	
   6.5505000e+01	  -1.5499730e-01	  -2.7340681e-01	   2.6818798e-01	
   6.5560000e+01	  -1.5334106e-01	  -2.7564126e-01	   2.5568338e-01	
   6.5615000e+01	  -1.5097623e-01	  -2.7803144e-01	   2.4282623e-01	
   6.5670000e+01	  -1.4784046e-01	  -2.8053417e-01	   2.2964745e-01	
   6.5725000e+01	  -1.4388577e-01	  -2.8310257e-01	   2.1619216e-01	
   6.5780000e+01	  -1.3908322e-01	  -2.8568883e-01	   2.0251533e-01	
   6.5835000e+01	  -1.3342721e-01	  -2.8824492e-01	   1.8867691e-01	
   6.5890000e+01	  -1.2693970e-01	  -2.9072218e-01	   1.7473806e-01	
   6.5945000e+01	  -1.1967437e-01	  -2.9307187e-01	   1.6075847e-01	
   6.6000000e+01	  -1.1171883e-01	  -2.9524835e-01	   1.4679576e-01	
   6.6055000e+01	  -1.0319400e-01	  -2.9721478e-01	   1.3290814e-01	
   6.6110000e+01	  -9.4251252e-02	  -2.9894995e-01	   1.1915958e-01	
   6.6165000e+01	  -8.5068465e-02	  -3.0045390e-01	   1.0562442e-01	
   6.6220000e+01	  -7.5844921e-02	  -3.0175052e-01	   9.2389077e-02	
   6.6275000e+01	  -6.6793761e-02	  -3.0288714e-01	   7.9551955e-02	
   6.6330000e+01	  -5.8131513e-02	  -3.0393232e-01	   6.7222535e-02	
   6.6385000e+01	  -5.0065912e-02	  -3.0497324e-01	   5.5518886e-02	
   6.6440000e+01	  -4.2784472e-02	  -3.0611179e-01	   4.4562290e-02	
   6.6495000e+01	  -3.6445847e-02	  -3.0745815e-01	   3.4469216e-02	
   6.6550000e+01	  -3.1174571e-02	  -3.0912252e-01	   2.5342118e-02	
   6.6605000e+01	  -2.7058313e-02	  -3.1120676e-01	   1.7261227e-02	
   6.6660000e+01	  -2.4146243e-02	  -3.1379777e-01	   1.0279567e-02	
   6.6715000e+01	  -2.2447714e-02	  -3.1696271e-01	   4.4215021e-03	
   6.6770000e+01	  -2.1931652e-02	  -3.2074625e-01	  -3.1722520e-04	
   6.6825000e+01	  -2.2527555e-02	  -3.2516901e-01	  -3.9702524e-03	
   6.6880000e+01	  -2.4128573e-02	  -3.3022625e-01	  -6.6025724e-03	
   6.6935000e+01	  -2.6596463e-02	  -3.3588621e-01	  -8.3122083e-03	
   6.6990000e+01	  -2.9768050e-02	  -3.4208966e-01	  -9.2289826e-03	
   6.7045000e+01	  -3.3462851e-02	  -3.4875271e-01	  -9.5080875e-03	
   6.7100000e+01	  -3.7491187e-02	  -3.5577356e-01	  -9.3183430e-03	
   6.7155000e+01	  -4.1661963e-02	  -3.6304142e-01	  -8.8278793e-03	
   6.7210000e+01	  -4.5789921e-02	  -3.7044527e-01	  -8.1913907e-03	
   6.7265000e+01	  -4.9702801e-02	  -3.7788051e-01	  -7.5419922e-03	
   6.7320000e+01	  -5.3248472e-02	  -3.8525277e-01	  -6.9879405e-03	
   6.7375000e+01	  -5.6301387e-02	  -3.9247909e-01	  -6.6124554e-03	
   6.7430000e+01	  -5.8767253e-02	  -3.9948756e-01	  -6.4745943e-03	
   6.7485000e+01	  -6.0584905e-02	  -4.0621634e-01	  -6.6093619e-03	
   6.7540000e+01	  -6.1724845e-02	  -4.1261307e-01	  -7.0258022e-03	
   6.7595000e+01	  -6.2185191e-02	  -4.1863470e-01	  -7.7039236e-03	
   6.7650000e+01	  -6.1986915e-02	  -4.2424840e-01	  -8.5937407e-03	
   6.7705000e+01	  -6.1169775e-02	  -4.2943410e-01	  -9.6194385e-03	
   6.7760000e+01	  -5.9788743e-02	  -4.3418814e-01	  -1.0688769e-02	
   6.7815000e+01	  -5.7910236e-02	  -4.3852613e-01	  -1.1705497e-02	
   6.7870000e+01	  -5.5607917e-02	  -4.4248446e-01	  -1.2582433e-02	
   6.7925000e+01	  -5.2958002e-02	  -4.4612024e-01	  -1.3253214e-02	
   6.7980000e+01	  -5.0034052e-02	  -4.4950838e-01	  -1.3681663e-02	
   6.8035000e+01	  -4.6902250e-02	  -4.5273554e-01	  -1.3868411e-02	
   6.8090000e+01	  -4.3618835e-02	  -4.5589377e-01	  -1.3854443e-02	
   6.8145000e+01	  -4.0230251e-02	  -4.5907605e-01	  -1.3720648e-02	
   6.8200000e+01	  -3.6774820e-02	  -4.6237426e-01	  -1.3582715e-02	
   6.8255000e+01	  -3.3284706e-02	  -4.6587817e-01	  -1.3582027e-02	
   6.8310000e+01	  -2.9787889e-02	  -4.6967399e-01	  -1.3874683e-02	
   6.8365000e+01	  -2.6310024e-02	  -4.7384086e-01	  -1.4621295e-02	
   6.8420000e+01	  -2.2875594e-02	  -4.7844502e-01	  -1.5978905e-02	
   6.8475000e+01	  -1.9507776e-02	  -4.8353469e-01	  -1.8094735e-02	
   6.8530000e+01	  -1.6227043e-02	  -4.8913772e-01	  -2.1101391e-02	
   6.8585000e+01	  -1.3048903e-02	  -4.9526081e-01	  -2.5113688e-02	
   6.8640000e+01	  -9.9813897e-03	  -5.0188894e-01	  -3.0226818e-02	
   6.8695000e+01	  -7.0230456e-03	  -5.0898550e-01	  -3.6514950e-02	
   6.8750000e+01	  -4.1621412e-03	  -5.1649433e-01	  -4.4029483e-02	
   6.8805000e+01	  -1.3773128e-03	  -5.2434309e-01	  -5.2796477e-02	
   6.8860000e+01	   1.3604713e-03	  -5.3244821e-01	  -6.2813472e-02	
   6.8915000e+01	   4.0844699e-03	  -5.4072213e-01	  -7.4046642e-02	
   6.8970000e+01	   6.8274966e-03	  -5.4908125e-01	  -8.6429204e-02	
   6.9025000e+01	   9.6172484e-03	  -5.5745149e-01	  -9.9861584e-02	
   6.9080000e+01	   1.2472765e-02	  -5.6576910e-01	  -1.1421389e-01	
   6.9135000e+01	   1.5401957e-02	  -5.7397716e-01	  -1.2933122e-01	
   6.9190000e+01	   1.8399573e-02	  -5.8201963e-01	  -1.4504086e-01	
   6.9245000e+01	   2.1445606e-02	  -5.8983570e-01	  -1.6115886e-01	
   6.9300000e+01	   2.4504770e-02	  -5.9735603e-01	  -1.7749408e-01	
   6.9355000e+01	   2.7527435e-02	  -6.0450177e-01	  -1.9385097e-01	
   6.9410000e+01	   3.0452092e-02	  -6.1118589e-01	  -2.1003280e-01	
   6.9465000e+01	   3.3209473e-02	  -6.1731664e-01	  -2.2584529e-01	
   6.9520000e+01	   3.5727914e-02	  -6.2280166e-01	  -2.4109952e-01	
   6.9575000e+01	   3.7938509e-02	  -6.2755151e-01	  -2.5561416e-01	
   6.9630000e+01	   3.9778612e-02	  -6.3148225e-01	  -2.6921797e-01	
   6.9685000e+01	   4.1193557e-02	  -6.3451705e-01	  -2.8175314e-01	
   6.9740000e+01	   4.2137779e-02	  -6.3658709e-01	  -2.9307953e-01	
   6.9795000e+01	   4.2576457e-02	  -6.3763291e-01	  -3.0308021e-01	
   6.9850000e+01	   4.2487723e-02	  -6.3760677e-01	  -3.1166765e-01	
   6.9905000e+01	   4.1864979e-02	  -6.3647531e-01	  -3.1878891e-01	
   6.9960000e+01	   4.0719283e-02	  -6.3422114e-01	  -3.2442832e-01	
   7.0015000e+01	   3.9081829e-02	  -6.3084306e-01	  -3.2860716e-01	
   7.0070000e+01	   3.7005817e-02	  -6.2635586e-01	  -3.3138097e-01	
   7.0125000e+01	   3.4566601e-02	  -6.2078994e-01	  -3.3283437e-01	
   7.0180000e+01	   3.1859652e-02	  -6.1418983e-01	  -3.3307350e-01	
   7.0235000e+01	   2.8996503e-02	  -6.0661215e-01	  -3.3221596e-01	
   7.0290000e+01	   2.6098948e-02	  -5.9812375e-01	  -3.3037897e-01	
   7.0345000e+01	   2.3291826e-02	  -5.8880064e-01	  -3.2766740e-01	
   7.0400000e+01	   2.0695544e-02	  -5.7872610e-01	  -3.2416398e-01	
   7.0455000e+01	   1.8419817e-02	  -5.6798761e-01	  -3.1992456e-01	
   7.0510000e+01	   1.6559019e-02	  -5.5667264e-01	  -3.1497909e-01	
   7.0565000e+01	   1.5188093e-02	  -5.4486500e-01	  -3.0933760e-01	
   7.0620000e+01	   1.4358361e-02	  -5.3264359e-01	  -3.0299943e-01	
   7.0675000e+01	   1.4093891e-02	  -5.2008465e-01	  -2.9596435e-01	
   7.0730000e+01	   1.4389827e-02	  -5.0726575e-01	  -2.8824385e-01	
   7.0785000e+01	   1.5213606e-02	  -4.9426882e-01	  -2.7987070e-01	
   7.0840000e+01	   1.6509053e-02	  -4.8118029e-01	  -2.7090530e-01	
   7.0895000e+01	   1.8202442e-02	  -4.6808891e-01	  -2.6143894e-01	
   7.0950000e+01	   2.0209246e-02	  -4.5508287e-01	  -2.5159390e-01	
   7.1005000e+01	   2.2440562e-02	  -4.4224774e-01	  -2.4151989e-01	
   7.1060000e+01	   2.4808859e-02	  -4.2966535e-01	  -2.3138659e-01	
   7.1115000e+01	   2.7232895e-02	  -4.1741391e-01	  -2.2137290e-01	
   7.1170000e+01	   2.9641633e-02	  -4.0556894e-01	  -2.1165490e-01	
   7.1225000e+01	   3.1977187e-02	  -3.9420401e-01	  -2.0239501e-01	
   7.1280000e+01	   3.4196916e-02	  -3.8338957e-01	  -1.9373427e-01	
   7.1335000e+01	   3.6274264e-02	  -3.7318986e-01	  -1.8578855e-01	
   7.1390000e+01	   3.8197758e-02	  -3.6365996e-01	  -1.7864893e-01	
   7.1445000e+01	   3.9968489e-02	  -3.5484355e-01	  -1.7238547e-01	
   7.1500000e+01	   4.1597404e-02	  -3.4677067e-01	  -1.6705267e-01	
   7.1555000e+01	   4.3103365e-02	  -3.3945521e-01	  -1.6269571e-01	
   7.1610000e+01	   4.4511945e-02	  -3.3289288e-01	  -1.5935657e-01	
   7.1665000e+01	   4.5854803e-02	  -3.2705992e-01	  -1.5707890e-01	
   7.1720000e+01	   4.7169113e-02	  -3.2191328e-01	  -1.5591113e-01	
   7.1775000e+01	   4.8495689e-02	  -3.1739367e-01	  -1.5590755e-01	
   7.1830000e+01	   4.9875043e-02	  -3.1343160e-01	  -1.5712658e-01	
   7.1885000e+01	   5.1342672e-02	  -3.0995382e-01	  -1.5962609e-01	
   7.1940000e+01	   5.2925358e-02	  -3.0688773e-01	  -1.6345622e-01	
   7.1995000e+01	   5.4638653e-02	  -3.0416343e-01	  -1.6865137e-01	
   7.2050000e+01	   5.6484878e-02	  -3.0171501e-01	  -1.7522334e-01	
   7.2105000e+01	   5.8451728e-02	  -2.9948249e-01	  -1.8315630e-01	
   7.2160000e+01	   6.0511871e-02	  -2.9741554e-01	  -1.9240338e-01	
   7.2215000e+01	   6.2623211e-02	  -2.9547958e-01	  -2.0288459e-01	
   7.2270000e+01	   6.4729527e-02	  -2.9366322e-01	  -2.1448581e-01	
   7.2325000e+01	   6.6761811e-02	  -2.9198366e-01	  -2.2705899e-01	
   7.2380000e+01	   6.8640403e-02	  -2.9048707e-01	  -2.4042329e-01	
   7.2435000e+01	   7.0277552e-02	  -2.8924307e-01	  -2.5436811e-01	
   7.2490000e+01	   7.1580550e-02	  -2.8833487e-01	  -2.6865860e-01	
   7.2545000e+01	   7.2456028e-02	  -2.8784719e-01	  -2.8304354e-01	
   7.2600000e+01	   7.2815296e-02	  -2.8785409e-01	  -2.9726432e-01	
   7.2655000e+01	   7.2579857e-02	  -2.8840910e-01	  -3.1106440e-01	
   7.2710000e+01	   7.1686527e-02	  -2.8953861e-01	  -3.2419849e-01	
   7.2765000e+01	   7.0091858e-02	  -2.9123784e-01	  -3.3644069e-01	
   7.2820000e+01	   6.7775345e-02	  -2.9346810e-01	  -3.4759095e-01	
   7.2875000e+01	   6.4740534e-02	  -2.9615543e-01	  -3.5747927e-01	
   7.2930000e+01	   6.1013613e-02	  -2.9919207e-01	  -3.6596718e-01	
   7.2985000e+01	   5.6640097e-02	  -3.0244171e-01	  -3.7294640e-01	
   7.3040000e+01	   5.1680646e-02	  -3.0574796e-01	  -3.7833602e-01	
   7.3095000e+01	   4.6206459e-02	  -3.0894563e-01	  -3.8208053e-01	
   7.3150000e+01	   4.0293977e-02	  -3.1187389e-01	  -3.8415038e-01	
   7.3205000e+01	   3.4019109e-02	  -3.1438934e-01	  -3.8454477e-01	
   7.3260000e+01	   2.7451817e-02	  -3.1637797e-01	  -3.8329545e-01	
   7.3315000e+01	   2.0651903e-02	  -3.1776553e-01	  -3.8047095e-01	
   7.3370000e+01	   1.3666585e-02	  -3.1852490e-01	  -3.7618025e-01	
   7.3425000e+01	   6.5301336e-03	  -3.1867792e-01	  -3.7057346e-01	
   7.3480000e+01	  -7.3470106e-04	  -3.1829042e-01	  -3.6383740e-01	
   7.3535000e+01	  -8.1140875e-03	  -3.1746217e-01	  -3.5618667e-01	
   7.3590000e+01	  -1.5600214e-02	  -3.1631363e-01	  -3.4785273e-01	
   7.3645000e+01	  -2.3189064e-02	  -3.1497182e-01	  -3.3907287e-01	
   7.3700000e+01	  -3.0879332e-02	  -3.1355667e-01	  -3.3007971e-01	
   7.3755000e+01	  -3.8672047e-02	  -3.1216988e-01	  -3.2109254e-01	
   7.3810000e+01	  -4.6570021e-02	  -3.1088794e-01	  -3.1231127e-01	
   7.3865000e+01	  -5.4576341e-02	  -3.0976031e-01	  -3.0391326e-01	
   7.3920000e+01	  -6.2691524e-02	  -3.0881238e-01	  -2.9605225e-01	
   7.3975000e+01	  -7.0909903e-02	  -3.0805165e-01	  -2.8885838e-01	
   7.4030000e+01	  -7.9216805e-02	  -3.0747521e-01	  -2.8243816e-01	
   7.4085000e+01	  -8.7587782e-02	  -3.0707621e-01	  -2.7687372e-01	
   7.4140000e+01	  -9.5989783e-02	  -3.0684758e-01	  -2.7222209e-01	
   7.4195000e+01	  -1.0438330e-01	  -3.0678261e-01	  -2.6851584e-01	
   7.4250000e+01	  -1.1272438e-01	  -3.0687399e-01	  -2.6576599e-01	
   7.4305000e+01	  -1.2096556e-01	  -3.0711275e-01	  -2.6396675e-01	
   7.4360000e+01	  -1.2905527e-01	  -3.0748775e-01	  -2.6310043e-01	
   7.4415000e+01	  -1.3693657e-01	  -3.0798612e-01	  -2.6314101e-01	
   7.4470000e+01	  -1.4454676e-01	  -3.0859472e-01	  -2.6405640e-01	
   7.4525000e+01	  -1.5181815e-01	  -3.0930108e-01	  -2.6580980e-01	
   7.4580000e+01	  -1.5867986e-01	  -3.1009288e-01	  -2.6836073e-01	
   7.4635000e+01	  -1.6506030e-01	  -3.1095711e-01	  -2.7166587e-01	
   7.4690000e+01	  -1.7089013e-01	  -3.1188135e-01	  -2.7567980e-01	
   7.4745000e+01	  -1.7610540e-01	  -3.1285706e-01	  -2.8035598e-01	
   7.4800000e+01	  -1.8065047e-01	  -3.1388227e-01	  -2.8564796e-01	
   7.4855000e+01	  -1.8448079e-01	  -3.1496155e-01	  -2.9151063e-01	
   7.4910000e+01	  -1.8756526e-01	  -3.1610361e-01	  -2.9790122e-01	
   7.4965000e+01	  -1.8988773e-01	  -3.1731786e-01	  -3.0478014e-01	
   7.5020000e+01	  -1.9144751e-01	  -3.1860990e-01	  -3.1211269e-01	
   7.5075000e+01	  -1.9225965e-01	  -3.1997565e-01	  -3.1987198e-01	
   7.5130000e+01	  -1.9235509e-01	  -3.2139471e-01	  -3.2804152e-01	
   7.5185000e+01	  -1.9178057e-01	  -3.2282467e-01	  -3.3661508e-01	
   7.5240000e+01	  -1.9059769e-01	  -3.2419757e-01	  -3.4559286e-01	
   7.5295000e+01	  -1.8888076e-01	  -3.2541922e-01	  -3.5497640e-01	
   7.5350000e+01	  -1.8671413e-01	  -3.2637147e-01	  -3.6476420e-01	
   7.5405000e+01	  -1.8418881e-01	  -3.2691783e-01	  -3.7494790e-01	
   7.5460000e+01	  -1.8139882e-01	  -3.2691240e-01	  -3.8550733e-01	
   7.5515000e+01	  -1.7843759e-01	  -3.2621107e-01	  -3.9640533e-01	
   7.5570000e+01	  -1.7539435e-01	  -3.2468317e-01	  -4.0758481e-01	
   7.5625000e+01	  -1.7235083e-01	  -3.2222160e-01	  -4.1896991e-01	
   7.5680000e+01	  -1.6937854e-01	  -3.1875081e-01	  -4.3047071e-01	
   7.5735000e+01	  -1.6653689e-01	  -3.1423269e-01	  -4.4198937e-01	
   7.5790000e+01	  -1.6387191e-01	  -3.0866945e-01	  -4.5342493e-01	
   7.5845000e+01	  -1.6141524e-01	  -3.0210295e-01	  -4.6467655e-01	
   7.5900000e+01	  -1.5918364e-01	  -2.9461158e-01	  -4.7564823e-01	
   7.5955000e+01	  -1.5717939e-01	  -2.8630565e-01	  -4.8625730e-01	
   7.6010000e+01	  -1.5539083e-01	  -2.7732094e-01	  -4.9644411e-01	
   7.6065000e+01	  -1.5379247e-01	  -2.6780900e-01	  -5.0617761e-01	
   7.6120000e+01	  -1.5234489e-01	  -2.5792582e-01	  -5.1545495e-01	
   7.6175000e+01	  -1.5099532e-01	  -2.4782180e-01	  -5.2429677e-01	
   7.6230000e+01	  -1.4967889e-01	  -2.3763516e-01	  -5.3273923e-01	
   7.6285000e+01	  -1.4832046e-01	  -2.2748909e-01	  -5.4082320e-01	
   7.6340000e+01	  -1.4683717e-01	  -2.1749251e-01	  -5.4858117e-01	
   7.6395000e+01	  -1.4514181e-01	  -2.0774329e-01	  -5.5602321e-01	
   7.6450000e+01	  -1.4314685e-01	  -1.9833190e-01	  -5.6312431e-01	
   7.6505000e+01	  -1.4076886e-01	  -1.8934297e-01	  -5.6981540e-01	
   7.6560000e+01	  -1.3793353e-01	  -1.8085389e-01	  -5.7598110e-01	
   7.6615000e+01	  -1.3458057e-01	  -1.7293147e-01	  -5.8146554e-01	
   7.6670000e+01	  -1.3066747e-01	  -1.6562851e-01	  -5.8608528e-01	
   7.6725000e+01	  -1.2617143e-01	  -1.5898147e-01	  -5.8964642e-01	
   7.6780000e+01	  -1.2108913e-01	  -1.5300942e-01	  -5.9196248e-01	
   7.6835000e+01	  -1.1543501e-01	  -1.4771281e-01	  -5.9286990e-01	
   7.6890000e+01	  -1.0923846e-01	  -1.4307152e-01	  -5.9223987e-01	
   7.6945000e+01	  -1.0254082e-01	  -1.3904303e-01	  -5.8998665e-01	
   7.7000000e+01	  -9.5392942e-02	  -1.3556196e-01	  -5.8607282e-01	
   7.7055000e+01	  -8.7853221e-02	  -1.3254106e-01	  -5.8051082e-01	
   7.7110000e+01	  -7.9985649e-02	  -1.2987358e-01	  -5.7335985e-01	
   7.7165000e+01	  -7.1857710e-02	  -1.2743649e-01	  -5.6471874e-01	
   7.7220000e+01	  -6.3539016e-02	  -1.2509493e-01	  -5.5471675e-01	
   7.7275000e+01	  -5.5101296e-02	  -1.2270728e-01	  -5.4350432e-01	
   7.7330000e+01	  -4.6619487e-02	  -1.2013147e-01	  -5.3124473e-01	
   7.7385000e+01	  -3.8173199e-02	  -1.1723213e-01	  -5.1810859e-01	
   7.7440000e+01	  -2.9847328e-02	  -1.1388743e-01	  -5.0427261e-01	
   7.7495000e+01	  -2.1730418e-02	  -1.0999390e-01	  -4.8992287e-01	
   7.7550000e+01	  -1.3910147e-02	  -1.0546855e-01	  -4.7525964e-01	
   7.7605000e+01	  -6.4666690e-03	  -1.0024878e-01	  -4.6050018e-01	
   7.7660000e+01	   5.3446387e-04	  -9.4291213e-02	  -4.4587734e-01	
   7.7715000e+01	   7.0481897e-03	  -8.7569933e-02	  -4.3163385e-01	
   7.7770000e+01	   1.3053849e-02	  -8.0074307e-02	  -4.1801287e-01	
   7.7825000e+01	   1.8556926e-02	  -7.1806780e-02	  -4.0524561e-01	
   7.7880000e+01	   2.3588563e-02	  -6.2781068e-02	  -3.9353806e-01	
   7.7935000e+01	   2.8202858e-02	  -5.3020560e-02	  -3.8305869e-01	
   7.7990000e+01	   3.2472095e-02	  -4.2556487e-02	  -3.7392869e-01	
   7.8045000e+01	   3.6480073e-02	  -3.1426707e-02	  -3.6621599e-01	
   7.8100000e+01	   4.0313850e-02	  -1.9676940e-02	  -3.5993516e-01	
   7.8155000e+01	   4.4054713e-02	  -7.3649786e-03	  -3.5505375e-01	
   7.8210000e+01	   4.7769949e-02	   5.4339406e-03	  -3.5150283e-01	
   7.8265000e+01	   5.1506986e-02	   1.8623434e-02	  -3.4918797e-01	
   7.8320000e+01	   5.5290774e-02	   3.2085791e-02	  -3.4799855e-01	
   7.8375000e+01	   5.9124510e-02	   4.5685511e-02	  -3.4781357e-01	
   7.8430000e+01	   6.2993077e-02	   5.9275501e-02	  -3.4850352e-01	
   7.8485000e+01	   6.6868021e-02	   7.2704417e-02	  -3.4992996e-01	
   7.8540000e+01	   7.0713467e-02	   8.5823865e-02	  -3.5194575e-01	
   7.8595000e+01	   7.4493280e-02	   9.8495140e-02	  -3.5439735e-01	
   7.8650000e+01	   7.8179236e-02	   1.1059565e-01	  -3.5712836e-01	
   7.8705000e+01	   8.1758227e-02	   1.2202441e-01	  -3.5998267e-01	
   7.8760000e+01	   8.5236048e-02	   1.3270543e-01	  -3.6280665e-01	
   7.8815000e+01	   8.8637381e-02	   1.4258797e-01	  -3.6544994e-01	
   7.8870000e+01	   9.2003747e-02	   1.5164394e-01	  -3.6776532e-01	
   7.8925000e+01	   9.5391039e-02	   1.5986223e-01	  -3.6960899e-01	
   7.8980000e+01	   9.8866955e-02	   1.6724094e-01	  -3.7084300e-01	
   7.9035000e+01	   1.0250842e-01	   1.7377995e-01	  -3.7133973e-01	
   7.9090000e+01	   1.0639937e-01	   1.7947688e-01	  -3.7098800e-01	
   7.9145000e+01	   1.1062901e-01	   1.8432687e-01	  -3.6970028e-01	
   7.9200000e+01	   1.1528959e-01	   1.8832525e-01	  -3.6741980e-01	
   7.9255000e+01	   1.2047323e-01	   1.9147142e-01	  -3.6412531e-01	
   7.9310000e+01	   1.2626764e-01	   1.9377338e-01	  -3.5983154e-01	
   7.9365000e+01	   1.3275115e-01	   1.9525134e-01	  -3.5458642e-01	
   7.9420000e+01	   1.3998710e-01	   1.9594002e-01	  -3.4846690e-01	
   7.9475000e+01	   1.4801841e-01	   1.9589044e-01	  -3.4157344e-01	
   7.9530000e+01	   1.5686306e-01	   1.9517290e-01	  -3.3402329e-01	
   7.9585000e+01	   1.6651132e-01	   1.9388008e-01	  -3.2594346e-01	
   7.9640000e+01	   1.7692462e-01	   1.9212862e-01	  -3.1746507e-01	
   7.9695000e+01	   1.8803660e-01	   1.9005867e-01	  -3.0871907e-01	
   7.9750000e+01	   1.9975633e-01	   1.8783153e-01	  -2.9983337e-01	
   7.9805000e+01	   2.1197320e-01	   1.8562542e-01	  -2.9093222e-01	
   7.9860000e+01	   2.2456306e-01	   1.8362856e-01	  -2.8213792e-01	
   7.9915000e+01	   2.3739561e-01	   1.8203070e-01	  -2.7357331e-01	
   7.9970000e+01	   2.5034252e-01	   1.8101473e-01	  -2.6536291e-01	
   8.0025000e+01	   2.6328512e-01	   1.8074967e-01	  -2.5763180e-01	
   8.0080000e+01	   2.7611945e-01	   1.8138407e-01	  -2.5050234e-01	
   8.0135000e+01	   2.8875768e-01	   1.8303933e-01	  -2.4408853e-01	
   8.0190000e+01	   3.0112604e-01	   1.8580344e-01	  -2.3848733e-01	
   8.0245000e+01	   3.1316030e-01	   1.8972593e-01	  -2.3376771e-01	
   8.0300000e+01	   3.2480081e-01	   1.9481422e-01	  -2.2996095e-01	
   8.0355000e+01	   3.3598925e-01	   2.0103200e-01	  -2.2705505e-01	
   8.0410000e+01	   3.4666795e-01	   2.0830045e-01	  -2.2499413e-01	
   8.0465000e+01	   3.5678119e-01	   2.1650255e-01	  -2.2368203e-01	
   8.0520000e+01	   3.6627755e-01	   2.2548976e-01	  -2.2298909e-01	
   8.0575000e+01	   3.7511266e-01	   2.3509017e-01	  -2.2276068e-01	
   8.0630000e+01	   3.8325270e-01	   2.4511805e-01	  -2.2282602e-01	
   8.0685000e+01	   3.9067801e-01	   2.5538446e-01	  -2.2300598e-01	
   8.0740000e+01	   3.9738592e-01	   2.6570818e-01	  -2.2312019e-01	
   8.0795000e+01	   4.0339202e-01	   2.7592609e-01	  -2.2299417e-01	
   8.0850000e+01	   4.0872984e-01	   2.8590171e-01	  -2.2246582e-01	
   8.0905000e+01	   4.1344924e-01	   2.9553000e-01	  -2.2139048e-01	
   8.0960000e+01	   4.1761428e-01	   3.0473735e-01	  -2.1964343e-01	
   8.1015000e+01	   4.2130021e-01	   3.1347778e-01	  -2.1711994e-01	
   8.1070000e+01	   4.2458972e-01	   3.2172663e-01	  -2.1373398e-01	
   8.1125000e+01	   4.2756802e-01	   3.2947259e-01	  -2.0941742e-01	
   8.1180000e+01	   4.3031709e-01	   3.3670863e-01	  -2.0412049e-01	
   8.1235000e+01	   4.3291009e-01	   3.4342302e-01	  -1.9781313e-01	
   8.1290000e+01	   4.3540708e-01	   3.4959227e-01	  -1.9048681e-01	
   8.1345000e+01	   4.3785254e-01	   3.5517694e-01	  -1.8215633e-01	
   8.1400000e+01	   4.4027425e-01	   3.6012118e-01	  -1.7286203e-01	
   8.1455000e+01	   4.4268269e-01	   3.6435659e-01	  -1.6267195e-01	
   8.1510000e+01	   4.4507028e-01	   3.6780887e-01	  -1.5168268e-01	
   8.1565000e+01	   4.4741077e-01	   3.7040469e-01	  -1.4001878e-01	
   8.1620000e+01	   4.4966039e-01	   3.7207709e-01	  -1.2783123e-01	
   8.1675000e+01	   4.5176155e-01	   3.7276928e-01	  -1.1529514e-01	
   8.1730000e+01	   4.5364840e-01	   3.7243708e-01	  -1.0260672e-01	
   8.1785000e+01	   4.5525264e-01	   3.7104966e-01	  -8.9979792e-02	
   8.1840000e+01	   4.5650855e-01	   3.6858950e-01	  -7.7640038e-02	
   8.1895000e+01	   4.5735729e-01	   3.6505344e-01	  -6.5814485e-02	
   8.1950000e+01	   4.5775026e-01	   3.6045590e-01	  -5.4716184e-02	
   8.2005000e+01	   4.5765110e-01	   3.5483375e-01	  -4.4527796e-02	
   8.2060000e+01	   4.5703669e-01	   3.4825146e-01	  -3.5388043e-02	
   8.2115000e+01	   4.5589768e-01	   3.4080501e-01	  -2.7382910e-02	
   8.2170000e+01	   4.5423855e-01	   3.3262254e-01	  -2.0542313e-02	
   8.2225000e+01	   4.5207569e-01	   3.2386037e-01	  -1.4842588e-02	
   8.2280000e+01	   4.4943307e-01	   3.1469552e-01	  -1.0214279e-02	
   8.2335000e+01	   4.4633673e-01	   3.0531720e-01	  -6.5536876e-03	
   8.2390000e+01	   4.4281109e-01	   2.9591922e-01	  -3.7360299e-03	
   8.2445000e+01	   4.3887840e-01	   2.8669258e-01	  -1.6280197e-03	
   8.2500000e+01	   4.3456041e-01	   2.7781712e-01	  -9.8476989e-05	
   8.2555000e+01	   4.2988058e-01	   2.6945366e-01	   9.7357127e-04	
   8.2610000e+01	   4.2486537e-01	   2.6173963e-01	   1.6936777e-03	
   8.2665000e+01	   4.1954420e-01	   2.5478829e-01	   2.1497912e-03	
   8.2720000e+01	   4.1394771e-01	   2.4868910e-01	   2.4127389e-03	
   8.2775000e+01	   4.0810528e-01	   2.4350718e-01	   2.5390806e-03	
   8.2830000e+01	   4.0204276e-01	   2.3928163e-01	   2.5761617e-03	
   8.2885000e+01	   3.9578097e-01	   2.3602395e-01	   2.5683203e-03	
   8.2940000e+01	   3.8933490e-01	   2.3371804e-01	   2.5624594e-03	
   8.2995000e+01	   3.8271417e-01	   2.3232317e-01	   2.6115269e-03	
   8.3050000e+01	   3.7592427e-01	   2.3177930e-01	   2.7747813e-03	
   8.3105000e+01	   3.6896754e-01	   2.3201276e-01	   3.1139657e-03	
   8.3160000e+01	   3.6184363e-01	   2.3294112e-01	   3.6859609e-03	
   8.3215000e+01	   3.5455057e-01	   2.3447701e-01	   4.5347526e-03	
   8.3270000e+01	   3.4708686e-01	   2.3653003e-01	   5.6861322e-03	
   8.3325000e+01	   3.3945362e-01	   2.3900607e-01	   7.1469173e-03	
   8.3380000e+01	   3.3165584e-01	   2.4180547e-01	   8.9088544e-03	
   8.3435000e+01	   3.2370287e-01	   2.4482264e-01	   1.0956578e-02	
   8.3490000e+01	   3.1560840e-01	   2.4794851e-01	   1.3277867e-02	
   8.3545000e+01	   3.0738960e-01	   2.5107451e-01	   1.5873354e-02	
   8.3600000e+01	   2.9906483e-01	   2.5409719e-01	   1.8763430e-02	
   8.3655000e+01	   2.9065098e-01	   2.5692247e-01	   2.1991687e-02	
   8.3710000e+01	   2.8216147e-01	   2.5946900e-01	   2.5624759e-02	
   8.3765000e+01	   2.7360538e-01	   2.6166941e-01	   2.9747799e-02	
   8.3820000e+01	   2.6498685e-01	   2.6346912e-01	   3.4455009e-02	
   8.3875000e+01	   2.5630442e-01	   2.6482386e-01	   3.9836397e-02	
   8.3930000e+01	   2.4755095e-01	   2.6569755e-01	   4.5963298e-02	
   8.3985000e+01	   2.3871455e-01	   2.6606216e-01	   5.2875094e-02	
   8.4040000e+01	   2.2978098e-01	   2.6590006e-01	   6.0569230e-02	
   8.4095000e+01	   2.2073658e-01	   2.6520775e-01	   6.8996362e-02	
   8.4150000e+01	   2.1157090e-01	   2.6399860e-01	   7.8060802e-02	
   8.4205000e+01	   2.0227835e-01	   2.6230273e-01	   8.7624404e-02	
   8.4260000e+01	   1.9285858e-01	   2.6016435e-01	   9.7512454e-02	
   8.4315000e+01	   1.8331601e-01	   2.5763758e-01	   1.0752200e-01	
   8.4370000e+01	   1.7365869e-01	   2.5478152e-01	   1.1743322e-01	
   8.4425000e+01	   1.6389703e-01	   2.5165544e-01	   1.2702291e-01	
   8.4480000e+01	   1.5404277e-01	   2.4831494e-01	   1.3607807e-01	
   8.4535000e+01	   1.4410799e-01	   2.4480863e-01	   1.4440841e-01	
   8.4590000e+01	   1.3410425e-01	   2.4117443e-01	   1.5185666e-01	
   8.4645000e+01	   1.2404239e-01	   2.3743560e-01	   1.5830524e-01	
   8.4700000e+01	   1.1393331e-01	   2.3359790e-01	   1.6367824e-01	
   8.4755000e+01	   1.0378966e-01	   2.2964953e-01	   1.6793900e-01	
   8.4810000e+01	   9.3627429e-02	   2.2556399e-01	   1.7108457e-01	
   8.4865000e+01	   8.3466530e-02	   2.2130512e-01	   1.7313805e-01	
   8.4920000e+01	   7.3330841e-02	   2.1683297e-01	   1.7414076e-01	
   8.4975000e+01	   6.3248368e-02	   2.1210901e-01	   1.7414507e-01	
   8.5030000e+01	   5.3251721e-02	   2.0709967e-01	   1.7320682e-01	
   8.5085000e+01	   4.3378185e-02	   2.0177935e-01	   1.7137755e-01	
   8.5140000e+01	   3.3668872e-02	   1.9613420e-01	   1.6869977e-01	
   8.5195000e+01	   2.4166838e-02	   1.9016633e-01	   1.6520812e-01	
   8.5250000e+01	   1.4914270e-02	   1.8389776e-01	   1.6093586e-01	
   8.5305000e+01	   5.9492609e-03	   1.7737381e-01	   1.5592304e-01	
   8.5360000e+01	  -2.6969788e-03	   1.7066641e-01	   1.5022371e-01	
   8.5415000e+01	  -1.1001925e-02	   1.6387654e-01	   1.4391129e-01	
   8.5470000e+01	  -1.8952449e-02	   1.5713413e-01	   1.3708095e-01	
   8.5525000e+01	  -2.6544345e-02	   1.5059387e-01	   1.2984827e-01	
   8.5580000e+01	  -3.3780705e-02	   1.4442658e-01	   1.2234385e-01	
   8.5635000e+01	  -4.0669877e-02	   1.3880686e-01	   1.1470443e-01	
   8.5690000e+01	  -4.7224061e-02	   1.3389820e-01	   1.0706190e-01	
   8.5745000e+01	  -5.3458897e-02	   1.2983820e-01	   9.9532491e-02	
   8.5800000e+01	  -5.9393482e-02	   1.2672669e-01	   9.2208769e-02	
   8.5855000e+01	  -6.5050374e-02	   1.2461851e-01	   8.5155910e-02	
   8.5910000e+01	  -7.0455746e-02	   1.2352026e-01	   7.8411875e-02	
   8.5965000e+01	  -7.5639468e-02	   1.2339024e-01	   7.1990412e-02	
   8.6020000e+01	  -8.0634098e-02	   1.2414142e-01	   6.5885993e-02	
   8.6075000e+01	  -8.5472355e-02	   1.2564769e-01	   6.0079825e-02	
   8.6130000e+01	  -9.0184192e-02	   1.2775287e-01	   5.4545865e-02	
   8.6185000e+01	  -9.4794648e-02	   1.3028166e-01	   4.9256564e-02	
   8.6240000e+01	  -9.9322305e-02	   1.3305183e-01	   4.4188530e-02	
   8.6295000e+01	  -1.0377768e-01	   1.3588626e-01	   3.9327136e-02	
   8.6350000e+01	  -1.0816213e-01	   1.3862203e-01	   3.4668523e-02	
   8.6405000e+01	  -1.1246835e-01	   1.4111458e-01	   3.0218928e-02	
   8.6460000e+01	  -1.1668241e-01	   1.4323706e-01	   2.5992414e-02	
   8.6515000e+01	  -1.2078624e-01	   1.4487748e-01	   2.2007609e-02	
   8.6570000e+01	  -1.2475960e-01	   1.4593585e-01	   1.8283661e-02	
   8.6625000e+01	  -1.2858140e-01	   1.4632375e-01	   1.4836725e-02	
   8.6680000e+01	  -1.3222965e-01	   1.4596691e-01	   1.1678911e-02	
   8.6735000e+01	  -1.3568061e-01	   1.4480965e-01	   8.8202699e-03	
   8.6790000e+01	  -1.3890842e-01	   1.4281847e-01	   6.2724523e-03	
   8.6845000e+01	  -1.4188654e-01	   1.3998478e-01	   4.0523041e-03	
   8.6900000e+01	  -1.4459075e-01	   1.3632835e-01	   2.1843342e-03	
   8.6955000e+01	  -1.4700237e-01	   1.3190152e-01	   7.0142815e-04	
   8.7010000e+01	  -1.4911074e-01	   1.2679260e-01	  -3.5607896e-04	
   8.7065000e+01	  -1.5091472e-01	   1.2112628e-01	  -9.4188257e-04	
   8.7120000e+01	  -1.5242310e-01	   1.1506005e-01	  -1.0053716e-03	
   8.7175000e+01	  -1.5365437e-01	   1.0877598e-01	  -4.9548683e-04	
   8.7230000e+01	  -1.5463560e-01	   1.0246832e-01	   6.3064063e-04	
   8.7285000e+01	  -1.5540049e-01	   9.6329288e-02	   2.3947551e-03	
   8.7340000e+01	  -1.5598688e-01	   9.0535965e-02	   4.7844875e-03	
   8.7395000e+01	  -1.5643426e-01	   8.5239551e-02	   7.7449901e-03	
   8.7450000e+01	  -1.5678187e-01	   8.0557204e-02	   1.1177122e-02	
   8.7505000e+01	  -1.5706697e-01	   7.6567565e-02	   1.4941663e-02	
   8.7560000e+01	  -1.5732263e-01	   7.3311683e-02	   1.8867989e-02	
   8.7615000e+01	  -1.5757532e-01	   7.0799502e-02	   2.2764864e-02	
   8.7670000e+01	  -1.5784279e-01	   6.9019960e-02	   2.6431658e-02	
   8.7725000e+01	  -1.5813271e-01	   6.7952027e-02	   2.9670446e-02	
   8.7780000e+01	  -1.5844138e-01	   6.7574050e-02	   3.2299445e-02	
   8.7835000e+01	  -1.5875232e-01	   6.7868633e-02	   3.4165897e-02	
   8.7890000e+01	  -1.5903544e-01	   6.8821240e-02	   3.5155628e-02	
   8.7945000e+01	  -1.5924747e-01	   7.0414039e-02	   3.5198526e-02	
   8.8000000e+01	  -1.5933370e-01	   7.2619097e-02	   3.4270988e-02	
   8.8055000e+01	  -1.5923074e-01	   7.5393629e-02	   3.2395530e-02	
   8.8110000e+01	  -1.5887066e-01	   7.8677194e-02	   2.9635974e-02	
   8.8165000e+01	  -1.5818614e-01	   8.2390605e-02	   2.6087529e-02	
   8.8220000e+01	  -1.5711547e-01	   8.6437088e-02	   2.1864294e-02	
   8.8275000e+01	  -1.5560668e-01	   9.0705324e-02	   1.7088155e-02	
   8.8330000e+01	  -1.5362046e-01	   9.5073543e-02	   1.1881459e-02	
   8.8385000e+01	  -1.5113160e-01	   9.9415081e-02	   6.3632656e-03	
   8.8440000e+01	  -1.4812875e-01	   1.0360613e-01	   6.4745145e-04	
   8.8495000e+01	  -1.4461299e-01	   1.0753435e-01	  -5.1581925e-03	
   8.8550000e+01	  -1.4059576e-01	   1.1110578e-01	  -1.0950987e-02	
   8.8605000e+01	  -1.3609662e-01	   1.1424886e-01	  -1.6630259e-02	
   8.8660000e+01	  -1.3114136e-01	   1.1691552e-01	  -2.2094597e-02	
   8.8715000e+01	  -1.2576126e-01	   1.1907993e-01	  -2.7242638e-02	
   8.8770000e+01	  -1.1999352e-01	   1.2073559e-01	  -3.1977718e-02	
   8.8825000e+01	  -1.1388201e-01	   1.2189304e-01	  -3.6213394e-02	
   8.8880000e+01	  -1.0747701e-01	   1.2257966e-01	  -3.9876256e-02	
   8.8935000e+01	  -1.0083441e-01	   1.2284127e-01	  -4.2905455e-02	
   8.8990000e+01	  -9.4014731e-02	   1.2274339e-01	  -4.5251919e-02	
   8.9045000e+01	  -8.7081749e-02	   1.2237053e-01	  -4.6879934e-02	
   8.9100000e+01	  -8.0100456e-02	   1.2182257e-01	  -4.7770390e-02	
   8.9155000e+01	  -7.3134567e-02	   1.2120793e-01	  -4.7923165e-02	
   8.9210000e+01	  -6.6244734e-02	   1.2063569e-01	  -4.7356974e-02	
   8.9265000e+01	  -5.9488018e-02	   1.2020937e-01	  -4.6106601e-02	
   8.9320000e+01	  -5.2918488e-02	   1.2002379e-01	  -4.4218572e-02	
   8.9375000e+01	  -4.6588440e-02	   1.2016336e-01	  -4.1747101e-02	
   8.9430000e+01	  -4.0549523e-02	   1.2070068e-01	  -3.8751838e-02	
   8.9485000e+01	  -3.4852784e-02	   1.2169579e-01	  -3.5297217e-02	
   8.9540000e+01	  -2.9547142e-02	   1.2319734e-01	  -3.1451706e-02	
   8.9595000e+01	  -2.4676968e-02	   1.2524493e-01	  -2.7285259e-02	
   8.9650000e+01	  -2.0280028e-02	   1.2787018e-01	  -2.2863949e-02	
   8.9705000e+01	  -1.6386551e-02	   1.3109443e-01	  -1.8242377e-02	
   8.9760000e+01	  -1.3019185e-02	   1.3492280e-01	  -1.3456809e-02	
   8.9815000e+01	  -1.0193088e-02	   1.3933631e-01	  -8.5222845e-03	
   8.9870000e+01	  -7.9157183e-03	   1.4428487e-01	  -3.4344596e-03	
   8.9925000e+01	  -6.1865289e-03	   1.4968255e-01	   1.8253414e-03	
   8.9980000e+01	  -4.9968962e-03	   1.5540635e-01	   7.2842815e-03	
   9.0035000e+01	  -4.3305566e-03	   1.6129872e-01	   1.2973435e-02	
   9.0090000e+01	  -4.1646178e-03	   1.6717415e-01	   1.8924952e-02	
   9.0145000e+01	  -4.4709588e-03	   1.7283025e-01	   2.5169439e-02	
   9.0200000e+01	  -5.2175776e-03	   1.7806172e-01	   3.1732002e-02	
   9.0255000e+01	  -6.3693173e-03	   1.8267469e-01	   3.8627432e-02	
   9.0310000e+01	  -7.8873968e-03	   1.8649866e-01	   4.5856567e-02	
   9.0365000e+01	  -9.7276730e-03	   1.8939468e-01	   5.3405528e-02	
   9.0420000e+01	  -1.1838756e-02	   1.9125863e-01	   6.1248108e-02	
   9.0475000e+01	  -1.4162011e-02	   1.9201973e-01	   6.9349838e-02	
   9.0530000e+01	  -1.6634646e-02	   1.9163658e-01	   7.7671751e-02	
   9.0585000e+01	  -1.9194808e-02	   1.9009476e-01	   8.6173006e-02	
   9.0640000e+01	  -2.1786350e-02	   1.8740867e-01	   9.4812314e-02	
   9.0695000e+01	  -2.4361921e-02	   1.8362625e-01	   1.0354829e-01	
   9.0750000e+01	  -2.6884329e-02	   1.7883322e-01	   1.1233975e-01	
   9.0805000e+01	  -2.9326286e-02	   1.7315456e-01	   1.2114660e-01	
   9.0860000e+01	  -3.1668730e-02	   1.6675237e-01	   1.2993070e-01	
   9.0915000e+01	  -3.3898670e-02	   1.5982047e-01	   1.3865607e-01	
   9.0970000e+01	  -3.6007556e-02	   1.5257656e-01	   1.4728881e-01	
   9.1025000e+01	  -3.7990185e-02	   1.4525241e-01	   1.5579734e-01	
   9.1080000e+01	  -3.9843592e-02	   1.3808299e-01	   1.6415269e-01	
   9.1135000e+01	  -4.1565828e-02	   1.3129470e-01	   1.7232898e-01	
   9.1190000e+01	  -4.3154789e-02	   1.2509400e-01	   1.8030478e-01	
   9.1245000e+01	  -4.4607066e-02	   1.1965764e-01	   1.8806491e-01	
   9.1300000e+01	  -4.5917110e-02	   1.1512495e-01	   1.9560038e-01	
   9.1355000e+01	  -4.7077430e-02	   1.1159126e-01	   2.0290503e-01	
   9.1410000e+01	  -4.8080033e-02	   1.0910249e-01	   2.0996996e-01	
   9.1465000e+01	  -4.8918364e-02	   1.0765277e-01	   2.1677880e-01	
   9.1520000e+01	  -4.9588627e-02	   1.0718686e-01	   2.2330575e-01	
   9.1575000e+01	  -5.0089873e-02	   1.0760766e-01	   2.2951594e-01	
   9.1630000e+01	  -5.0422937e-02	   1.0878719e-01	   2.3536716e-01	
   9.1685000e+01	  -5.0588591e-02	   1.1057843e-01	   2.4081212e-01	
   9.1740000e+01	  -5.0585406e-02	   1.1282544e-01	   2.4580063e-01	
   9.1795000e+01	  -5.0408077e-02	   1.1537009e-01	   2.5028190e-01	
   9.1850000e+01	  -5.0046834e-02	   1.1805607e-01	   2.5420714e-01	
   9.1905000e+01	  -4.9487938e-02	   1.2073268e-01	   2.5753312e-01	
   9.1960000e+01	  -4.8715115e-02	   1.2325919e-01	   2.6022752e-01	
   9.2015000e+01	  -4.7712104e-02	   1.2550866e-01	   2.6227596e-01	
   9.2070000e+01	  -4.6466219e-02	   1.2737067e-01	   2.6368927e-01	
   9.2125000e+01	  -4.4972050e-02	   1.2875343e-01	   2.6450819e-01	
   9.2180000e+01	  -4.3234242e-02	   1.2958517e-01	   2.6480268e-01	
   9.2235000e+01	  -4.1268986e-02	   1.2981351e-01	   2.6466603e-01	
   9.2290000e+01	  -3.9104503e-02	   1.2940235e-01	   2.6420715e-01	
   9.2345000e+01	  -3.6781087e-02	   1.2832722e-01	   2.6354494e-01	
   9.2400000e+01	  -3.4351202e-02	   1.2657079e-01	   2.6280469e-01	
   9.2455000e+01	  -3.1879204e-02	   1.2412008e-01	   2.6211441e-01	
   9.2510000e+01	  -2.9439474e-02	   1.2096658e-01	   2.6160025e-01	
   9.2565000e+01	  -2.7112563e-02	   1.1710952e-01	   2.6138239e-01	
   9.2620000e+01	  -2.4980564e-02	   1.1256079e-01	   2.6157151e-01	
   9.2675000e+01	  -2.3123021e-02	   1.0734894e-01	   2.6226542e-01	
   9.2730000e+01	  -2.1613485e-02	   1.0152106e-01	   2.6354539e-01	
   9.2785000e+01	  -2.0516299e-02	   9.5141593e-02	   2.6547305e-01	
   9.2840000e+01	  -1.9883761e-02	   8.8288578e-02	   2.6808825e-01	
   9.2895000e+01	  -1.9754153e-02	   8.1048221e-02	   2.7140684e-01	
   9.2950000e+01	  -2.0150547e-02	   7.3509464e-02	   2.7541818e-01	
   9.3005000e+01	  -2.1079784e-02	   6.5759911e-02	   2.8008147e-01	
   9.3060000e+01	  -2.2531389e-02	   5.7883232e-02	   2.8532107e-01	
   9.3115000e+01	  -2.4477130e-02	   4.9957199e-02	   2.9102298e-01	
   9.3170000e+01	  -2.6872238e-02	   4.2051788e-02	   2.9703678e-01	
   9.3225000e+01	  -2.9658546e-02	   3.4227359e-02	   3.0318481e-01	
   9.3280000e+01	  -3.2768894e-02	   2.6532920e-02	   3.0927623e-01	
   9.3335000e+01	  -3.6131829e-02	   1.9004390e-02	   3.1512132e-01	
   9.3390000e+01	  -3.9675767e-02	   1.1662991e-02	   3.2054255e-01	
   9.3445000e+01	  -4.3331945e-02	   4.5143659e-03	   3.2538162e-01	
   9.3500000e+01	  -4.7035945e-02	  -2.4507588e-03	   3.2950332e-01	
   9.3555000e+01	  -5.0728041e-02	  -9.2538321e-03	   3.3279848e-01	
   9.3610000e+01	  -5.4352789e-02	  -1.5923496e-02	   3.3518798e-01	
   9.3665000e+01	  -5.7858176e-02	  -2.2488564e-02	   3.3662773e-01	
   9.3720000e+01	  -6.1194599e-02	  -2.8969801e-02	   3.3711241e-01	
   9.3775000e+01	  -6.4313896e-02	  -3.5371896e-02	   3.3667534e-01	
   9.3830000e+01	  -6.7168874e-02	  -4.1677333e-02	   3.3538483e-01	
   9.3885000e+01	  -6.9713988e-02	  -4.7844267e-02	   3.3333862e-01	
   9.3940000e+01	  -7.1907372e-02	  -5.3809941e-02	   3.3065755e-01	
   9.3995000e+01	  -7.3713362e-02	  -5.9498843e-02	   3.2747861e-01	
   9.4050000e+01	  -7.5104409e-02	  -6.4832346e-02	   3.2394819e-01	
   9.4105000e+01	  -7.6061805e-02	  -6.9736072e-02	   3.2021597e-01	
   9.4160000e+01	  -7.6575338e-02	  -7.4143442e-02	   3.1642869e-01	
   9.4215000e+01	  -7.6642300e-02	  -7.7996755e-02	   3.1272297e-01	
   9.4270000e+01	  -7.6266125e-02	  -8.1247286e-02	   3.0921844e-01	
   9.4325000e+01	  -7.5455068e-02	  -8.3853754e-02	   3.0601224e-01	
   9.4380000e+01	  -7.4221646e-02	  -8.5777939e-02	   3.0317545e-01	
   9.4435000e+01	  -7.2583184e-02	  -8.6978699e-02	   3.0075014e-01	
   9.4490000e+01	  -7.0562709e-02	  -8.7407628e-02	   2.9874688e-01	
   9.4545000e+01	  -6.8189255e-02	  -8.7008431e-02	   2.9714359e-01	
   9.4600000e+01	  -6.5497497e-02	  -8.5719956e-02	   2.9588752e-01	
   9.4655000e+01	  -6.2527187e-02	  -8.3482254e-02	   2.9490175e-01	
   9.4710000e+01	  -5.9322499e-02	  -8.0244887e-02	   2.9409544e-01	
   9.4765000e+01	  -5.5930886e-02	  -7.5975831e-02	   2.9337561e-01	
   9.4820000e+01	  -5.2401445e-02	  -7.0668992e-02	   2.9265724e-01	
   9.4875000e+01	  -4.8783134e-02	  -6.4349319e-02	   2.9186947e-01	
   9.4930000e+01	  -4.5123011e-02	  -5.7075757e-02	   2.9095799e-01	
   9.4985000e+01	  -4.1464598e-02	  -4.8943120e-02	   2.8988457e-01	
   9.5040000e+01	  -3.7846992e-02	  -4.0083435e-02	   2.8862485e-01	
   9.5095000e+01	  -3.4305195e-02	  -3.0665449e-02	   2.8716505e-01	
   9.5150000e+01	  -3.0871427e-02	  -2.0890596e-02	   2.8549828e-01	
   9.5205000e+01	  -2.7576781e-02	  -1.0985611e-02	   2.8362118e-01	
   9.5260000e+01	  -2.4452473e-02	  -1.1932073e-03	   2.8153147e-01	
   9.5315000e+01	  -2.1529965e-02	   8.2383521e-03	   2.7922738e-01	
   9.5370000e+01	  -1.8839726e-02	   1.7066180e-02	   2.7670933e-01	
   9.5425000e+01	  -1.6408747e-02	   2.5062883e-02	   2.7398249e-01	
   9.5480000e+01	  -1.4257154e-02	   3.2024952e-02	   2.7105824e-01	
   9.5535000e+01	  -1.2394981e-02	   3.7780111e-02	   2.6795452e-01	
