
0   3   6	
   0.0000000e+00	   1.3235404e+00	   9.1886071e-01	
   5.5000000e-02	   1.2753131e+00	   8.4890160e-01	
   1.1000000e-01	   1.2327299e+00	   7.7446450e-01	
   1.6500000e-01	   8.1379101e-01	   4.1398280e-01	
   2.2000000e-01	   1.3197346e+00	   6.8941548e-01	
   2.7500000e-01	   7.0601735e-01	   5.8175969e-01	
   3.3000000e-01	   1.6644090e+00	   4.6726836e-01	
   3.8500000e-01	   1.0503123e+00	   4.4764729e-01	
   4.4000000e-01	   1.2902671e+00	   4.4766411e-01	
   4.9500000e-01	   1.7302574e+00	   5.8051609e-01	
   5.5000000e-01	   1.3545427e+00	   5.7269348e-01	
   6.0500000e-01	   8.8376086e-01	   5.0686585e-01	
   6.6000000e-01	   1.2313837e+00	   6.5422933e-01	
   7.1500000e-01	   1.6932970e+00	   8.9578808e-01	
   7.7000000e-01	   1.4535389e+00	   7.6338018e-01	
   8.2500000e-01	   1.5008312e+00	   6.5705922e-01	
   8.8000000e-01	   1.4697608e+00	   7.7673261e-01	
   9.3500000e-01	   1.6863898e+00	   6.8951960e-01	
   9.9000000e-01	   9.2405634e-01	   5.2052099e-01	
   1.0450000e+00	   7.1993780e-01	   3.7539240e-01	
   1.1000000e+00	   1.4271230e+00	   6.2298499e-01	
   1.1550000e+00	   1.5583843e+00	   4.6674831e-01	
   1.2100000e+00	   1.7553309e+00	   5.4725764e-01	
   1.2650000e+00	   1.1628374e+00	   7.5842218e-01	
   1.3200000e+00	   2.0992854e+00	   7.3159791e-01	
   1.3750000e+00	   1.7760062e+00	   9.7707167e-01	
   1.4300000e+00	   1.5019626e+00	   8.4657356e-01	
   1.4850000e+00	   1.7474150e+00	   8.9255070e-01	
   1.5400000e+00	   1.8830837e+00	   7.3617855e-01	
   1.5950000e+00	   1.3549711e+00	   7.6561916e-01	
   1.6500000e+00	   1.3414173e+00	   6.3579784e-01	
   1.7050000e+00	   1.2052177e+00	   5.8604840e-01	
   1.7600000e+00	   1.1675729e+00	   5.0256485e-01	
   1.8150000e+00	   1.1866258e+00	   5.8570550e-01	
   1.8700000e+00	   1.0580190e+00	   2.5261687e-01	
   1.9250000e+00	   1.4188462e+00	   4.8347577e-01	
   1.9800000e+00	   1.4138177e+00	   8.5654886e-01	
   2.0350000e+00	   1.8218796e+00	   9.5315118e-01	
   2.0900000e+00	   1.5202541e+00	   9.8848425e-01	
   2.1450000e+00	   1.3133807e+00	   8.1933278e-01	
   2.2000000e+00	   1.6652764e+00	   9.1379721e-01	
   2.2550000e+00	   1.5406160e+00	   9.7800671e-01	
   2.3100000e+00	   1.4708883e+00	   6.8340756e-01	
   2.3650000e+00	   1.1071596e+00	   7.7770958e-01	
   2.4200000e+00	   1.2947941e+00	   6.7493108e-01	
   2.4750000e+00	   1.3930472e+00	   9.2904194e-01	
   2.5300000e+00	   1.1142796e+00	   7.3367184e-01	
   2.5850000e+00	   5.4488161e-01	   3.6737380e-01	
   2.6400000e+00	   5.1074513e-01	   1.9073969e-01	
   2.6950000e+00	   1.5320289e+00	   7.8216321e-01	
   2.7500000e+00	   1.2578233e+00	   8.0078927e-01	
   2.8050000e+00	   1.7590949e+00	   6.9649161e-01	
   2.8600000e+00	   1.5621372e+00	   8.2272796e-01	
   2.9150000e+00	   1.7054043e+00	   1.0932036e+00	
   2.9700000e+00	   1.8170203e+00	   1.0815906e+00	
   3.0250000e+00	   1.2591347e+00	   7.1831263e-01	
   3.0800000e+00	   1.3646398e+00	   8.6864269e-01	
   3.1350000e+00	   1.5240217e+00	   1.0744485e+00	
   3.1900000e+00	   1.3699279e+00	   7.4689849e-01	
   3.2450000e+00	   1.2917648e+00	   6.7878147e-01	
   3.3000000e+00	   1.7786224e+00	   6.5839856e-01	
   3.3550000e+00	   1.3573849e+00	   9.1071941e-01	
   3.4100000e+00	   6.8287759e-01	   4.1872965e-01	
   3.4650000e+00	   1.2873062e+00	   4.3752097e-01	
   3.5200000e+00	   1.2019674e+00	   7.6643527e-01	
   3.5750000e+00	   1.4627805e+00	   9.3023841e-01	
   3.6300000e+00	   1.4464720e+00	   9.0756761e-01	
   3.6850000e+00	   1.6814894e+00	   9.5064000e-01	
   3.7400000e+00	   1.5911004e+00	   9.0607335e-01	
   3.7950000e+00	   1.7167402e+00	   1.0498280e+00	
   3.8500000e+00	   1.3794308e+00	   8.1661105e-01	
   3.9050000e+00	   1.3114006e+00	   6.3907131e-01	
   3.9600000e+00	   1.1701475e+00	   7.8744620e-01	
   4.0150000e+00	   1.2526253e+00	   5.7611960e-01	
   4.0700000e+00	   9.6370021e-01	   6.7722995e-01	
   4.1250000e+00	   9.0188229e-01	   5.8283307e-01	
   4.1800000e+00	   1.0676778e+00	   5.5288669e-01	
   4.2350000e+00	   1.3507055e+00	   8.1139283e-01	
   4.2900000e+00	   1.1563572e+00	   6.1172557e-01	
   4.3450000e+00	   1.2553153e+00	   7.2046494e-01	
   4.4000000e+00	   1.3355528e+00	   9.2750006e-01	
   4.4550000e+00	   1.3250893e+00	   1.0625541e+00	
   4.5100000e+00	   1.1184103e+00	   8.4337592e-01	
   4.5650000e+00	   1.0192050e+00	   7.2439308e-01	
   4.6200000e+00	   1.4402477e+00	   8.8776205e-01	
   4.6750000e+00	   8.4216989e-01	   6.4708820e-01	
   4.7300000e+00	   1.4679048e+00	   7.1428372e-01	
   4.7850000e+00	   7.5535083e-01	   6.1802461e-01	
   4.8400000e+00	   1.0290228e+00	   6.9534833e-01	
   4.8950000e+00	   1.2588715e+00	   5.1831479e-01	
   4.9500000e+00	   8.1387123e-01	   2.8889504e-01	
   5.0050000e+00	   8.2040179e-01	   6.9318314e-01	
   5.0600000e+00	   1.1467280e+00	   8.3993150e-01	
   5.1150000e+00	   1.1241246e+00	   8.9899604e-01	
   5.1700000e+00	   1.9940661e+00	   1.0478989e+00	
   5.2250000e+00	   1.6776933e+00	   6.8708968e-01	
   5.2800000e+00	   1.8610195e+00	   9.2750006e-01	
   5.3350000e+00	   1.4079670e+00	   9.8416090e-01	
   5.3900000e+00	   1.1796762e+00	   7.3136136e-01	
   5.4450000e+00	   1.2466125e+00	   7.1922651e-01	
   5.5000000e+00	   9.9333935e-01	   6.2330465e-01	
   5.5550000e+00	   1.1912449e+00	   7.2032207e-01	
   5.6100000e+00	   9.1218622e-01	   5.1193451e-01	
   5.6650000e+00	   1.0419160e+00	   3.7159281e-01	
   5.7200000e+00	   6.1005799e-01	   4.3906402e-01	
   5.7750000e+00	   1.3443203e+00	   2.9067098e-01	
   5.8300000e+00	   1.5045542e+00	   8.6442070e-01	
   5.8850000e+00	   1.2058804e+00	   8.6548004e-01	
   5.9400000e+00	   1.3416697e+00	   9.9973957e-01	
   5.9950000e+00	   1.5565576e+00	   8.7920625e-01	
   6.0500000e+00	   1.2094459e+00	   8.9777737e-01	
   6.1050000e+00	   1.1814755e+00	   8.6665952e-01	
   6.1600000e+00	   1.7310490e+00	   1.0798608e+00	
   6.2150000e+00	   1.4998865e+00	   7.9332606e-01	
   6.2700000e+00	   1.0345628e+00	   7.5975588e-01	
   6.3250000e+00	   9.1297906e-01	   5.3830096e-01	
   6.3800000e+00	   9.7686941e-01	   6.2437161e-01	
   6.4350000e+00	   1.2870241e+00	   6.3852335e-01	
   6.4900000e+00	   5.1433496e-01	   3.9599197e-01	
   6.5450000e+00	   8.7458382e-01	   2.1176803e-01	
   6.6000000e+00	   1.0269645e+00	   2.6335730e-01	
   6.6550000e+00	   1.0769373e+00	   5.8083812e-01	
   6.7100000e+00	   1.3390914e+00	   5.1254037e-01	
   6.7650000e+00	   1.2858771e+00	   8.9785407e-01	
   6.8200000e+00	   1.3612754e+00	   9.0155804e-01	
   6.8750000e+00	   1.6007445e+00	   1.0479956e+00	
   6.9300000e+00	   8.0381198e-01	   6.6151502e-01	
   6.9850000e+00	   1.3219315e+00	   6.6098851e-01	
   7.0400000e+00	   1.3541466e+00	   8.3989284e-01	
   7.0950000e+00	   1.7750891e+00	   7.4016650e-01	
   7.1500000e+00	   8.4715881e-01	   5.5607809e-01	
   7.2050000e+00	   6.2183696e-01	   4.5872618e-01	
   7.2600000e+00	   6.2821304e-01	   4.7793463e-01	
   7.3150000e+00	   9.3148129e-01	   6.4432688e-01	
   7.3700000e+00	   5.4582039e-01	   4.1923036e-02	
   7.4250000e+00	   6.2632035e-01	   1.5083741e-01	
   7.4800000e+00	   8.8552822e-01	   5.8129941e-01	
   7.5350000e+00	   1.3508490e+00	   6.6532806e-01	
   7.5900000e+00	   7.5018356e-01	   6.7259853e-01	
   7.6450000e+00	   9.2429077e-01	   8.9465463e-01	
   7.7000000e+00	   1.5504117e+00	   6.7644269e-01	
   7.7550000e+00	   1.1335239e+00	   5.7001141e-01	
   7.8100000e+00	   1.1147745e+00	   5.8685956e-01	
   7.8650000e+00	   8.9956029e-01	   3.7388682e-01	
   7.9200000e+00	   9.7503601e-01	   5.5462850e-01	
   7.9750000e+00	   1.0094667e+00	   3.9266711e-01	
   8.0300000e+00	   1.0695764e+00	   3.5326839e-01	
   8.0850000e+00	   9.6333261e-01	   2.9005690e-01	
   8.1400000e+00	   6.4398212e-01	   1.8173537e-01	
   8.1950000e+00	   1.2061093e+00	   7.8112899e-01	
   8.2500000e+00	   1.5252917e+00	   4.8733423e-01	
   8.3050000e+00	   1.2123555e+00	   5.8633457e-01	
   8.3600000e+00	   1.1996375e+00	   7.5210695e-01	
   8.4150000e+00	   6.9821432e-01	   6.4451125e-01	
   8.4700000e+00	   9.7221197e-01	   5.9620533e-01	
   8.5250000e+00	   8.2778786e-01	   3.3927443e-01	
   8.5800000e+00	   1.5609522e+00	   5.6082167e-01	
   8.6350000e+00	   9.8830653e-01	   6.1704982e-01	
   8.6900000e+00	   1.1643405e+00	   3.6355939e-01	
   8.7450000e+00	   1.0000654e+00	   2.8882657e-01	
   8.8000000e+00	   4.9043475e-01	   1.3924485e-01	
   8.8550000e+00	   6.0715167e-01	   4.2092328e-01	
   8.9100000e+00	   8.1219315e-01	   5.9278706e-01	
   8.9650000e+00	   9.2912774e-01	   6.4959070e-01	
   9.0200000e+00	   1.3367057e+00	   8.0790420e-01	
   9.0750000e+00	   1.5971693e+00	   9.1488645e-01	
   9.1300000e+00	   1.1194477e+00	   9.1171488e-01	
   9.1850000e+00	   9.8761504e-01	   5.4997532e-01	
   9.2400000e+00	   1.1503144e+00	   6.2376218e-01	
   9.2950000e+00	   1.0819937e+00	   7.6029266e-01	
   9.3500000e+00	   5.3704332e-01	   4.6360610e-01	
   9.4050000e+00	   5.5586414e-01	   4.7121197e-01	
   9.4600000e+00	   4.3525924e-01	   4.5475356e-01	
   9.5150000e+00	   1.4020792e+00	   4.2726454e-01	
   9.5700000e+00	   5.8745295e-01	   2.4754789e-01	
   9.6250000e+00	   1.0337113e+00	   5.3736013e-01	
   9.6800000e+00	   1.0826732e+00	   7.5087922e-01	
   9.7350000e+00	   9.0405674e-01	   8.0379712e-01	
   9.7900000e+00	   1.5068136e+00	   9.9818153e-01	
   9.8450000e+00	   1.5335056e+00	   9.5396186e-01	
   9.9000000e+00	   1.5350172e+00	   1.0672335e+00	
   9.9550000e+00	   1.5242561e+00	   8.4146801e-01	
   1.0010000e+01	   1.6858922e+00	   7.2636727e-01	
   1.0065000e+01	   1.4487414e+00	   6.8525782e-01	
   1.0120000e+01	   1.0694422e+00	   6.5496060e-01	
   1.0175000e+01	   1.5328655e+00	   8.8963909e-01	
   1.0230000e+01	   1.0422323e+00	   6.6803947e-01	
   1.0285000e+01	   4.7192882e-01	   5.0907030e-01	
   1.0340000e+01	   1.0857620e+00	   5.1702906e-01	
   1.0395000e+01	   1.0796638e+00	   4.7434966e-01	
   1.0450000e+01	   1.6307600e+00	   6.2811631e-01	
   1.0505000e+01	   1.2589820e+00	   8.3444087e-01	
   1.0560000e+01	   1.0965743e+00	   9.2220712e-01	
   1.0615000e+01	   1.4900661e+00	   1.1295855e+00	
   1.0670000e+01	   1.4994293e+00	   8.2458321e-01	
   1.0725000e+01	   1.0900319e+00	   6.5143803e-01	
   1.0780000e+01	   9.8398734e-01	   8.4744609e-01	
   1.0835000e+01	   1.5340888e+00	   7.6011590e-01	
   1.0890000e+01	   6.7063619e-01	   7.4443844e-01	
   1.0945000e+01	   8.5985238e-01	   5.8382611e-01	
   1.1000000e+01	   1.1678592e+00	   7.0854928e-01	
   1.1055000e+01	   9.5752804e-01	   5.9897136e-01	
   1.1110000e+01	   9.3973730e-01	   4.7205901e-01	
   1.1165000e+01	   4.2019556e-01	   4.7553498e-01	
   1.1220000e+01	   8.7488468e-01	   4.0635251e-01	
   1.1275000e+01	   6.3175246e-01	   6.1594349e-01	
   1.1330000e+01	   1.2508910e+00	   7.8693561e-01	
   1.1385000e+01	   1.0379159e+00	   7.1089116e-01	
   1.1440000e+01	   1.4186932e+00	   8.5976504e-01	
   1.1495000e+01	   1.2542551e+00	   8.9091833e-01	
   1.1550000e+01	   9.8226920e-01	   9.3770730e-01	
   1.1605000e+01	   1.4981108e+00	   6.8803732e-01	
   1.1660000e+01	   7.0459088e-01	   7.2628282e-01	
   1.1715000e+01	   9.8617657e-01	   9.0331105e-01	
   1.1770000e+01	   8.9976175e-01	   8.3444081e-01	
   1.1825000e+01	   7.7275799e-01	   5.6759872e-01	
   1.1880000e+01	   1.1290006e+00	   3.7949280e-01	
   1.1935000e+01	   1.5012368e+00	   6.3203241e-01	
   1.1990000e+01	   9.1619662e-01	   2.3643775e-01	
   1.2045000e+01	   5.1692669e-01	   2.9088959e-01	
   1.2100000e+01	   9.3691826e-01	   4.7392290e-01	
   1.2155000e+01	   1.6101674e+00	   9.2706687e-01	
   1.2210000e+01	   1.2989416e+00	   9.4169000e-01	
   1.2265000e+01	   1.4089925e+00	   6.5487332e-01	
   1.2320000e+01	   1.1332296e+00	   5.1061253e-01	
   1.2375000e+01	   1.5599597e+00	   7.8697617e-01	
   1.2430000e+01	   1.2898576e+00	   6.1869534e-01	
   1.2485000e+01	   1.3269102e+00	   6.1144982e-01	
   1.2540000e+01	   1.3529663e+00	   4.8652590e-01	
   1.2595000e+01	   1.0045077e+00	   5.5367493e-01	
   1.2650000e+01	   1.0524868e+00	   3.2600054e-01	
   1.2705000e+01	   9.3286582e-01	   4.3409651e-01	
   1.2760000e+01	   9.4756223e-01	   2.2114785e-01	
   1.2815000e+01	   6.2126294e-01	   5.1123154e-01	
   1.2870000e+01	   1.2524907e+00	   7.0486096e-01	
   1.2925000e+01	   1.0198100e+00	   4.2452812e-01	
   1.2980000e+01	   1.3019594e+00	   7.1296867e-01	
   1.3035000e+01	   8.7609651e-01	   8.1549890e-01	
   1.3090000e+01	   1.1280717e+00	   8.7246445e-01	
   1.3145000e+01	   1.1182955e+00	   6.2524809e-01	
   1.3200000e+01	   1.4218680e+00	   5.6769043e-01	
   1.3255000e+01	   9.4687622e-01	   7.1699917e-01	
   1.3310000e+01	   1.1515391e+00	   4.8896343e-01	
   1.3365000e+01	   7.7499673e-01	   4.9864995e-01	
   1.3420000e+01	   8.5092184e-01	   4.7032133e-01	
   1.3475000e+01	   8.4336426e-01	   6.1444367e-01	
   1.3530000e+01	   7.8592149e-01	   2.5096913e-01	
   1.3585000e+01	   8.5074394e-01	   3.5004783e-01	
   1.3640000e+01	   7.5404070e-01	   6.6941918e-01	
   1.3695000e+01	   1.5771039e+00	   6.4360901e-01	
   1.3750000e+01	   1.3766372e+00	   8.3444087e-01	
   1.3805000e+01	   7.9413623e-01	   8.9422990e-01	
   1.3860000e+01	   1.4343905e+00	   6.8337357e-01	
   1.3915000e+01	   1.5878277e+00	   1.2064808e+00	
   1.3970000e+01	   1.6202012e+00	   8.9984551e-01	
   1.4025000e+01	   1.0232205e+00	   8.8687618e-01	
   1.4080000e+01	   1.1678897e+00	   6.0710256e-01	
   1.4135000e+01	   1.0529593e+00	   5.8391136e-01	
   1.4190000e+01	   1.1701756e+00	   5.1332649e-01	
   1.4245000e+01	   9.4723455e-01	   3.4600448e-01	
   1.4300000e+01	   8.2921935e-01	   4.9960517e-01	
   1.4355000e+01	   9.0841141e-01	   3.6417772e-01	
   1.4410000e+01	   7.8356683e-01	   3.5239149e-01	
   1.4465000e+01	   1.2129142e+00	   6.2337946e-01	
   1.4520000e+01	   1.4213199e+00	   8.1747351e-01	
   1.4575000e+01	   1.4394313e+00	   8.9884303e-01	
   1.4630000e+01	   1.5397544e+00	   1.0937596e+00	
   1.4685000e+01	   9.2785689e-01	   7.8688574e-01	
   1.4740000e+01	   1.0699732e+00	   1.0653575e+00	
   1.4795000e+01	   1.7995283e+00	   1.0016633e+00	
   1.4850000e+01	   1.4046719e+00	   9.7480285e-01	
   1.4905000e+01	   1.1520446e+00	   6.4933165e-01	
   1.4960000e+01	   1.1165950e+00	   5.6247775e-01	
   1.5015000e+01	   1.1313838e+00	   7.4960793e-01	
   1.5070000e+01	   1.0624838e+00	   4.7964820e-01	
   1.5125000e+01	   8.8173821e-01	   3.9496960e-01	
   1.5180000e+01	   7.9168647e-01	   2.5805009e-01	
   1.5235000e+01	   1.0867233e+00	   4.5997095e-01	
   1.5290000e+01	   1.3128374e+00	   6.1992229e-01	
   1.5345000e+01	   1.3398886e+00	   4.8277254e-01	
   1.5400000e+01	   1.1330058e+00	   8.6741749e-01	
   1.5455000e+01	   1.6568453e+00	   9.8791713e-01	
   1.5510000e+01	   1.7308841e+00	   1.0922023e+00	
   1.5565000e+01	   9.0332478e-01	   7.0153417e-01	
   1.5620000e+01	   1.3569727e+00	   7.4363612e-01	
   1.5675000e+01	   1.3718610e+00	   7.8966795e-01	
   1.5730000e+01	   1.4927342e+00	   5.5521378e-01	
   1.5785000e+01	   1.4946355e+00	   5.7183962e-01	
   1.5840000e+01	   8.1655121e-01	   3.6435102e-01	
   1.5895000e+01	   1.0098174e+00	   6.5388945e-01	
   1.5950000e+01	   8.0300724e-01	   3.4110983e-01	
   1.6005000e+01	   7.8098704e-01	   2.9654457e-01	
   1.6060000e+01	   1.9977954e-01	   6.9478488e-03	
   1.6115000e+01	   1.3739097e+00	   5.9456917e-01	
   1.6170000e+01	   1.3599419e+00	   7.5963973e-01	
   1.6225000e+01	   7.3206420e-01	   7.0665436e-01	
   1.6280000e+01	   6.5789742e-01	   6.6946054e-01	
   1.6335000e+01	   1.6463079e+00	   8.3903104e-01	
   1.6390000e+01	   9.9788780e-01	   5.9092851e-01	
   1.6445000e+01	   1.0468188e+00	   6.8388964e-01	
   1.6500000e+01	   5.1026459e+00	   7.2606837e-01	
   1.6555000e+01	   9.5461085e+00	   8.7031953e-01	
   1.6610000e+01	   9.1601046e+00	   8.5042769e-01	
   1.6665000e+01	   8.5382167e+00	   5.9468729e-01	
   1.6720000e+01	   9.0178832e+00	   6.5729381e-01	
   1.6775000e+01	   8.8327344e+00	   6.5238138e-01	
   1.6830000e+01	   8.6419722e+00	   4.4766410e-01	
   1.6885000e+01	   8.7290620e+00	   6.3579784e-01	
   1.6940000e+01	   9.4578447e+00	   8.3059427e-01	
   1.6995000e+01	   9.3313250e+00	   9.2279644e-01	
   1.7050000e+01	   8.6304234e+00	   9.0472010e-01	
   1.7105000e+01	   9.1876889e+00	   6.3903351e-01	
   1.7160000e+01	   9.2022800e+00	   9.1072990e-01	
   1.7215000e+01	   9.4269363e+00	   8.9358826e-01	
   1.7270000e+01	   8.8744575e+00	   8.9426865e-01	
   1.7325000e+01	   9.2217031e+00	   5.8465490e-01	
   1.7380000e+01	   8.7999134e+00	   3.8432338e-01	
   1.7435000e+01	   8.3954503e+00	   4.5790284e-01	
   1.7490000e+01	   8.2618238e+00	   3.6975974e-01	
   1.7545000e+01	   8.2182855e+00	   3.1302315e-01	
   1.7600000e+01	   8.5629298e+00	   3.2071347e-01	
   1.7655000e+01	   9.0717379e+00	   6.8502297e-01	
   1.7710000e+01	   9.3005528e+00	   5.8942507e-01	
   1.7765000e+01	   8.6714964e+00	   6.0208189e-01	
   1.7820000e+01	   9.1128936e+00	   8.0743061e-01	
   1.7875000e+01	   9.6423974e+00	   7.6090991e-01	
   1.7930000e+01	   9.3830576e+00	   6.0343635e-01	
   1.7985000e+01	   9.0037482e+00	   6.4489509e-01	
   1.8040000e+01	   9.1224597e+00	   5.9620784e-01	
   1.8095000e+01	   9.3066200e+00	   6.5750065e-01	
   1.8150000e+01	   8.8654976e+00	   4.2070520e-01	
   1.8205000e+01	   8.9637500e+00	   5.4757118e-01	
   1.8260000e+01	   8.8888309e+00	   1.8184714e-01	
   1.8315000e+01	   8.5910909e+00	   4.8733423e-01	
   1.8370000e+01	   8.7131966e+00	   2.1362603e-01	
   1.8425000e+01	   8.8316305e+00	   7.5475180e-02	
   1.8480000e+01	   8.6599166e+00	   4.7146650e-01	
   1.8535000e+01	   9.3656633e+00	   8.0541580e-01	
   1.8590000e+01	   9.5087241e+00	   7.2317313e-01	
   1.8645000e+01	   8.7349511e+00	   4.9546030e-01	
   1.8700000e+01	   8.9879095e+00	   6.2001339e-01	
   1.8755000e+01	   9.4650816e+00	   6.9865881e-01	
   1.8810000e+01	   8.8675027e+00	   6.2198290e-01	
   1.8865000e+01	   8.7392617e+00	   4.2689683e-01	
   1.8920000e+01	   8.9289293e+00	   3.8707567e-01	
   1.8975000e+01	   8.9383764e+00	   5.3395275e-01	
   1.9030000e+01	   9.0588573e+00	   5.8298028e-01	
   1.9085000e+01	   8.4946320e+00	   3.6469168e-01	
   1.9140000e+01	   8.7751759e+00	   5.8156880e-02	
   1.9195000e+01	   8.3681717e+00	   1.5189893e-01	
   1.9250000e+01	   7.9850146e+00	  -5.7827134e-03	
   1.9305000e+01	   8.7039620e+00	  -1.0064144e-01	
   1.9360000e+01	   8.7955792e+00	   5.1213998e-01	
   1.9415000e+01	   9.1963553e+00	   6.5271653e-01	
   1.9470000e+01	   9.4916440e+00	   8.2969428e-01	
   1.9525000e+01	   9.2767602e+00	   4.9508369e-01	
   1.9580000e+01	   8.7867281e+00	   5.6332070e-01	
   1.9635000e+01	   9.2098492e+00	   8.2271803e-01	
   1.9690000e+01	   8.9878768e+00	   6.4868906e-01	
   1.9745000e+01	   9.1067639e+00	   5.4619458e-01	
   1.9800000e+01	   8.7885517e+00	   4.3001423e-01	
   1.9855000e+01	   7.5928022e-01	   1.0034020e-01	
   1.9910000e+01	   7.3773514e-01	   1.4279835e-01	
   1.9965000e+01	  -4.1683837e-02	  -1.8864952e-01	
   2.0020000e+01	   6.9827837e-01	  -5.1438107e-02	
   2.0075000e+01	   8.0892391e+00	   3.4013254e-01	
   2.0130000e+01	   8.0324103e+00	  -4.1444045e-02	
   2.0185000e+01	   8.4387764e+00	   2.3929852e-01	
   2.0240000e+01	   8.7413628e+00	   6.1390423e-01	
   2.0295000e+01	   8.6502817e+00	   5.9506557e-01	
   2.0350000e+01	   8.9362389e+00	   6.6047845e-01	
   2.0405000e+01	   9.3743299e+00	   7.0243855e-01	
   2.0460000e+01	   8.7258123e+00	   4.1663653e-01	
   2.0515000e+01	   8.7013107e+00	   5.0528877e-01	
   2.0570000e+01	   9.2437203e+00	   6.1647909e-01	
   2.0625000e+01	   8.7157462e+00	   5.6681477e-01	
   2.0680000e+01	   8.9290096e+00	   4.1092424e-01	
   2.0735000e+01	   8.3350452e+00	   3.7427816e-01	
   2.0790000e+01	   8.9464224e+00	   3.7758961e-01	
   2.0845000e+01	   1.2895601e+00	   7.4780742e-02	
   2.0900000e+01	  -2.6922999e-01	  -2.0815730e-01	
   2.0955000e+01	   8.6509323e+00	   1.7528553e-01	
   2.1010000e+01	   8.9457837e+00	   4.0846206e-01	
   2.1065000e+01	   9.0434074e+00	   3.6500295e-01	
   2.1120000e+01	   9.2620878e+00	   4.1554530e-01	
   2.1175000e+01	   9.0357652e+00	   5.6149969e-01	
   2.1230000e+01	   8.7204264e+00	   4.2261269e-01	
   2.1285000e+01	   8.7046329e+00	   4.0173686e-01	
   2.1340000e+01	   8.3847172e+00	   3.9496854e-01	
   2.1395000e+01	   8.9589816e+00	   5.7251179e-01	
   2.1450000e+01	   9.1537859e+00	   4.4453318e-01	
   2.1505000e+01	   8.5453515e+00	   1.5313332e-01	
   2.1560000e+01	  -3.0568700e-02	  -1.0850412e-01	
   2.1615000e+01	  -2.3752152e-01	  -1.9484391e-01	
   2.1670000e+01	   2.8447984e-01	  -1.9659357e-01	
   2.1725000e+01	   6.2644507e-01	  -8.8748586e-03	
   2.1780000e+01	   6.7175825e+00	   3.2257631e-01	
   2.1835000e+01	   9.0115984e+00	   5.1494284e-01	
   2.1890000e+01	   9.0629441e+00	   5.5497591e-01	
   2.1945000e+01	   8.5505154e+00	   5.6604586e-01	
   2.2000000e+01	   8.4524215e+00	   3.8283613e-01	
   2.2055000e+01	   8.8682240e+00	   6.5303246e-01	
   2.2110000e+01	   9.3343969e+00	   6.8534104e-01	
   2.2165000e+01	   8.4468311e+00	   4.2715385e-01	
   2.2220000e+01	   9.1064644e+00	   4.2301459e-01	
   2.2275000e+01	   9.3704201e+00	   4.4706048e-01	
   2.2330000e+01	   4.0713754e-01	  -2.9027995e-02	
   2.2385000e+01	   8.1530137e+00	   1.2659015e-01	
   2.2440000e+01	   7.7373829e+00	   1.1596713e-01	
   2.2495000e+01	   8.2912061e+00	   1.2788883e-01	
   2.2550000e+01	   7.8401315e+00	   5.1526866e-02	
   2.2605000e+01	   8.4841332e+00	   2.6931728e-01	
   2.2660000e+01	   8.9803749e+00	   4.2968739e-01	
   2.2715000e+01	   9.0673284e+00	   7.1476172e-01	
   2.2770000e+01	   9.1206436e+00	   6.1905460e-01	
   2.2825000e+01	   4.4798672e+00	   2.1986863e-01	
   2.2880000e+01	   6.4672762e-01	   3.0669091e-01	
   2.2935000e+01	   2.4200279e-01	   3.8151950e-01	
   2.2990000e+01	   7.7111395e-01	   2.6769152e-01	
   2.3045000e+01	   2.7515767e-01	   1.6605520e-01	
   2.3100000e+01	   2.0733836e-01	   1.0590380e-01	
   2.3155000e+01	   2.2659054e-02	   1.8515481e-01	
   2.3210000e+01	   4.5482129e-01	   1.6810768e-01	
   2.3265000e+01	   9.4662428e-02	  -1.8683406e-01	
   2.3320000e+01	  -2.9991830e-01	  -2.7999980e-01	
   2.3375000e+01	  -5.1272542e-02	   1.5335319e-02	
   2.3430000e+01	   3.3256799e-01	   1.8243028e-01	
   2.3485000e+01	   1.9228703e-01	   2.6311112e-01	
   2.3540000e+01	   3.5418114e-01	   2.9256499e-01	
   2.3595000e+01	   8.3414215e-01	   2.7864634e-01	
   2.3650000e+01	   8.6006531e-01	   4.1861863e-01	
   2.3705000e+01	   3.0819804e-01	   3.5394816e-01	
   2.3760000e+01	   7.9672344e-01	   1.9988024e-01	
   2.3815000e+01	   5.6815381e-01	   3.7496808e-01	
   2.3870000e+01	   3.0458218e-01	   2.6898191e-01	
   2.3925000e+01	   2.4852833e-01	   1.5123126e-01	
   2.3980000e+01	   5.3297892e-01	  -6.0964487e-02	
   2.4035000e+01	   6.0553738e-01	   2.2156916e-01	
   2.4090000e+01	   5.1705079e-01	   6.3152366e-02	
   2.4145000e+01	   5.6587368e-01	   9.2600569e-02	
   2.4200000e+01	  -1.8916191e-02	  -2.7761597e-01	
   2.4255000e+01	   2.8719259e-01	  -1.3118347e-01	
   2.4310000e+01	   6.1733639e-01	   2.4583658e-01	
   2.4365000e+01	   5.1907055e-01	   3.1093632e-01	
   2.4420000e+01	   3.3175263e-01	   3.1037721e-01	
   2.4475000e+01	   9.1583200e-01	   7.3497621e-01	
   2.4530000e+01	   1.1828768e+00	   4.4938623e-01	
   2.4585000e+01	   3.3728052e-01	   3.2754333e-01	
   2.4640000e+01	   1.7231345e-02	   1.6324572e-01	
   2.4695000e+01	   4.1161756e-01	   3.6988855e-01	
   2.4750000e+01	   6.2506167e-01	   2.0732987e-01	
   2.4805000e+01	   5.5347255e-01	   1.0777969e-01	
   2.4860000e+01	  -6.3897227e-02	   1.1541610e-01	
   2.4915000e+01	   5.6054860e-01	   8.8144698e-02	
   2.4970000e+01	   4.9164603e-01	  -6.9237496e-02	
   2.5025000e+01	   3.1483538e-01	  -2.2430982e-01	
   2.5080000e+01	   2.5152841e-01	  -3.9067806e-01	
   2.5135000e+01	   3.3790498e-01	  -2.2652463e-01	
   2.5190000e+01	   6.6748514e-01	   2.4545679e-01	
   2.5245000e+01	   4.1432308e-01	   1.5607517e-01	
   2.5300000e+01	   6.6424520e-01	   5.0282018e-01	
   2.5355000e+01	   1.0210275e+00	   3.7233363e-01	
   2.5410000e+01	   1.4073384e+00	   4.5396060e-01	
   2.5465000e+01	   8.7765365e-01	   3.9903019e-01	
   2.5520000e+01	   9.5752570e-01	   2.7632057e-01	
   2.5575000e+01	   7.5946821e-01	   1.6359270e-01	
   2.5630000e+01	   9.0927225e-01	   2.2089506e-01	
   2.5685000e+01	   1.8849805e-01	  -2.3441751e-02	
   2.5740000e+01	   3.5660408e-01	  -4.9635884e-02	
   2.5795000e+01	   5.9196698e-01	  -1.0604323e-01	
   2.5850000e+01	   5.5733266e-01	  -1.1331770e-01	
   2.5905000e+01	  -2.7088480e-03	  -7.6360734e-02	
   2.5960000e+01	   2.8065408e-01	  -3.3982089e-01	
   2.6015000e+01	   9.3447987e-01	   1.3419512e-01	
   2.6070000e+01	   6.3264121e-01	   3.4594168e-02	
   2.6125000e+01	   1.1510191e+00	   2.5511664e-01	
   2.6180000e+01	   8.3754492e-03	   2.6774018e-01	
   2.6235000e+01	   5.6552424e-01	   3.2638800e-01	
   2.6290000e+01	   5.6777656e-01	   3.2291812e-01	
   2.6345000e+01	   4.5012639e-01	   2.5143588e-01	
   2.6400000e+01	   3.1636577e-01	   1.0294088e-01	
   2.6455000e+01	   3.3045583e-01	   4.7361051e-02	
   2.6510000e+01	   8.9445154e-01	   1.2067503e-01	
   2.6565000e+01	   6.2124197e-01	   1.9585658e-02	
   2.6620000e+01	   1.9675069e-01	  -1.1052213e-01	
   2.6675000e+01	  -1.6085298e-02	  -6.0756625e-02	
   2.6730000e+01	   2.4877665e-01	  -2.6834707e-02	
   2.6785000e+01	   4.2367723e-01	  -2.6975171e-01	
   2.6840000e+01	   3.5037774e-01	   1.8487067e-02	
   2.6895000e+01	   5.2880872e-01	   9.8324797e-02	
   2.6950000e+01	   8.1292522e-01	   4.0517651e-01	
   2.7005000e+01	   6.3417621e-01	   2.9659565e-01	
   2.7060000e+01	   7.6678513e-01	   4.7246544e-02	
   2.7115000e+01	   8.1827802e-01	   3.8467061e-01	
   2.7170000e+01	   8.5654910e-01	   1.1017681e-01	
   2.7225000e+01	   4.6208833e-01	   1.6610118e-01	
   2.7280000e+01	   4.7278218e-01	   8.5650676e-02	
   2.7335000e+01	   3.8091879e-01	   8.4269353e-03	
   2.7390000e+01	   1.4182199e-01	   1.5892122e-01	
   2.7445000e+01	   3.3962600e-01	   4.2504104e-02	
   2.7500000e+01	   4.3137002e-01	  -1.8631323e-01	
   2.7555000e+01	   1.5480444e-01	  -1.5573409e-01	
   2.7610000e+01	  -7.4565853e-01	  -2.8148707e-01	
   2.7665000e+01	  -4.0328462e-02	  -3.0805482e-01	
   2.7720000e+01	  -8.1918087e-03	  -3.8125928e-02	
   2.7775000e+01	   4.1066028e-01	   2.4526818e-01	
   2.7830000e+01	   5.5507102e-01	   3.5549680e-01	
   2.7885000e+01	   9.4227434e-01	   2.3793956e-01	
   2.7940000e+01	   5.1164360e-01	   6.5538569e-02	
   2.7995000e+01	   4.6209538e-01	   2.4541629e-01	
   2.8050000e+01	   7.7066316e-01	   4.2291808e-01	
   2.8105000e+01	   8.0488035e-01	   1.8756367e-01	
   2.8160000e+01	   2.6491691e-01	   5.7579169e-02	
   2.8215000e+01	   7.3693486e-01	   2.6209470e-03	
   2.8270000e+01	   1.0162673e+00	  -1.8457902e-02	
   2.8325000e+01	   2.9522195e-01	   3.1541223e-02	
   2.8380000e+01	   2.1801900e-01	  -2.4491729e-01	
   2.8435000e+01	   4.1852590e-01	  -1.8782553e-01	
   2.8490000e+01	   2.4289446e-01	  -3.7567763e-01	
   2.8545000e+01	   4.0096480e-01	  -4.2308108e-01	
   2.8600000e+01	   4.1725934e-01	  -2.4868217e-01	
   2.8655000e+01	   6.7811535e-01	   1.4965348e-01	
   2.8710000e+01	   1.1491787e+00	   3.9990170e-01	
   2.8765000e+01	   7.6812275e-01	   8.7831745e-02	
   2.8820000e+01	   8.4115496e-01	   2.5379722e-01	
   2.8875000e+01	   9.6795060e-01	   3.5143038e-01	
   2.8930000e+01	   6.4364400e-01	   2.2097390e-01	
   2.8985000e+01	   9.7388454e-01	   1.3091010e-01	
   2.9040000e+01	   5.2288454e-01	   9.7032749e-02	
   2.9095000e+01	  -9.6018028e-03	  -2.9211870e-02	
   2.9150000e+01	   2.0353305e-02	  -1.1699294e-01	
   2.9205000e+01	   4.8908217e-01	  -1.1472077e-01	
   2.9260000e+01	   5.7275134e-01	  -7.7790153e-02	
   2.9315000e+01	  -2.3989482e-01	  -9.4778033e-02	
   2.9370000e+01	   2.8457730e-01	  -1.6550229e-02	
   2.9425000e+01	   1.1334695e-01	  -3.1473819e-01	
   2.9480000e+01	   7.1153789e-01	   1.3456385e-01	
   2.9535000e+01	   2.6447848e-01	   1.2499799e-03	
   2.9590000e+01	   4.7427720e-01	   2.8086268e-01	
   2.9645000e+01	   6.5567220e-01	   2.9459006e-01	
   2.9700000e+01	   6.1816740e-01	   1.7712603e-01	
   2.9755000e+01	   4.2784821e-01	   2.9161703e-01	
   2.9810000e+01	   5.2883087e-01	   2.0980073e-01	
   2.9865000e+01	   6.2309709e-01	  -1.0464717e-01	
   2.9920000e+01	   1.2265006e-01	  -6.2718817e-02	
   2.9975000e+01	   7.2508144e-01	   6.4856852e-02	
   3.0030000e+01	   1.1191788e-02	   1.4487500e-01	
   3.0085000e+01	   5.9935251e-01	  -2.8140997e-02	
   3.0140000e+01	   6.0205979e-01	   1.2514684e-02	
   3.0195000e+01	   2.4244043e-01	  -3.4116403e-01	
   3.0250000e+01	   6.8454506e-01	   4.0848338e-03	
   3.0305000e+01	   2.2117808e-01	   2.8179305e-01	
   3.0360000e+01	   3.3935094e-01	   1.7014625e-01	
   3.0415000e+01	   9.1717529e-01	   1.9630569e-01	
   3.0470000e+01	   1.0332604e+00	   3.6650492e-01	
   3.0525000e+01	   8.5389725e-01	   3.5203438e-01	
   3.0580000e+01	   4.8591411e-01	   8.0373929e-03	
   3.0635000e+01	   2.9726452e-01	   1.0587466e-01	
   3.0690000e+01	   3.6081988e-01	   1.7757383e-01	
   3.0745000e+01	   4.5891016e-01	   3.3086246e-02	
   3.0800000e+01	   2.5367416e-01	   8.2987423e-02	
   3.0855000e+01	  -3.4428354e-01	  -3.6404180e-02	
   3.0910000e+01	   4.0877988e-01	   9.5775111e-03	
   3.0965000e+01	   6.7941702e-01	  -2.7732727e-02	
   3.1020000e+01	   4.8116755e-01	  -2.9306287e-01	
   3.1075000e+01	   6.3539989e-01	   1.2131782e-01	
   3.1130000e+01	   7.3376237e-01	   3.3937982e-01	
   3.1185000e+01	   7.6171745e-01	   3.5841863e-01	
   3.1240000e+01	   4.7564801e-01	   2.5304108e-01	
   3.1295000e+01	   9.4553017e-01	   3.0356492e-01	
   3.1350000e+01	   8.4205830e-01	   2.6920492e-01	
   3.1405000e+01	   7.0062204e-01	   2.4652764e-01	
   3.1460000e+01	   6.6150462e-01	   1.8125725e-01	
   3.1515000e+01	   1.0075834e+00	   3.1035080e-01	
   3.1570000e+01	   1.1873942e+00	   3.0093746e-01	
   3.1625000e+01	   5.2973645e-01	   1.7348287e-01	
   3.1680000e+01	   5.6492814e-01	   8.0793854e-02	
   3.1735000e+01	   8.6621873e-01	  -2.1458409e-02	
   3.1790000e+01	   1.4284268e-02	  -1.7241788e-02	
   3.1845000e+01	   4.7993743e-01	  -8.7932715e-02	
   3.1900000e+01	   3.3796160e-01	   2.0905023e-01	
   3.1955000e+01	   5.0761501e-01	   2.0980779e-01	
   3.2010000e+01	   1.1884207e+00	   5.6676477e-01	
   3.2065000e+01	   5.5324360e-01	   3.6671355e-01	
   3.2120000e+01	   4.0279002e-01	   2.9836538e-01	
   3.2175000e+01	   7.4717457e-01	   3.3180456e-01	
   3.2230000e+01	   9.3747751e-01	   5.4310934e-01	
   3.2285000e+01	   7.4209581e-01	   3.6516745e-01	
   3.2340000e+01	   6.1518769e-01	   1.8657860e-01	
   3.2395000e+01	   1.0478126e+00	   2.4867029e-01	
   3.2450000e+01	   9.2564076e-01	   3.9741038e-01	
   3.2505000e+01	   6.0161266e-01	   9.0200520e-02	
   3.2560000e+01	   7.5942148e-01	  -7.0687415e-02	
   3.2615000e+01	   6.1989529e-01	  -7.1328097e-02	
   3.2670000e+01	   3.6856154e-01	   1.1566114e-01	
   3.2725000e+01	   5.3911305e-01	  -1.7627162e-01	
   3.2780000e+01	   4.3177448e-01	   2.0742398e-01	
   3.2835000e+01	   1.7251242e-01	   2.7601113e-01	
   3.2890000e+01	   5.7655614e-01	   5.7386387e-01	
   3.2945000e+01	   1.1095725e+00	   4.2910592e-01	
   3.3000000e+01	   5.4776866e-01	   4.2300179e-01	
   3.3055000e+01	   8.5945682e-01	   3.7279497e-01	
   3.3110000e+01	   1.0334837e+00	   4.3168538e-01	
   3.3165000e+01	   7.8245929e-01	   3.9297486e-01	
   3.3220000e+01	   6.6159897e-01	   1.4756090e-01	
   3.3275000e+01	   9.3784763e-01	   1.5292735e-01	
   3.3330000e+01	   4.8763670e-01	   3.4565394e-02	
   3.3385000e+01	   1.0224939e+00	   3.3577051e-01	
   3.3440000e+01	   6.0927062e-01	  -2.4984243e-02	
   3.3495000e+01	   4.9056954e-01	   1.7363210e-01	
   3.3550000e+01	   4.0151082e-01	  -1.4147383e-01	
   3.3605000e+01	   7.0059352e-01	   2.4211044e-01	
   3.3660000e+01	   7.2552448e-01	   2.9572961e-01	
   3.3715000e+01	   1.1498997e+00	   2.1075738e-01	
   3.3770000e+01	   1.3527471e+00	   4.0108855e-01	
   3.3825000e+01	   7.4877468e-01	   3.2109562e-01	
   3.3880000e+01	   1.1172494e+00	   4.4994057e-01	
   3.3935000e+01	   7.0438349e-01	   1.8154493e-01	
   3.3990000e+01	   3.9487648e-01	   4.4737819e-01	
   3.4045000e+01	   2.5265908e-01	   3.2969934e-01	
   3.4100000e+01	   1.1403694e+00	   2.3531659e-01	
   3.4155000e+01	   6.4482024e-01	   1.9318728e-02	
   3.4210000e+01	   8.3474420e-01	   2.3164250e-01	
   3.4265000e+01	   6.0145230e-01	   2.0384514e-01	
   3.4320000e+01	   4.2969422e-01	  -2.5424206e-01	
   3.4375000e+01	   5.5471192e-01	  -1.2178257e-01	
   3.4430000e+01	   5.2092693e-01	   4.5790311e-01	
   3.4485000e+01	   6.3838591e-01	   4.0346390e-01	
   3.4540000e+01	   4.6255109e-01	   5.6092116e-01	
   3.4595000e+01	   7.3677777e-01	   3.0096313e-01	
   3.4650000e+01	   6.6887394e-01	   4.6010589e-01	
   3.4705000e+01	   1.1449882e+00	   2.8343335e-01	
   3.4760000e+01	   9.0815711e-03	   2.0060146e-01	
   3.4815000e+01	   7.2932732e-01	   1.9691108e-01	
   3.4870000e+01	   8.8418736e-01	   1.9104396e-01	
   3.4925000e+01	   7.0636052e-01	  -8.7820095e-02	
   3.4980000e+01	   6.6552746e-01	   2.5021492e-02	
   3.5035000e+01	   2.0647284e-01	   8.2258283e-02	
   3.5090000e+01	   4.3972226e-01	  -4.4020858e-02	
   3.5145000e+01	   4.8529094e-01	   8.2707004e-02	
   3.5200000e+01	   4.1653352e-01	   2.5095743e-02	
   3.5255000e+01	   1.0158009e+00	   4.1855275e-01	
   3.5310000e+01	   1.2156395e+00	   5.2741784e-01	
   3.5365000e+01	   1.4002880e+00	   6.2166148e-01	
   3.5420000e+01	   1.0066045e+00	   4.8437365e-01	
   3.5475000e+01	   9.7705339e-01	   3.5574345e-01	
   3.5530000e+01	   1.2362585e+00	   4.7418828e-01	
   3.5585000e+01	   1.3252424e+00	   4.4125007e-01	
   3.5640000e+01	   5.5828539e-01	   3.0441890e-01	
   3.5695000e+01	   5.6077385e-01	   2.3834084e-01	
   3.5750000e+01	   7.6925322e-01	   2.6455172e-01	
   3.5805000e+01	   8.7748579e-01	   3.7211655e-01	
   3.5860000e+01	   5.4269051e-01	   6.1338042e-02	
   3.5915000e+01	   3.7959673e-01	   8.4623789e-02	
   3.5970000e+01	   8.7146974e-01	   4.8132934e-01	
   3.6025000e+01	   1.4567446e+00	   7.0399539e-01	
   3.6080000e+01	   9.7180440e-01	   3.7885421e-01	
   3.6135000e+01	   1.6559910e+00	   7.5840049e-01	
   3.6190000e+01	   1.0926536e+00	   7.4098436e-01	
   3.6245000e+01	   1.3964524e+00	   5.7201375e-01	
   3.6300000e+01	   9.0925961e-01	   5.1506695e-01	
   3.6355000e+01	   8.7254837e-01	   4.3001423e-01	
   3.6410000e+01	   8.7818259e-01	   5.5336198e-01	
   3.6465000e+01	   1.0427735e+00	   6.2356639e-01	
   3.6520000e+01	   8.2158759e-01	   5.0561142e-01	
   3.6575000e+01	   9.0252962e-01	   3.7833032e-01	
   3.6630000e+01	   6.9984937e-01	   3.8688695e-01	
   3.6685000e+01	   9.4367411e-01	   1.9269345e-01	
   3.6740000e+01	   5.3931946e-01	   2.1428364e-01	
   3.6795000e+01	   6.5352204e-01	   2.3949776e-01	
   3.6850000e+01	   1.0842664e+00	   6.4402974e-01	
   3.6905000e+01	   1.5287532e+00	   8.4359902e-01	
   3.6960000e+01	   1.0232102e+00	   5.7984422e-01	
   3.7015000e+01	   1.2955448e+00	   6.2381646e-01	
   3.7070000e+01	   1.9772202e+00	   8.3691744e-01	
   3.7125000e+01	   1.4481453e+00	   9.3372768e-01	
   3.7180000e+01	   1.0266258e+00	   5.3508371e-01	
   3.7235000e+01	   9.0260927e-01	   5.4392067e-01	
   3.7290000e+01	   9.2588322e-01	   5.9641154e-01	
   3.7345000e+01	   1.1832620e+00	   6.3055824e-01	
   3.7400000e+01	   1.1424229e+00	   7.8016478e-02	
   3.7455000e+01	   1.1740755e+00	   1.5328902e-01	
   3.7510000e+01	   9.2900670e-01	   4.7865685e-01	
   3.7565000e+01	   1.0497482e+00	   5.2466279e-01	
   3.7620000e+01	   8.0177664e-01	   7.0438817e-01	
   3.7675000e+01	   1.1951999e+00	   5.3379668e-01	
   3.7730000e+01	   1.2242640e+00	   8.7061448e-01	
   3.7785000e+01	   1.1764723e+00	   7.0963736e-01	
   3.7840000e+01	   1.3743251e+00	   6.8912899e-01	
   3.7895000e+01	   1.1110210e+00	   5.7019792e-01	
   3.7950000e+01	   1.2398676e+00	   6.8291909e-01	
   3.8005000e+01	   1.0150563e+00	   6.5987940e-01	
   3.8060000e+01	   9.9043586e-01	   3.1963596e-01	
   3.8115000e+01	   8.1730720e-01	   2.6417035e-01	
   3.8170000e+01	   9.0558824e-01	   4.6917487e-01	
   3.8225000e+01	   8.2556329e-01	   5.2669300e-01	
   3.8280000e+01	   4.9172316e-01	   7.2024030e-02	
   3.8335000e+01	   3.5898376e-01	   1.9708463e-01	
   3.8390000e+01	   9.7269792e-01	   6.8982120e-01	
   3.8445000e+01	   9.9944949e-01	   5.5354741e-01	
   3.8500000e+01	   1.1921177e+00	   6.6191133e-01	
   3.8555000e+01	   6.7541609e-01	   7.3574905e-01	
   3.8610000e+01	   1.2493441e+00	   8.4522793e-01	
   3.8665000e+01	   1.2980821e+00	   7.4044615e-01	
   3.8720000e+01	   6.6926426e-01	   5.2224406e-01	
   3.8775000e+01	   7.4181813e-01	   5.4159329e-01	
   3.8830000e+01	   1.0938929e+00	   6.7644269e-01	
   3.8885000e+01	   8.3921404e-01	   7.4242961e-01	
   3.8940000e+01	   4.2244319e-01	   2.8028469e-01	
   3.8995000e+01	   3.0449013e-01	   4.4256489e-01	
   3.9050000e+01	   5.2953837e-01	   2.7312450e-01	
   3.9105000e+01	   7.9249262e-01	   3.1393095e-01	
   3.9160000e+01	   2.1277382e-01	   1.0691083e-01	
   3.9215000e+01	   6.1614278e-01	   7.9465331e-02	
   3.9270000e+01	   5.4189918e-01	   3.6042493e-01	
   3.9325000e+01	   9.5781552e-01	   7.1946983e-01	
   3.9380000e+01	   1.1373552e+00	   6.3966159e-01	
   3.9435000e+01	   8.0176433e-01	   6.4959406e-01	
   3.9490000e+01	   1.0410279e+00	   8.2883831e-01	
   3.9545000e+01	   7.6500594e-01	   6.3448252e-01	
   3.9600000e+01	   9.0067344e-01	   6.8291453e-01	
   3.9655000e+01	   4.3771017e-01	   4.2202706e-01	
   3.9710000e+01	   1.0203395e+00	   5.2454597e-01	
   3.9765000e+01	   7.8244758e-01	   5.1947096e-01	
   3.9820000e+01	   5.5443582e-01	   1.6298738e-01	
   3.9875000e+01	   3.7245398e-01	   4.0567042e-01	
   3.9930000e+01	   2.0529238e-01	   3.5759101e-01	
   3.9985000e+01	   2.0644086e-01	   9.7464085e-02	
   4.0040000e+01	   5.4800165e-01	   7.2975881e-02	
   4.0095000e+01	  -6.5024107e-02	  -5.3509527e-02	
   4.0150000e+01	   6.6134446e-01	   1.9082615e-01	
   4.0205000e+01	   7.2353045e-01	   3.6500434e-01	
   4.0260000e+01	   9.4260796e-01	   6.8676414e-01	
   4.0315000e+01	   3.5212428e-01	   3.5377483e-01	
   4.0370000e+01	   1.1840276e+00	   5.3591791e-01	
   4.0425000e+01	   1.0740122e+00	   5.2940597e-01	
   4.0480000e+01	   1.3238640e+00	   4.8294627e-01	
   4.0535000e+01	   6.2797404e-01	   4.7955142e-01	
   4.0590000e+01	   1.0583655e+00	   3.7363932e-01	
   4.0645000e+01	   8.5579204e-01	   4.7649871e-01	
   4.0700000e+01	   6.6271661e-01	   3.6282799e-01	
   4.0755000e+01	   6.8118353e-01	   4.6091854e-02	
   4.0810000e+01	   4.6697743e-01	   1.9809123e-01	
   4.0865000e+01	   4.0067022e-01	   9.8202174e-02	
   4.0920000e+01	   1.4495563e-02	  -9.5583610e-02	
   4.0975000e+01	   6.4162687e-01	   1.0454580e-01	
   4.1030000e+01	   1.1253404e+00	   5.4756689e-01	
   4.1085000e+01	   6.7874680e-01	   4.9710664e-01	
   4.1140000e+01	   2.0328316e-01	   2.9348208e-01	
   4.1195000e+01	   3.0405502e-01	   3.9055263e-01	
   4.1250000e+01	   4.1019800e-01	   4.1096964e-01	
   4.1305000e+01	   5.3688083e-01	   6.4013628e-01	
   4.1360000e+01	   5.3290579e-01	   2.5280609e-01	
   4.1415000e+01	   5.1748714e-01	   1.5700307e-01	
   4.1470000e+01	   7.1897802e-01	   2.9852083e-01	
   4.1525000e+01	   4.0471955e-01	   5.0542325e-03	
   4.1580000e+01	   5.2424194e-02	   2.9905337e-02	
   4.1635000e+01	   8.6402650e-02	  -1.0562962e-01	
   4.1690000e+01	   2.2314006e-01	  -6.3442600e-02	
   4.1745000e+01	   8.3948663e-01	   4.3546593e-01	
   4.1800000e+01	   2.1026008e-01	   3.1159616e-01	
   4.1855000e+01	   4.7085797e-01	   3.4523515e-01	
   4.1910000e+01	   5.2543016e-01	   6.1017953e-01	
   4.1965000e+01	   4.8587424e-01	   5.6222284e-01	
   4.2020000e+01	   7.4393238e-01	   4.7213205e-01	
   4.2075000e+01	   2.7636614e-01	   3.0930802e-01	
   4.2130000e+01	   4.8834936e-01	   4.8326495e-01	
   4.2185000e+01	   3.7143210e-02	   2.2169283e-01	
   4.2240000e+01	   6.4348330e-02	   8.8785262e-02	
   4.2295000e+01	  -1.1459108e-01	   9.8247795e-02	
   4.2350000e+01	   5.1614133e-01	  -1.2383319e-02	
   4.2405000e+01	   1.3452788e-01	   6.1781545e-02	
   4.2460000e+01	  -2.7494691e-01	  -8.4309775e-02	
   4.2515000e+01	   2.4142098e-02	  -1.1939929e-01	
   4.2570000e+01	   4.7250685e-01	   4.6987873e-01	
   4.2625000e+01	   7.3732211e-01	   5.2772676e-01	
   4.2680000e+01	   1.0951693e+00	   5.1614441e-01	
   4.2735000e+01	   5.3339498e-01	   5.2483017e-01	
   4.2790000e+01	   5.5863884e-01	   5.8935963e-01	
   4.2845000e+01	   9.8627401e-01	   5.5147232e-01	
   4.2900000e+01	   7.9465233e-01	   5.5566754e-01	
   4.2955000e+01	   2.8588430e-01	   4.6171278e-01	
   4.3010000e+01	   5.1351743e-01	   4.2216344e-01	
   4.3065000e+01	   5.7974179e-01	   3.7574650e-01	
   4.3120000e+01	   8.9929580e-01	   7.1136425e-02	
   4.3175000e+01	   8.9881652e-01	   8.0039503e-02	
   4.3230000e+01	   7.8182510e-02	   2.4327283e-02	
   4.3285000e+01	   7.4867873e-01	   1.4632973e-01	
   4.3340000e+01	   8.0442163e-01	   2.5965829e-01	
   4.3395000e+01	   3.0646632e-01	   2.6410011e-01	
   4.3450000e+01	   9.4312413e-01	   7.2980070e-01	
   4.3505000e+01	   1.1662069e+00	   5.0804189e-01	
   4.3560000e+01	   6.0922327e-01	   5.2435818e-01	
   4.3615000e+01	   3.0092040e-01	   4.5583546e-01	
   4.3670000e+01	   5.1188476e-01	   6.6157791e-01	
   4.3725000e+01	   4.7252484e-01	   4.7236249e-01	
   4.3780000e+01	   5.9481553e-01	   3.8272758e-01	
   4.3835000e+01	   2.3525248e-01	   2.9310877e-01	
   4.3890000e+01	   6.4777478e-01	   2.8987774e-01	
   4.3945000e+01	   1.8501080e-01	   2.4240361e-01	
   4.4000000e+01	   4.7025155e-02	   8.2723118e-02	
   4.4055000e+01	   2.9624179e-01	   7.3393848e-03	
   4.4110000e+01	   6.1264607e-02	   5.3576524e-01	
   4.4165000e+01	   2.3194997e-01	   5.4841916e-01	
   4.4220000e+01	   3.5562463e-01	   3.6553419e-01	
   4.4275000e+01	   5.5511051e-01	   5.7874167e-01	
   4.4330000e+01	   4.7148458e-01	   5.6926676e-01	
   4.4385000e+01	   8.0763269e-01	   6.4282118e-01	
   4.4440000e+01	   8.3929124e-02	   3.8743888e-01	
   4.4495000e+01	  -1.7061194e-01	   3.6602966e-01	
   4.4550000e+01	   4.7911147e-01	   4.2345465e-01	
   4.4605000e+01	   7.4075519e-01	   4.8210339e-01	
   4.4660000e+01	  -6.8164128e-02	   3.3310038e-01	
   4.4715000e+01	   3.5404583e-01	  -1.2856517e-01	
   4.4770000e+01	   5.4278950e-01	   2.8595241e-01	
   4.4825000e+01	   1.9980299e-01	   5.2778540e-01	
   4.4880000e+01	  -7.0710398e-02	   3.0917690e-01	
   4.4935000e+01	   2.6238192e-01	   3.7377600e-01	
   4.4990000e+01	   5.3340961e-01	   6.3089852e-01	
   4.5045000e+01	   3.5653345e-01	   5.1867246e-01	
   4.5100000e+01	   3.6881738e-01	   4.1393867e-01	
   4.5155000e+01	   4.0795436e-01	   5.2176879e-01	
   4.5210000e+01	   9.5179442e-02	   4.8312988e-01	
   4.5265000e+01	   5.0531880e-01	   3.9151309e-01	
   4.5320000e+01	  -1.5027600e-02	   2.4154911e-01	
   4.5375000e+01	  -1.3257673e-01	  -1.1984540e-02	
   4.5430000e+01	  -2.6982906e-01	   4.2652254e-02	
   4.5485000e+01	  -7.5104970e-02	   2.3643775e-01	
   4.5540000e+01	   2.4522541e-01	   3.8338467e-01	
   4.5595000e+01	  -2.3328417e-01	   3.8159466e-01	
   4.5650000e+01	   7.1199413e-02	   5.9279778e-01	
   4.5705000e+01	   5.2577455e-01	   7.5518459e-01	
   4.5760000e+01	   9.6827391e-02	   4.6689152e-01	
   4.5815000e+01	   4.4108119e-02	   5.2524784e-01	
   4.5870000e+01	   3.9153892e-01	   5.2147474e-01	
   4.5925000e+01	   3.9069553e-02	   5.3675782e-01	
   4.5980000e+01	  -5.5995736e-02	   3.0697328e-01	
   4.6035000e+01	  -4.2306032e-02	   3.6175183e-01	
   4.6090000e+01	  -1.4472556e-01	   4.3184139e-01	
   4.6145000e+01	   7.1692089e-02	   3.6099892e-01	
   4.6200000e+01	  -2.2187730e-01	   1.9652908e-01	
   4.6255000e+01	  -4.4134878e-01	   1.1358515e-01	
   4.6310000e+01	   3.6194643e-01	   3.4474433e-01	
   4.6365000e+01	   1.2562128e-01	   4.7002134e-01	
   4.6420000e+01	   7.3906507e-01	   6.5383176e-01	
   4.6475000e+01	   3.0109389e-01	   6.7579169e-01	
   4.6530000e+01	   2.2473716e-01	   6.4265373e-01	
   4.6585000e+01	   5.7063357e-01	   8.5370711e-01	
   4.6640000e+01	   5.2675955e-01	   6.7768129e-01	
   4.6695000e+01	  -2.5651268e-01	   2.0064019e-01	
   4.6750000e+01	  -2.4845589e-01	   5.1061253e-01	
   4.6805000e+01	   1.6055874e-02	   6.0913990e-01	
   4.6860000e+01	   1.3769296e-02	   2.5649010e-01	
   4.6915000e+01	  -2.9858833e-01	   2.7316166e-01	
   4.6970000e+01	   1.7207585e-02	   2.1869226e-01	
   4.7025000e+01	   2.9183617e-02	   2.8085380e-01	
   4.7080000e+01	  -3.6089066e-01	   2.7739829e-01	
   4.7135000e+01	  -2.7168925e-02	   5.5269618e-01	
   4.7190000e+01	   3.8096006e-01	   5.9657088e-01	
   4.7245000e+01	   4.1089306e-01	   8.0317501e-01	
   4.7300000e+01	   7.1842216e-01	   7.5554175e-01	
   4.7355000e+01	   4.6295101e-01	   4.9250553e-01	
   4.7410000e+01	   8.6291272e-01	   7.1830850e-01	
   4.7465000e+01	   7.2821979e-01	   7.7626815e-01	
   4.7520000e+01	   7.6111887e-01	   5.4468068e-01	
   4.7575000e+01	   6.8267383e-01	   4.0694912e-01	
   4.7630000e+01	   5.2625244e-01	   5.6493034e-01	
   4.7685000e+01	   6.6295456e-01	   4.5802885e-01	
   4.7740000e+01	   6.2858582e-01	   3.7923305e-01	
   4.7795000e+01	  -1.6355161e-01	   4.1199875e-02	
   4.7850000e+01	  -1.5208948e-01	   5.1004391e-01	
   4.7905000e+01	   5.3576551e-01	   4.4544633e-01	
   4.7960000e+01	   6.7280752e-01	   6.5314603e-01	
   4.8015000e+01	   5.1016863e-02	   5.4691903e-01	
   4.8070000e+01	   7.1647900e-01	   7.1063376e-01	
   4.8125000e+01	   6.0117079e-01	   8.0480788e-01	
   4.8180000e+01	   3.1031788e-01	   4.1930825e-01	
   4.8235000e+01	   4.8488085e-01	   5.4358807e-01	
   4.8290000e+01	   5.4421487e-01	   4.0876728e-01	
   4.8345000e+01	   2.1446820e-01	   4.4169189e-01	
   4.8400000e+01	   2.5073884e-01	   3.7584397e-01	
   4.8455000e+01	  -6.8140125e-02	   1.5194761e-01	
   4.8510000e+01	   4.9351814e-01	   2.8311436e-01	
   4.8565000e+01	   1.3743742e-01	   4.0062077e-01	
   4.8620000e+01	   2.8340723e-01	   5.8199623e-01	
   4.8675000e+01	   5.5581898e-01	   6.7392937e-01	
   4.8730000e+01	   2.0582913e-01	   6.8533101e-01	
   4.8785000e+01	   2.4527952e-01	   6.9247250e-01	
   4.8840000e+01	   3.8554124e-01	   6.5039695e-01	
   4.8895000e+01	   2.8371214e-01	   7.2946176e-01	
   4.8950000e+01	   4.8091457e-01	   6.4591076e-01	
   4.9005000e+01	   6.3455733e-01	   7.2800120e-01	
   4.9060000e+01	   6.8039560e-02	   4.0768993e-01	
   4.9115000e+01	   3.5396136e-01	   4.0212386e-01	
   4.9170000e+01	   3.6210292e-01	   3.4564978e-01	
   4.9225000e+01	   2.1970085e-01	   2.4278200e-01	
   4.9280000e+01	   3.4288022e-01	   2.8390677e-01	
   4.9335000e+01	  -3.2537251e-01	   1.1448958e-01	
   4.9390000e+01	  -2.1646404e-02	   4.5189212e-01	
   4.9445000e+01	   5.3323758e-01	   4.3169214e-01	
   4.9500000e+01	   3.7073767e-01	   8.2056417e-01	
   4.9555000e+01	   5.7261985e-01	   7.0438184e-01	
   4.9610000e+01	   4.1700012e-01	   6.5311340e-01	
   4.9665000e+01	   5.3010771e-01	   7.2324262e-01	
   4.9720000e+01	   8.6068580e-01	   6.8135125e-01	
   4.9775000e+01	  -5.0542303e-02	   3.6103993e-01	
   4.9830000e+01	   2.6473677e-01	   7.2699119e-01	
   4.9885000e+01	   3.1387861e-02	   6.3261654e-01	
   4.9940000e+01	   1.2122371e-01	   4.7957912e-01	
   4.9995000e+01	   7.0917059e-02	   1.8176165e-01	
   5.0050000e+01	  -3.3847605e-02	   4.6953439e-01	
   5.0105000e+01	   3.1338534e-01	   1.1854794e-01	
   5.0160000e+01	  -8.8265911e-02	   9.8422573e-02	
   5.0215000e+01	   3.0824485e-02	   3.1650036e-01	
   5.0270000e+01	   3.0335744e-01	   6.3359935e-01	
   5.0325000e+01	   5.1469679e-01	   7.5977842e-01	
   5.0380000e+01	   4.1128710e-01	   6.0394752e-01	
   5.0435000e+01	   1.5210811e-01	   5.5204444e-01	
   5.0490000e+01	   4.6717149e-01	   7.1345323e-01	
   5.0545000e+01	   7.8650708e-01	   8.0003724e-01	
   5.0600000e+01	   2.6994325e-01	   6.0817014e-01	
   5.0655000e+01	   1.0803400e-01	   3.9642037e-01	
   5.0710000e+01	   3.8834395e-01	   6.0090727e-01	
   5.0765000e+01	   4.4835995e-01	   4.7847540e-01	
   5.0820000e+01	   2.4476990e-01	   3.4204193e-01	
   5.0875000e+01	  -7.9815980e-02	   3.5698570e-02	
   5.0930000e+01	  -1.2904363e-01	   1.5875780e-01	
   5.0985000e+01	   1.6655136e-02	   8.8088840e-02	
   5.1040000e+01	  -3.6505556e-02	   3.4747316e-01	
   5.1095000e+01	  -1.5213000e-01	   4.6621648e-01	
   5.1150000e+01	   4.9417500e-01	   6.7563740e-01	
   5.1205000e+01	   5.6017432e-01	   6.5056700e-01	
   5.1260000e+01	   8.8632002e-02	   5.8298028e-01	
   5.1315000e+01	   3.7164385e-01	   4.9270396e-01	
   5.1370000e+01	   6.2286546e-01	   5.2497103e-01	
   5.1425000e+01	   2.3921435e-01	   5.7477443e-01	
   5.1480000e+01	   5.8538687e-02	   1.6610118e-01	
   5.1535000e+01	   1.2207856e-01	   3.7097341e-01	
   5.1590000e+01	  -5.1331105e-01	   1.7810633e-01	
   5.1645000e+01	  -1.9674125e-02	   1.4426784e-01	
   5.1700000e+01	   2.1057673e-02	   1.5928063e-01	
   5.1755000e+01	  -6.0230680e-01	  -5.9364346e-02	
   5.1810000e+01	  -2.5518589e-01	   4.7593181e-01	
   5.1865000e+01	   3.8102312e-01	   4.5205104e-01	
   5.1920000e+01	  -4.5168376e-01	   4.5939145e-01	
   5.1975000e+01	  -1.3888474e-01	   4.9298013e-01	
   5.2030000e+01	   1.8925343e-01	   4.6279867e-01	
   5.2085000e+01	   3.1179215e-01	   5.6689158e-01	
   5.2140000e+01	   2.3000177e-01	   3.3831611e-01	
   5.2195000e+01	  -3.7344651e-01	   4.0321967e-01	
   5.2250000e+01	   4.1681940e-01	   2.0594866e-01	
   5.2305000e+01	   1.4776107e-01	   2.6874658e-01	
   5.2360000e+01	  -3.2448272e-01	   3.3249470e-01	
   5.2415000e+01	  -2.6382280e-01	   1.4364794e-01	
   5.2470000e+01	  -6.4189647e-02	   3.9037906e-02	
   5.2525000e+01	  -5.4470165e-01	   1.6372799e-01	
   5.2580000e+01	  -1.1205258e-01	   3.2974882e-01	
   5.2635000e+01	   1.9471192e-01	   5.2160611e-01	
   5.2690000e+01	   3.1466648e-01	   5.0154480e-01	
   5.2745000e+01	   4.6353142e-01	   6.6963357e-01	
   5.2800000e+01	   2.2513953e-02	   6.9639755e-01	
   5.2855000e+01	  -4.1361402e-02	   6.1219374e-01	
   5.2910000e+01	   6.7001510e-02	   5.3010752e-01	
   5.2965000e+01	   2.0439534e-01	   4.6679381e-01	
   5.3020000e+01	   2.5595057e-01	   3.9481440e-01	
   5.3075000e+01	  -4.0631462e-01	   1.5772065e-01	
   5.3130000e+01	  -3.6634575e-01	   2.0740125e-01	
   5.3185000e+01	  -1.7095926e-01	   2.3373746e-01	
   5.3240000e+01	  -3.9830824e-01	   2.2803590e-01	
   5.3295000e+01	  -4.4595827e-01	   2.4099182e-02	
   5.3350000e+01	  -6.2426987e-01	  -8.3624013e-03	
   5.3405000e+01	   3.1339207e-01	   5.8824182e-01	
   5.3460000e+01	   6.4341798e-02	   6.1052101e-01	
   5.3515000e+01	  -1.6584915e-02	   5.3625893e-01	
   5.3570000e+01	   3.9773398e-01	   6.5698290e-01	
   5.3625000e+01	   4.1884939e-01	   7.1568881e-01	
   5.3680000e+01	   1.6474664e-01	   6.6339192e-01	
   5.3735000e+01	  -2.7775742e-01	   4.3194154e-01	
   5.3790000e+01	  -4.3827707e-01	   5.4830941e-01	
   5.3845000e+01	  -3.9031793e-01	   4.3084305e-01	
   5.3900000e+01	  -4.5462336e-01	   2.1640518e-01	
   5.3955000e+01	  -5.3623687e-01	   3.1543831e-01	
   5.4010000e+01	  -3.2620179e-01	   3.7987293e-01	
   5.4065000e+01	  -3.2262687e-01	   1.3432426e-01	
   5.4120000e+01	  -1.4610133e-01	   4.8611586e-02	
   5.4175000e+01	  -4.6878145e-01	   6.4099902e-02	
   5.4230000e+01	  -9.2188613e-02	   5.4522360e-01	
   5.4285000e+01	  -2.3507233e-03	   4.7175884e-01	
   5.4340000e+01	  -1.4090831e-01	   6.1395837e-01	
   5.4395000e+01	  -9.0505192e-02	   4.3309798e-01	
   5.4450000e+01	  -2.0430393e-01	   4.8560175e-01	
   5.4505000e+01	  -7.8129449e-02	   6.4451125e-01	
   5.4560000e+01	  -2.3390024e-01	   6.0352868e-01	
   5.4615000e+01	   1.6654379e-01	   4.6084671e-01	
   5.4670000e+01	   8.6909126e-02	   4.1615879e-01	
   5.4725000e+01	   1.5054974e-01	   3.7632203e-01	
   5.4780000e+01	  -3.6187836e-01	   8.8885099e-02	
   5.4835000e+01	  -2.6139440e-01	   2.8645380e-01	
   5.4890000e+01	  -6.6557764e-01	   8.5231429e-02	
   5.4945000e+01	  -2.1782588e-01	   1.8613958e-01	
   5.5000000e+01	  -1.1338788e-01	   2.2063761e-01	
   5.5055000e+01	   1.6281090e-01	   5.7540281e-01	
   5.5110000e+01	   7.3098726e-03	   6.2499197e-01	
   5.5165000e+01	  -4.0013524e-02	   7.6047349e-01	
   5.5220000e+01	   2.2979759e-01	   6.1232761e-01	
   5.5275000e+01	  -1.6395541e-01	   5.1022322e-01	
   5.5330000e+01	  -1.8420645e-01	   3.4335204e-01	
   5.5385000e+01	   3.3345263e-01	   5.4121023e-01	
   5.5440000e+01	  -2.2793988e-01	   4.5639813e-01	
   5.5495000e+01	  -6.6385234e-02	   4.1865559e-01	
   5.5550000e+01	  -2.4733409e-01	   2.9816252e-01	
   5.5605000e+01	  -4.7429144e-01	   2.3108737e-01	
   5.5660000e+01	  -4.9370391e-01	   1.2353814e-01	
   5.5715000e+01	  -5.8416351e-01	   2.3022383e-02	
   5.5770000e+01	  -4.1756785e-01	   9.8018163e-03	
   5.5825000e+01	  -6.1378610e-01	   1.7592581e-01	
   5.5880000e+01	  -3.3766779e-02	   4.7206918e-01	
   5.5935000e+01	  -3.7516431e-01	   4.0581898e-01	
   5.5990000e+01	   1.3755666e-01	   4.5147221e-01	
   5.6045000e+01	  -1.6569336e-01	   4.9874318e-01	
   5.6100000e+01	  -6.0260967e-01	   2.3333185e-01	
   5.6155000e+01	  -2.7907333e-01	   1.9478223e-01	
   5.6210000e+01	  -1.5443496e-01	   3.6623187e-01	
   5.6265000e+01	  -1.4843514e-01	   4.9708208e-01	
   5.6320000e+01	  -8.8920346e-02	   1.3638490e-01	
   5.6375000e+01	  -6.3386143e-01	   1.1674091e-01	
   5.6430000e+01	  -4.4873771e-02	   3.0079325e-01	
   5.6485000e+01	  -1.2210019e-02	  -5.2427472e-02	
   5.6540000e+01	  -2.5980901e-01	   1.1261662e-01	
   5.6595000e+01	  -5.4233098e-01	   2.5014637e-01	
   5.6650000e+01	   2.1839704e-02	   3.2513029e-01	
   5.6705000e+01	  -2.4599757e-01	   7.8121996e-01	
   5.6760000e+01	  -3.5757002e-01	   4.1469655e-01	
   5.6815000e+01	  -5.5446966e-01	   1.4225990e-01	
   5.6870000e+01	  -4.3013510e-01	   4.8707912e-01	
   5.6925000e+01	  -3.2766674e-02	   3.5559894e-01	
   5.6980000e+01	  -3.9300111e-01	   3.1696015e-01	
   5.7035000e+01	  -2.1043903e-01	   5.1647612e-02	
   5.7090000e+01	  -4.5836588e-01	   1.5390629e-01	
   5.7145000e+01	  -2.5919062e-01	   2.5802436e-01	
   5.7200000e+01	  -3.8011826e-01	  -6.6955107e-02	
   5.7255000e+01	  -2.6613770e-01	   1.1809036e-01	
   5.7310000e+01	   2.6710283e-01	   7.3250715e-01	
   5.7365000e+01	   4.9009777e-01	   7.1509777e-01	
   5.7420000e+01	   1.0199276e-01	   6.6221679e-01	
   5.7475000e+01	  -1.5100836e-01	   5.2797441e-01	
   5.7530000e+01	   3.1840507e-01	   4.7782265e-01	
   5.7585000e+01	   5.9626265e-01	   5.7371025e-01	
   5.7640000e+01	   2.4978205e-01	   4.5462854e-01	
   5.7695000e+01	  -3.4464849e-01	   5.2778540e-01	
   5.7750000e+01	   4.9914215e-02	   2.6874658e-01	
   5.7805000e+01	   2.4243292e-01	   5.3094920e-01	
   5.7860000e+01	  -1.6407613e-01	   2.8504272e-01	
   5.7915000e+01	  -8.3283494e-03	   2.3829491e-01	
   5.7970000e+01	   3.2721111e-01	   3.0510521e-01	
   5.8025000e+01	   3.5823983e-01	   5.9831053e-01	
   5.8080000e+01	   2.7543096e-01	   7.4482023e-01	
   5.8135000e+01	   3.9167512e-01	   7.6523638e-01	
   5.8190000e+01	   5.2263959e-01	   8.9022522e-01	
   5.8245000e+01	   1.0650178e+00	   1.0382617e+00	
   5.8300000e+01	   8.0261875e-01	   9.2914525e-01	
   5.8355000e+01	   3.6422161e-01	   8.2121169e-01	
   5.8410000e+01	   4.8400361e-01	   8.9754886e-01	
   5.8465000e+01	   8.9715166e-01	   9.3299700e-01	
   5.8520000e+01	   3.5615169e-01	   7.0829128e-01	
   5.8575000e+01	   4.9390505e-01	   6.3673285e-01	
   5.8630000e+01	   8.6068223e-02	   6.1336023e-01	
   5.8685000e+01	   4.4208575e-01	   6.7413375e-01	
   5.8740000e+01	   1.8037830e-01	   5.8990168e-01	
   5.8795000e+01	   5.5824958e-01	   8.1864384e-01	
   5.8850000e+01	   8.1226560e-01	   7.8094599e-01	
   5.8905000e+01	   1.1700821e+00	   1.2166210e+00	
   5.8960000e+01	   9.8058982e-01	   1.0634152e+00	
   5.9015000e+01	   4.8068418e-01	   1.1392368e+00	
   5.9070000e+01	   8.0883169e-01	   8.8429025e-01	
   5.9125000e+01	   9.1501511e-01	   1.1655432e+00	
   5.9180000e+01	   9.8515256e-01	   1.0960054e+00	
   5.9235000e+01	   9.6476717e-01	   8.2250321e-01	
   5.9290000e+01	   6.9529323e-01	   9.9069208e-01	
   5.9345000e+01	   7.8837989e-01	   9.6022666e-01	
   5.9400000e+01	   3.3131328e-01	   8.6215540e-01	
   5.9455000e+01	   7.5894941e-01	   8.0758185e-01	
   5.9510000e+01	   4.5653659e-01	   6.3833184e-01	
   5.9565000e+01	   2.2459026e-01	   8.0124305e-01	
   5.9620000e+01	   7.5255520e-01	   7.1969998e-01	
   5.9675000e+01	   1.1259839e+00	   1.0192803e+00	
   5.9730000e+01	   8.0553827e-01	   1.2379064e+00	
   5.9785000e+01	   1.4683177e+00	   1.4902859e+00	
   5.9840000e+01	   1.3997169e+00	   1.2404958e+00	
   5.9895000e+01	   6.6476776e-01	   9.6752183e-01	
   5.9950000e+01	   7.7124455e-01	   1.1708887e+00	
   6.0005000e+01	   1.2544470e+00	   1.1854480e+00	
   6.0060000e+01	   1.0594433e+00	   1.2059468e+00	
   6.0115000e+01	   1.0159120e+00	   1.1292575e+00	
   6.0170000e+01	   9.7767113e-01	   1.1695529e+00	
   6.0225000e+01	   1.4354007e+00	   1.2692491e+00	
   6.0280000e+01	   8.4482616e-01	   8.8162627e-01	
   6.0335000e+01	   4.5310042e-01	   9.6459800e-01	
   6.0390000e+01	   2.1984588e-01	   8.0609399e-01	
   6.0445000e+01	   7.5571708e-01	   8.4983657e-01	
   6.0500000e+01	   1.1610831e+00	   1.1221669e+00	
   6.0555000e+01	   1.3846136e+00	   1.2650065e+00	
   6.0610000e+01	   1.3048981e+00	   1.1723699e+00	
   6.0665000e+01	   1.4656815e+00	   1.1565865e+00	
   6.0720000e+01	   1.2810196e+00	   1.2513476e+00	
   6.0775000e+01	   8.9128342e-01	   1.0142476e+00	
   6.0830000e+01	   8.8656395e-01	   1.2360343e+00	
   6.0885000e+01	   1.5622486e+00	   1.2407998e+00	
   6.0940000e+01	   9.4385457e-01	   1.1156296e+00	
   6.0995000e+01	   1.0605390e+00	   8.9688262e-01	
   6.1050000e+01	   9.2087813e-01	   1.0688426e+00	
   6.1105000e+01	   7.3366159e-01	   8.4129490e-01	
   6.1160000e+01	   9.2095755e-01	   6.7549154e-01	
   6.1215000e+01	   1.7306842e-01	   5.4448027e-01	
   6.1270000e+01	   1.1075807e+00	   7.7161331e-01	
   6.1325000e+01	   1.0536890e+00	   1.0488332e+00	
   6.1380000e+01	   1.1140081e+00	   9.7857137e-01	
   6.1435000e+01	   1.1672722e+00	   1.0406039e+00	
   6.1490000e+01	   1.4081729e+00	   9.5699911e-01	
   6.1545000e+01	   1.4094870e+00	   1.2517696e+00	
   6.1600000e+01	   1.1417651e+00	   1.1083377e+00	
   6.1655000e+01	   1.0751275e+00	   9.1581799e-01	
   6.1710000e+01	   5.1326927e-01	   9.6539381e-01	
   6.1765000e+01	   1.1926461e+00	   1.0058174e+00	
   6.1820000e+01	   7.2160604e-01	   7.0540030e-01	
   6.1875000e+01	   7.8469475e-01	   6.1314388e-01	
   6.1930000e+01	   7.3366724e-01	   5.0644952e-01	
   6.1985000e+01	   3.0777547e-01	   7.0227109e-01	
   6.2040000e+01	  -9.5242151e-02	   6.4719512e-01	
   6.2095000e+01	   9.9896245e-02	   5.5495393e-01	
   6.2150000e+01	   6.5680902e-01	   8.9778350e-01	
   6.2205000e+01	   5.5933858e-01	   9.3153071e-01	
   6.2260000e+01	   8.0179092e-01	   1.0185537e+00	
   6.2315000e+01	   8.2626397e-01	   8.2911779e-01	
   6.2370000e+01	   9.7437970e-01	   1.0116124e+00	
   6.2425000e+01	   1.4938997e+00	   1.2460945e+00	
   6.2480000e+01	   8.1440675e-01	   1.0486834e+00	
   6.2535000e+01	   8.5537177e-01	   6.9162586e-01	
   6.2590000e+01	   6.2969768e-01	   7.5294576e-01	
   6.2645000e+01	   9.7618268e-01	   8.8665760e-01	
   6.2700000e+01	   1.0579525e+00	   7.4483519e-01	
   6.2755000e+01	   5.6785090e-01	   4.1870605e-01	
   6.2810000e+01	   5.6771502e-01	   4.2614910e-01	
   6.2865000e+01	   6.3905650e-01	   3.6877623e-01	
   6.2920000e+01	   3.9347480e-01	   4.3038672e-01	
   6.2975000e+01	   3.3297846e-01	   5.5287393e-01	
   6.3030000e+01	   1.1697557e+00	   7.6662197e-01	
   6.3085000e+01	   6.7107092e-01	   9.3522072e-01	
   6.3140000e+01	   7.7466915e-01	   1.0245032e+00	
   6.3195000e+01	   8.5044586e-01	   7.9854698e-01	
   6.3250000e+01	   1.3026520e+00	   7.9854698e-01	
   6.3305000e+01	   1.1454948e+00	   7.0768208e-01	
   6.3360000e+01	   1.2630199e+00	   7.8824261e-01	
   6.3415000e+01	   4.9268060e-01	   7.0181166e-01	
   6.3470000e+01	   2.1500387e-01	   6.6620615e-01	
   6.3525000e+01	   2.8584050e-01	   5.5734583e-01	
   6.3580000e+01	   2.6533205e-01	   5.3282036e-01	
   6.3635000e+01	   2.5200845e-01	   1.7519329e-01	
   6.3690000e+01	   3.9418447e-01	   3.3662432e-01	
   6.3745000e+01	   3.4171326e-01	   4.1578042e-01	
   6.3800000e+01	   2.1059074e-02	   1.3192383e-01	
   6.3855000e+01	   6.3202787e-01	   4.9910370e-01	
   6.3910000e+01	   7.7942215e-01	   8.0365791e-01	
   6.3965000e+01	   1.1097337e+00	   8.9434641e-01	
   6.4020000e+01	   8.8112632e-01	   6.4095962e-01	
   6.4075000e+01	   1.3573395e+00	   5.9881307e-01	
   6.4130000e+01	   4.5438715e-01	   5.6903363e-01	
   6.4185000e+01	   7.3660597e-01	   7.6232736e-01	
   6.4240000e+01	   7.4633789e-01	   5.4953553e-01	
   6.4295000e+01	   1.0320015e+00	   6.7268595e-01	
   6.4350000e+01	   7.0419537e-01	   5.3201234e-01	
   6.4405000e+01	   4.1353437e-01	   3.7992911e-01	
   6.4460000e+01	   3.8421714e-01	   2.2034003e-01	
   6.4515000e+01	   6.8969574e-01	   1.9876342e-01	
   6.4570000e+01	   2.8805836e-01	   3.1861962e-01	
   6.4625000e+01	   8.0076158e-02	   1.8407419e-01	
   6.4680000e+01	   2.5962263e-01	   3.3375090e-01	
   6.4735000e+01	   3.9014837e-01	   5.0202786e-01	
   6.4790000e+01	   6.6618418e-01	   6.0952703e-01	
   6.4845000e+01	   5.4313190e-01	   6.2959110e-01	
   6.4900000e+01	   9.8258825e-02	   3.4375314e-01	
   6.4955000e+01	  -2.4965050e-01	   5.3384444e-01	
   6.5010000e+01	   1.9158378e-01	   5.0223592e-01	
   6.5065000e+01	   7.3933349e-01	   5.0704014e-01	
   6.5120000e+01	   1.6459382e-01	   2.8488615e-01	
   6.5175000e+01	   1.2579575e-01	   2.5771655e-01	
   6.5230000e+01	   2.3339424e-01	   6.8785794e-02	
   6.5285000e+01	   2.5626201e-01	   1.3470324e-01	
   6.5340000e+01	  -4.5648561e-01	  -8.1782743e-02	
   6.5395000e+01	  -1.3261205e-01	  -1.6512134e-01	
   6.5450000e+01	   3.2838110e-01	   2.1807674e-01	
   6.5505000e+01	   6.2780665e-01	   4.2678621e-01	
   6.5560000e+01	   3.9833199e-01	   1.6429450e-01	
   6.5615000e+01	   1.7752531e-01	   5.0068023e-01	
   6.5670000e+01	   2.5455449e-01	   4.4214510e-01	
   6.5725000e+01	   4.1695670e-01	   4.4458414e-01	
   6.5780000e+01	   2.7497195e-01	   5.0874601e-01	
   6.5835000e+01	  -1.4023534e-01	   1.9156671e-02	
   6.5890000e+01	  -2.7932281e-01	   3.3831611e-01	
   6.5945000e+01	   5.0465651e-01	   4.1077176e-01	
   6.6000000e+01	   1.3904693e-02	   1.8169626e-01	
   6.6055000e+01	   2.3955076e-02	  -1.4550355e-01	
   6.6110000e+01	   3.1556663e-01	  -2.3581771e-01	
   6.6165000e+01	   6.4816094e-01	   1.1584347e-01	
   6.6220000e+01	  -8.4585221e-02	  -2.7089317e-01	
   6.6275000e+01	   2.0408333e-01	  -2.8826484e-02	
   6.6330000e+01	   1.0524807e+00	   2.6290343e-01	
   6.6385000e+01	   7.8238469e-01	   3.8791381e-01	
   6.6440000e+01	   1.0213486e+00	   5.5619564e-01	
   6.6495000e+01	   8.1876408e-01	   5.0100184e-01	
   6.6550000e+01	   7.3895885e-01	   4.6614932e-01	
   6.6605000e+01	   1.2984828e+00	   6.0938358e-01	
   6.6660000e+01	   8.4317782e-01	   2.6712071e-01	
   6.6715000e+01	   9.8148067e-01	   3.8910872e-01	
   6.6770000e+01	   8.6600680e-01	   2.2676757e-01	
   6.6825000e+01	   7.3524304e-01	   2.6467497e-01	
   6.6880000e+01	   6.2929927e-01	   1.0184946e-01	
   6.6935000e+01	   8.5149735e-01	  -1.0847996e-02	
   6.6990000e+01	  -8.2796511e-03	   1.1228934e-01	
   6.7045000e+01	  -1.3256028e-01	  -1.8256468e-01	
   6.7100000e+01	  -1.1123459e-01	  -3.9545285e-01	
   6.7155000e+01	   1.3476837e-01	  -7.4115941e-02	
   6.7210000e+01	   7.6501037e-01	   2.9840432e-01	
   6.7265000e+01	   4.8139696e-01	   3.2480227e-01	
   6.7320000e+01	   4.2317856e-01	   3.2588912e-01	
   6.7375000e+01	   6.1148511e-01	   2.9785470e-01	
   6.7430000e+01	   4.6345211e-01	   4.7744023e-01	
   6.7485000e+01	   5.6670763e-01	   4.6900010e-01	
   6.7540000e+01	   6.1217068e-01	   1.5852197e-01	
   6.7595000e+01	   3.8451118e-01	   1.5750750e-01	
   6.7650000e+01	   6.3059536e-01	   2.9196314e-01	
   6.7705000e+01	   6.4209155e-01	   2.9866082e-01	
   6.7760000e+01	   2.1889929e-01	  -5.8855868e-03	
   6.7815000e+01	   6.6389000e-02	  -1.4286091e-01	
   6.7870000e+01	   1.0915746e+00	   6.4940506e-02	
   6.7925000e+01	   8.5727610e-01	  -1.0991831e-01	
   6.7980000e+01	   4.8335539e-01	  -5.4131756e-02	
   6.8035000e+01	   7.4585902e-01	   2.3884937e-01	
   6.8090000e+01	   6.9157017e-01	   3.3090973e-01	
   6.8145000e+01	   7.6881141e-01	   2.6941943e-01	
   6.8200000e+01	   4.7744552e-01	   1.8993665e-01	
   6.8255000e+01	   5.5765452e-01	   1.9498455e-01	
   6.8310000e+01	   4.5768522e-01	   2.2114859e-01	
   6.8365000e+01	   1.4646771e-01	   1.5379370e-01	
   6.8420000e+01	   5.8807872e-01	   1.7684335e-02	
   6.8475000e+01	   1.0897724e+00	   1.7731829e-01	
   6.8530000e+01	   9.2814323e-01	  -1.6551843e-01	
   6.8585000e+01	   2.0757625e-01	   1.9021379e-01	
   6.8640000e+01	   5.6399997e-01	  -2.2427462e-01	
   6.8695000e+01	   5.3926925e-01	  -2.2060698e-01	
   6.8750000e+01	   6.0181669e-01	  -8.0542079e-02	
   6.8805000e+01	   9.9123008e-01	   3.2774346e-01	
   6.8860000e+01	   1.0564725e+00	   3.0846878e-01	
   6.8915000e+01	   8.0306659e-01	   2.5910851e-01	
   6.8970000e+01	   1.1654086e+00	   6.0318435e-01	
   6.9025000e+01	   1.3119848e+00	   4.7150602e-01	
   6.9080000e+01	   1.3904255e+00	   2.7993160e-01	
   6.9135000e+01	   5.6644290e-01	   2.3156511e-01	
   6.9190000e+01	   6.4032135e-01	   5.8520545e-02	
   6.9245000e+01	   1.0537262e+00	   1.5745944e-01	
   6.9300000e+01	   8.2151565e-01	   2.4326209e-01	
   6.9355000e+01	   8.8422906e-01	  -2.0651809e-02	
   6.9410000e+01	   8.9801334e-01	   2.3204001e-01	
   6.9465000e+01	   1.0682020e+00	  -6.1386393e-02	
   6.9520000e+01	   8.8590747e-01	  -1.9578561e-01	
   6.9575000e+01	   1.3049917e+00	   1.7301379e-01	
   6.9630000e+01	   1.7410780e+00	   4.9748614e-01	
   6.9685000e+01	   1.6359909e+00	   4.6679381e-01	
   6.9740000e+01	   1.8393052e+00	   3.8699069e-01	
   6.9795000e+01	   1.6178806e+00	   4.9938502e-01	
   6.9850000e+01	   2.1983680e+00	   6.7952852e-01	
   6.9905000e+01	   2.0123652e+00	   6.0947934e-01	
   6.9960000e+01	   1.5179649e+00	   3.7105581e-01	
   7.0015000e+01	   1.3702708e+00	   1.6567970e-01	
   7.0070000e+01	   2.1148847e+00	   5.0934286e-01	
   7.0125000e+01	   1.9950361e+00	   4.2474804e-01	
   7.0180000e+01	   1.3714612e+00	   1.6141538e-01	
   7.0235000e+01	   1.6786350e+00	   1.1908573e-01	
   7.0290000e+01	   1.5404717e+00	   2.1997333e-01	
   7.0345000e+01	   1.7862910e+00	   4.7072005e-02	
   7.0400000e+01	   1.1436690e+00	  -6.3218270e-02	
   7.0455000e+01	   1.2096193e+00	   1.5816703e-01	
   7.0510000e+01	   1.7487356e+00	   6.5995872e-01	
   7.0565000e+01	   1.9417206e+00	   4.9130421e-01	
   7.0620000e+01	   1.2508141e+00	   5.2718469e-01	
   7.0675000e+01	   1.3414221e+00	   6.3752484e-01	
   7.0730000e+01	   2.1368141e+00	   7.6916219e-01	
   7.0785000e+01	   2.0825387e+00	   4.8906988e-01	
   7.0840000e+01	   1.5916830e+00	   4.3901737e-01	
   7.0895000e+01	   1.6515209e+00	   4.5436962e-01	
   7.0950000e+01	   1.8063924e+00	   5.2204991e-01	
   7.1005000e+01	   1.8774334e+00	   3.1121509e-01	
   7.1060000e+01	   1.2458871e+00	   1.1216380e-01	
   7.1115000e+01	   1.2018906e+00	   9.3855466e-02	
   7.1170000e+01	   1.2848090e+00	   1.9489082e-01	
   7.1225000e+01	   1.1623836e+00	   1.3933919e-01	
   7.1280000e+01	   1.0764269e+00	   3.5516907e-01	
   7.1335000e+01	   1.8056830e+00	   6.0021398e-01	
   7.1390000e+01	   2.0118896e+00	   5.5566754e-01	
   7.1445000e+01	   1.5446498e+00	   6.3333770e-01	
   7.1500000e+01	   1.4490435e+00	   6.7646508e-01	
   7.1555000e+01	   1.5799927e+00	   6.2454462e-01	
   7.1610000e+01	   1.8583163e+00	   6.4593828e-01	
   7.1665000e+01	   1.3730957e+00	   3.6954192e-01	
   7.1720000e+01	   1.0118980e+00	   2.7228053e-01	
   7.1775000e+01	   1.2887710e+00	   3.8119802e-01	
   7.1830000e+01	   1.3276084e+00	   3.0207196e-01	
   7.1885000e+01	   1.4560455e+00	   4.6768855e-01	
   7.1940000e+01	   1.1812402e+00	   1.5597775e-01	
   7.1995000e+01	   8.6689826e-01	   2.3835975e-01	
   7.2050000e+01	   1.4588756e+00	   1.4102286e-01	
   7.2105000e+01	   1.0389018e+00	   1.0360982e-01	
   7.2160000e+01	   1.4751973e+00	   4.1822646e-01	
   7.2215000e+01	   2.1262270e+00	   4.3577488e-01	
   7.2270000e+01	   1.6859282e+00	   5.9035208e-01	
   7.2325000e+01	   1.5660408e+00	   5.6084151e-01	
   7.2380000e+01	   1.4714615e+00	   4.0324140e-01	
   7.2435000e+01	   1.7474321e+00	   5.7724643e-01	
   7.2490000e+01	   1.9742005e+00	   6.7790854e-01	
   7.2545000e+01	   2.0679257e+00	   5.4990773e-01	
   7.2600000e+01	   1.3874771e+00	   3.8615672e-01	
   7.2655000e+01	   1.4122697e+00	   4.0502602e-01	
   7.2710000e+01	   1.5556619e+00	   4.1261408e-01	
   7.2765000e+01	   1.2089611e+00	   2.4140051e-01	
   7.2820000e+01	   1.2085382e+00	   2.0385252e-01	
   7.2875000e+01	   1.1380954e+00	   1.5621146e-01	
   7.2930000e+01	   1.5719792e+00	  -7.5097113e-02	
   7.2985000e+01	   1.0741604e+00	  -1.8035919e-01	
   7.3040000e+01	   1.4324112e+00	   2.0999998e-01	
   7.3095000e+01	   2.1376827e+00	   6.2295366e-01	
   7.3150000e+01	   1.8662175e+00	   7.1049744e-01	
   7.3205000e+01	   1.7807639e+00	   6.0749691e-01	
   7.3260000e+01	   1.4718765e+00	   5.7767656e-01	
   7.3315000e+01	   2.3148553e+00	   7.7977665e-01	
   7.3370000e+01	   2.0160074e+00	   6.9194679e-01	
   7.3425000e+01	   1.7175785e+00	   3.9397880e-01	
   7.3480000e+01	   1.3570242e+00	   4.9276600e-01	
   7.3535000e+01	   1.6034002e+00	   4.4188555e-01	
   7.3590000e+01	   1.2417011e+00	   3.7392131e-01	
   7.3645000e+01	   1.2961975e+00	   3.8360965e-01	
   7.3700000e+01	   1.4268272e+00	   7.4291124e-02	
   7.3755000e+01	   1.2012396e+00	   1.7926444e-01	
   7.3810000e+01	   1.3313834e+00	  -5.7119417e-03	
   7.3865000e+01	   1.2535223e+00	  -3.9645868e-04	
   7.3920000e+01	   1.5354199e+00	  -1.2541217e-01	
   7.3975000e+01	   1.5560342e+00	   5.0582771e-01	
   7.4030000e+01	   1.9232589e+00	   5.6843066e-01	
   7.4085000e+01	   1.3253429e+00	   5.1935292e-01	
   7.4140000e+01	   1.7155395e+00	   5.6116591e-01	
   7.4195000e+01	   2.0491208e+00	   6.1656006e-01	
   7.4250000e+01	   2.0696081e+00	   8.0786306e-01	
   7.4305000e+01	   2.3185360e+00	   6.2472600e-01	
   7.4360000e+01	   1.5737263e+00	   3.3529851e-01	
   7.4415000e+01	   1.8233781e+00	   4.3986269e-01	
   7.4470000e+01	   1.4721115e+00	   2.6633687e-01	
   7.4525000e+01	   1.3984884e+00	   2.3287372e-01	
   7.4580000e+01	   1.2334154e+00	   6.0123059e-02	
   7.4635000e+01	   1.3088279e+00	   1.9210145e-01	
   7.4690000e+01	   9.4822234e-01	   2.0389522e-02	
   7.4745000e+01	   1.3765386e+00	   2.4204633e-01	
   7.4800000e+01	   1.6428330e+00	   3.6761713e-01	
   7.4855000e+01	   2.0327028e+00	   6.7496889e-01	
   7.4910000e+01	   2.0342884e+00	   6.0605647e-01	
   7.4965000e+01	   1.0179507e+00	   4.9222546e-01	
   7.5020000e+01	   1.1315076e+00	   4.6019610e-01	
   7.5075000e+01	   1.8378226e+00	   5.1294583e-01	
   7.5130000e+01	   1.2927098e+00	   4.8082762e-01	
   7.5185000e+01	   1.1589724e+00	   2.1282022e-01	
   7.5240000e+01	   1.2684465e+00	   4.1441358e-01	
   7.5295000e+01	   7.7745676e-01	   2.8426700e-01	
   7.5350000e+01	   9.1557895e-01	   2.3880779e-01	
   7.5405000e+01	   1.4914009e+00	   1.6175833e-01	
   7.5460000e+01	   9.3377340e-01	  -3.3396376e-03	
   7.5515000e+01	   1.8984211e+00	   5.3537959e-01	
   7.5570000e+01	   1.7417882e+00	   2.5649010e-01	
   7.5625000e+01	   1.1952401e+00	   4.7882980e-01	
   7.5680000e+01	   1.5671769e+00	   6.7507446e-01	
   7.5735000e+01	   1.7893003e+00	   8.1339297e-01	
   7.5790000e+01	   2.1319270e+00	   7.1524689e-01	
   7.5845000e+01	   1.8461150e+00	   5.9278706e-01	
   7.5900000e+01	   1.7784168e+00	   5.8742803e-01	
   7.5955000e+01	   1.9826651e+00	   5.2621907e-01	
   7.6010000e+01	   1.2451377e+00	   3.7160508e-01	
   7.6065000e+01	   1.3617044e+00	   3.5116718e-01	
   7.6120000e+01	   1.3558336e+00	   4.4531449e-01	
   7.6175000e+01	   1.2968037e+00	   3.9789852e-01	
   7.6230000e+01	   1.1334939e+00	   9.1240613e-02	
   7.6285000e+01	   8.5382794e-01	  -6.1600832e-02	
   7.6340000e+01	   1.1851102e+00	   8.9498644e-02	
   7.6395000e+01	   1.7087772e+00	   6.2217504e-01	
   7.6450000e+01	   1.8579176e+00	   4.4169189e-01	
   7.6505000e+01	   1.8846011e+00	   5.9474964e-01	
   7.6560000e+01	   1.5125785e+00	   8.7412529e-01	
   7.6615000e+01	   1.5884308e+00	   6.7486646e-01	
   7.6670000e+01	   2.1915288e+00	   8.3436338e-01	
   7.6725000e+01	   2.1882976e+00	   5.9076654e-01	
   7.6780000e+01	   1.8787774e+00	   5.5619564e-01	
   7.6835000e+01	   1.9919129e+00	   7.5463236e-01	
   7.6890000e+01	   1.9431946e+00	   5.7716156e-01	
   7.6945000e+01	   1.9257690e+00	   3.1842847e-01	
   7.7000000e+01	   2.1017629e+00	   6.9417601e-01	
   7.7055000e+01	   2.4514201e+00	   5.4830165e-01	
   7.7110000e+01	   1.5246913e+00	   1.9696275e-01	
   7.7165000e+01	   1.2024467e+00	   1.1501381e-01	
   7.7220000e+01	   1.6852933e+00	   5.7864176e-01	
   7.7275000e+01	   2.0160402e+00	   8.6835140e-01	
   7.7330000e+01	   1.9398147e+00	   8.0370800e-01	
   7.7385000e+01	   2.0510586e+00	   9.3490200e-01	
   7.7440000e+01	   2.0738449e+00	   7.1143375e-01	
   7.7495000e+01	   2.1500588e+00	   9.3650571e-01	
   7.7550000e+01	   1.7595680e+00	   7.3219664e-01	
   7.7605000e+01	   1.6975792e+00	   7.0264347e-01	
   7.7660000e+01	   2.0052553e+00	   8.2114803e-01	
   7.7715000e+01	   2.5205964e+00	   6.9101395e-01	
   7.7770000e+01	   2.2465519e+00	   7.3463437e-01	
   7.7825000e+01	   1.7520138e+00	   3.1766909e-01	
   7.7880000e+01	   1.8427101e+00	   2.7143820e-01	
   7.7935000e+01	   2.1287121e+00	   4.1806267e-01	
   7.7990000e+01	   1.8012108e+00	   3.0449816e-01	
   7.8045000e+01	   2.2862753e+00	   4.0918911e-01	
   7.8100000e+01	   2.2338623e+00	   6.6564546e-01	
   7.8155000e+01	   1.9236738e+00	   8.5601723e-01	
   7.8210000e+01	   2.1343279e+00	   4.9687600e-01	
   7.8265000e+01	   2.0930929e+00	   6.4814679e-01	
   7.8320000e+01	   2.4970155e+00	   9.3491584e-01	
   7.8375000e+01	   2.1111547e+00	   8.6569970e-01	
   7.8430000e+01	   1.9162836e+00	   6.4677919e-01	
   7.8485000e+01	   1.6185940e+00	   6.3709390e-01	
   7.8540000e+01	   1.9748669e+00	   5.3094920e-01	
   7.8595000e+01	   2.1415911e+00	   4.2203913e-01	
   7.8650000e+01	   1.1782015e+00	   3.2821028e-01	
   7.8705000e+01	   1.4314554e+00	   3.2165161e-01	
   7.8760000e+01	   1.6596688e+00	   3.5828091e-01	
   7.8815000e+01	   2.0956547e+00	   5.9963263e-01	
   7.8870000e+01	   2.0443482e+00	   5.8990168e-01	
   7.8925000e+01	   1.8408825e+00	   6.7370935e-01	
   7.8980000e+01	   2.1464564e+00	   6.1171140e-01	
   7.9035000e+01	   2.2624526e+00	   5.8065454e-01	
   7.9090000e+01	   1.7849818e+00	   7.4096413e-01	
   7.9145000e+01	   1.8451109e+00	   5.8906165e-01	
   7.9200000e+01	   2.0759497e+00	   6.5696586e-01	
   7.9255000e+01	   1.5187042e+00	   5.3961550e-01	
   7.9310000e+01	   1.5677035e+00	   4.0364196e-01	
   7.9365000e+01	   1.2130600e+00	   4.2876120e-01	
   7.9420000e+01	   1.4525263e+00	   3.7581750e-01	
   7.9475000e+01	   1.3879024e+00	   3.8544082e-01	
   7.9530000e+01	   1.5532417e+00	   1.1944414e-01	
   7.9585000e+01	   1.4653647e+00	   3.0622910e-01	
   7.9640000e+01	   1.5634812e+00	   6.2972453e-01	
   7.9695000e+01	   1.6827645e+00	   8.0759913e-01	
   7.9750000e+01	   2.0581326e+00	   6.0072512e-01	
   7.9805000e+01	   1.7104127e+00	   4.8342009e-01	
   7.9860000e+01	   1.9203458e+00	   8.4575488e-01	
   7.9915000e+01	   2.0458980e+00	   7.9120264e-01	
   7.9970000e+01	   1.7298226e+00	   5.6405312e-01	
   8.0025000e+01	   1.9527813e+00	   6.7690881e-01	
   8.0080000e+01	   1.7696475e+00	   7.3098547e-01	
   8.0135000e+01	   1.6231715e+00	   4.2283851e-01	
   8.0190000e+01	   1.1118686e+00	   2.1282022e-01	
   8.0245000e+01	   1.5327899e+00	   2.8073943e-01	
   8.0300000e+01	   1.5168052e+00	   3.9125922e-01	
   8.0355000e+01	   1.3822767e+00	   1.4904343e-01	
   8.0410000e+01	   1.5115745e+00	   2.7393224e-01	
   8.0465000e+01	   1.8814265e+00	   6.2520482e-01	
   8.0520000e+01	   2.2430334e+00	   8.3015408e-01	
   8.0575000e+01	   2.2536085e+00	   6.7785437e-01	
   8.0630000e+01	   1.6991437e+00	   6.6393721e-01	
   8.0685000e+01	   2.3247362e+00	   6.8982120e-01	
   8.0740000e+01	   2.0499105e+00	   6.4002765e-01	
   8.0795000e+01	   1.8114508e+00	   6.8734012e-01	
   8.0850000e+01	   1.8195643e+00	   6.8142922e-01	
   8.0905000e+01	   1.6365260e+00	   4.5584777e-01	
   8.0960000e+01	   1.3268683e+00	   7.1130001e-01	
   8.1015000e+01	   1.2164272e+00	   5.1505628e-01	
   8.1070000e+01	   1.2500426e+00	   2.5650262e-01	
   8.1125000e+01	   1.4601441e+00	   2.5354981e-01	
   8.1180000e+01	   1.5194920e+00	   4.1170761e-01	
   8.1235000e+01	   1.3832597e+00	   1.4290460e-01	
   8.1290000e+01	   1.1646408e+00	   3.1036345e-01	
   8.1345000e+01	   2.0144666e+00	   5.4659350e-01	
   8.1400000e+01	   2.2851356e+00	   9.0096260e-01	
   8.1455000e+01	   1.8815355e+00	   7.3132214e-01	
   8.1510000e+01	   1.5565588e+00	   7.1360300e-01	
   8.1565000e+01	   1.6266400e+00	   6.7569849e-01	
   8.1620000e+01	   2.0711645e+00	   8.4791744e-01	
   8.1675000e+01	   2.0414358e+00	   5.0338342e-01	
   8.1730000e+01	   2.0263236e+00	   4.9158316e-01	
   8.1785000e+01	   1.8930459e+00	   4.6612394e-01	
   8.1840000e+01	   1.8055051e+00	   5.1096073e-01	
   8.1895000e+01	   1.0934153e+00	   3.1337900e-01	
   8.1950000e+01	   1.7202098e+00	   1.3192383e-01	
   8.2005000e+01	   1.2417718e+00	   2.1460246e-01	
   8.2060000e+01	   1.2037444e+00	   2.9078140e-01	
   8.2115000e+01	   1.0848030e+00	   1.5260538e-01	
   8.2170000e+01	   1.1258860e+00	   4.9128924e-01	
   8.2225000e+01	   2.1688886e+00	   6.9533767e-01	
   8.2280000e+01	   1.6084462e+00	   7.6664714e-01	
   8.2335000e+01	   1.6505213e+00	   6.2066598e-01	
   8.2390000e+01	   1.4231023e+00	   4.8132934e-01	
   8.2445000e+01	   1.7374248e+00	   7.9883725e-01	
   8.2500000e+01	   1.7171246e+00	   5.8375663e-01	
   8.2555000e+01	   1.7617234e+00	   4.9565455e-01	
   8.2610000e+01	   1.6701164e+00	   4.8317739e-01	
   8.2665000e+01	   1.9407774e+00	   4.7994798e-01	
   8.2720000e+01	   1.5418680e+00	   2.6799011e-01	
   8.2775000e+01	   1.2153912e+00	   1.7985808e-01	
   8.2830000e+01	   1.0396056e+00	   2.4773400e-01	
   8.2885000e+01	   1.6455358e+00	   4.7841351e-01	
   8.2940000e+01	   1.4152947e+00	   4.7570336e-01	
   8.2995000e+01	   1.5849183e+00	   3.6856999e-01	
   8.3050000e+01	   1.9077109e+00	   6.9425086e-01	
   8.3105000e+01	   1.8771726e+00	   8.0410977e-01	
   8.3160000e+01	   1.5220039e+00	   5.4215929e-01	
   8.3215000e+01	   2.0531789e+00	   5.3856845e-01	
   8.3270000e+01	   1.4408209e+00	   6.7056008e-01	
   8.3325000e+01	   1.7018895e+00	   5.4565962e-01	
   8.3380000e+01	   1.2774185e+00	   7.2364471e-01	
   8.3435000e+01	   1.0005785e+00	   8.2505865e-02	
   8.3490000e+01	   1.3155853e+00	   2.3227619e-01	
   8.3545000e+01	   9.5412804e-01	   3.5552685e-01	
   8.3600000e+01	   1.3475686e+00	   1.5982303e-01	
   8.3655000e+01	   2.8182890e-01	   8.8040126e-02	
   8.3710000e+01	   1.6550432e+00	   3.9972705e-01	
   8.3765000e+01	   1.6084180e+00	   6.0161092e-01	
   8.3820000e+01	   1.3844476e+00	   8.1700046e-01	
   8.3875000e+01	   1.2781483e+00	   9.0610605e-01	
   8.3930000e+01	   1.4914368e+00	   6.6455171e-01	
   8.3985000e+01	   1.7232302e+00	   9.3144598e-01	
   8.4040000e+01	   1.7446872e+00	   7.6945002e-01	
   8.4095000e+01	   1.5524920e+00	   4.9570084e-01	
   8.4150000e+01	   1.2104158e+00	   5.5068605e-01	
   8.4205000e+01	   1.5324780e+00	   7.4748996e-01	
   8.4260000e+01	   1.0495393e+00	   4.8879202e-01	
   8.4315000e+01	   1.1993230e+00	   2.8919716e-01	
   8.4370000e+01	   1.0758483e+00	   4.2506458e-01	
   8.4425000e+01	   1.3014234e+00	   3.0808390e-01	
   8.4480000e+01	   1.0898605e+00	   3.5323660e-01	
   8.4535000e+01	   1.0065113e+00	   1.2979129e-01	
   8.4590000e+01	   1.3031459e+00	   3.7287339e-01	
   8.4645000e+01	   1.4669299e+00	   6.4693390e-01	
   8.4700000e+01	   1.4295498e+00	   4.5414188e-01	
   8.4755000e+01	   1.5788012e+00	   6.2347295e-01	
   8.4810000e+01	   1.9302073e+00	   6.6545987e-01	
   8.4865000e+01	   1.6540630e+00	   7.5347351e-01	
   8.4920000e+01	   1.7585736e+00	   8.9943807e-01	
   8.4975000e+01	   1.5084574e+00	   5.5116069e-01	
   8.5030000e+01	   1.1734178e+00	   5.5573447e-01	
   8.5085000e+01	   1.1654658e+00	   6.5360694e-01	
   8.5140000e+01	   9.9072403e-01	   5.8676098e-01	
   8.5195000e+01	   1.0112971e+00	   4.6558865e-01	
   8.5250000e+01	   1.4143938e+00	   3.8720366e-01	
   8.5305000e+01	   7.8735764e-01	   4.5381031e-01	
   8.5360000e+01	   6.6495626e-01	   2.0099904e-01	
   8.5415000e+01	   5.3421854e-01	  -1.6183899e-01	
   8.5470000e+01	   1.2298473e+00	   3.3968637e-01	
   8.5525000e+01	   1.5441502e+00	   7.1509054e-01	
   8.5580000e+01	   1.3696592e+00	   5.9086785e-01	
   8.5635000e+01	   9.1056710e-01	   4.8382613e-01	
   8.5690000e+01	   1.6468823e+00	   6.0594364e-01	
   8.5745000e+01	   1.0151745e+00	   7.5236833e-01	
   8.5800000e+01	   1.0839804e+00	   5.2238002e-01	
   8.5855000e+01	   9.6908857e-01	   4.6026059e-01	
   8.5910000e+01	   1.2318475e+00	   4.5748092e-01	
   8.5965000e+01	   8.9211196e-01	   2.9900991e-01	
   8.6020000e+01	   1.0785879e+00	   2.0397454e-01	
   8.6075000e+01	   2.6608779e-01	   1.7606794e-02	
   8.6130000e+01	   9.7566965e-01	   3.0609319e-01	
   8.6185000e+01	   1.4473755e+00	   1.7910476e-01	
   8.6240000e+01	   9.7049954e-01	   1.6530245e-01	
   8.6295000e+01	   1.0756617e+00	   2.0374799e-01	
   8.6350000e+01	   1.2109180e+00	   5.7057350e-01	
   8.6405000e+01	   1.3059462e+00	   6.2814572e-01	
   8.6460000e+01	   1.1682631e+00	   5.3248794e-01	
   8.6515000e+01	   1.0623860e+00	   5.4256515e-01	
   8.6570000e+01	   1.5409780e+00	   6.4667254e-01	
   8.6625000e+01	   1.0940286e+00	   5.3840499e-01	
   8.6680000e+01	   9.2294452e-01	   2.7352060e-01	
   8.6735000e+01	   6.8205439e-01	   4.5199633e-01	
   8.6790000e+01	   8.6308208e-01	   5.4771038e-01	
   8.6845000e+01	   8.2174271e-01	   3.9144851e-01	
   8.6900000e+01	   9.3914729e-01	   2.3449357e-02	
   8.6955000e+01	   2.2978498e-01	   1.3306153e-02	
   8.7010000e+01	   6.7730546e-01	   7.6092944e-02	
   8.7065000e+01	   1.0980433e+00	   2.4491864e-01	
   8.7120000e+01	   8.6077284e-01	   4.6126008e-01	
   8.7175000e+01	   8.3532087e-01	   2.9625329e-01	
   8.7230000e+01	   1.3033551e+00	   6.1811287e-01	
   8.7285000e+01	   1.0613272e+00	   6.1556057e-01	
   8.7340000e+01	   1.0400496e+00	   4.1584333e-01	
   8.7395000e+01	   9.9687459e-01	   5.6309899e-01	
   8.7450000e+01	   1.3110875e+00	   7.4006969e-01	
   8.7505000e+01	   1.1201408e+00	   5.6330786e-01	
   8.7560000e+01	   2.8672667e-01	   2.6461884e-01	
   8.7615000e+01	   8.0390154e-01	   1.8663062e-01	
   8.7670000e+01	   1.1787837e+00	   4.1199261e-01	
   8.7725000e+01	   7.3609401e-01	   1.5174515e-01	
   8.7780000e+01	   3.5169627e-01	   1.8109633e-02	
   8.7835000e+01	   3.7593035e-01	   1.9513863e-01	
   8.7890000e+01	   1.0106052e+00	   1.8543481e-01	
   8.7945000e+01	   5.3782854e-01	   2.9244487e-01	
   8.8000000e+01	   8.6039768e-01	   5.3796826e-01	
   8.8055000e+01	   1.0101561e+00	   5.1328196e-01	
   8.8110000e+01	   1.3234604e+00	   8.4634545e-01	
   8.8165000e+01	   1.5376502e+00	   7.6916219e-01	
   8.8220000e+01	   9.5242230e-01	   6.2811631e-01	
   8.8275000e+01	   1.2344333e+00	   7.3519076e-01	
   8.8330000e+01	   1.1479922e+00	   7.4246971e-01	
   8.8385000e+01	   1.2998463e+00	   4.8919701e-01	
   8.8440000e+01	   7.5184416e-01	   4.6940524e-01	
   8.8495000e+01	   9.1936554e-01	   5.4643518e-01	
   8.8550000e+01	   8.1307769e-01	   5.0644325e-01	
   8.8605000e+01	   8.1475628e-01	   4.0476131e-01	
   8.8660000e+01	   8.4668905e-01	  -2.2332450e-02	
   8.8715000e+01	   6.2211105e-01	   2.3696122e-01	
   8.8770000e+01	   4.6659211e-01	   2.9594158e-01	
   8.8825000e+01	   1.5322867e+00	   6.2993917e-01	
   8.8880000e+01	   7.8923044e-01	   3.9834307e-01	
   8.8935000e+01	   1.5771088e+00	   6.8266941e-01	
   8.8990000e+01	   1.4152505e+00	   6.0433181e-01	
   8.9045000e+01	   1.4602535e+00	   5.6185641e-01	
   8.9100000e+01	   1.7438037e+00	   6.0952703e-01	
   8.9155000e+01	   1.4878780e+00	   5.5404852e-01	
   8.9210000e+01	   1.7348566e+00	   5.3222465e-01	
   8.9265000e+01	   1.8621102e+00	   4.2005942e-01	
   8.9320000e+01	   1.2415125e+00	   4.4853714e-01	
   8.9375000e+01	   8.3686713e-01	   5.0071466e-01	
   8.9430000e+01	   1.3528999e+00	   5.1815328e-01	
   8.9485000e+01	   1.1682238e+00	   1.7988852e-01	
   8.9540000e+01	   5.8528598e-01	   9.2176753e-02	
   8.9595000e+01	   1.3700256e+00	   7.3845031e-01	
   8.9650000e+01	   1.2095209e+00	   5.4237955e-01	
   8.9705000e+01	   1.4591542e+00	   7.2998950e-01	
   8.9760000e+01	   1.6616573e+00	   6.1930408e-01	
   8.9815000e+01	   1.3584194e+00	   7.9084789e-01	
   8.9870000e+01	   1.7447653e+00	   8.6601033e-01	
   8.9925000e+01	   1.4269581e+00	   4.2473704e-01	
   8.9980000e+01	   1.0318791e+00	   6.5782385e-01	
   9.0035000e+01	   1.2051439e+00	   5.1841273e-01	
   9.0090000e+01	   9.7785970e-01	   5.3879550e-01	
   9.0145000e+01	   1.3767974e+00	   5.2005227e-01	
   9.0200000e+01	   6.0030041e-01	   2.4600757e-01	
   9.0255000e+01	   6.5025758e-01	   4.0189881e-01	
   9.0310000e+01	   8.1307304e-01	   3.3891630e-01	
   9.0365000e+01	   1.1352486e+00	   5.2312997e-01	
   9.0420000e+01	   1.0418532e+00	   5.5890123e-01	
   9.0475000e+01	   1.3406800e+00	   7.5449289e-01	
   9.0530000e+01	   1.5655219e+00	   9.6632136e-01	
   9.0585000e+01	   1.2704200e+00	   7.4619248e-01	
   9.0640000e+01	   8.7989594e-01	   7.7473989e-01	
   9.0695000e+01	   8.5327967e-01	   9.8733147e-01	
   9.0750000e+01	   1.1825093e+00	   9.0270848e-01	
   9.0805000e+01	   1.6992599e+00	   8.3810769e-01	
   9.0860000e+01	   1.0031700e+00	   7.3058848e-01	
   9.0915000e+01	   8.9951897e-01	   7.9684851e-01	
   9.0970000e+01	   1.4909407e+00	   7.2015686e-01	
   9.1025000e+01	   1.1823263e+00	   3.9236026e-01	
   9.1080000e+01	   5.7991288e-01	   1.9339497e-01	
   9.1135000e+01	   8.7895724e-01	   5.8321473e-01	
   9.1190000e+01	   7.0396778e-01	   2.8887809e-01	
   9.1245000e+01	   8.0800564e-01	   1.6993500e-01	
   9.1300000e+01	   1.1114404e+00	   6.6748472e-01	
   9.1355000e+01	   1.6499947e+00	   9.8607904e-01	
   9.1410000e+01	   1.9938362e+00	   8.8262939e-01	
   9.1465000e+01	   1.2428388e+00	   8.4686748e-01	
   9.1520000e+01	   1.2766676e+00	   7.9344613e-01	
   9.1575000e+01	   1.7384799e+00	   9.9264855e-01	
   9.1630000e+01	   8.8227626e-01	   8.9418511e-01	
   9.1685000e+01	   1.1560364e+00	   1.0093054e+00	
   9.1740000e+01	   1.4958927e+00	   6.3529177e-01	
   9.1795000e+01	   1.0836244e+00	   6.0982081e-01	
   9.1850000e+01	   1.0244832e+00	   6.2903662e-01	
   9.1905000e+01	   1.3605670e+00	   5.8698964e-01	
   9.1960000e+01	   5.8583004e-01	   3.8238304e-01	
   9.2015000e+01	   1.0720851e+00	   6.2993917e-01	
   9.2070000e+01	   7.2289950e-01	   3.9078504e-01	
   9.2125000e+01	   7.1323674e-01	   2.1921039e-01	
   9.2180000e+01	   8.7586428e-01	   5.1154099e-01	
   9.2235000e+01	   1.2575927e+00	   9.0530461e-01	
   9.2290000e+01	   1.5226911e+00	   9.1288182e-01	
   9.2345000e+01	   1.4204210e+00	   8.6172053e-01	
   9.2400000e+01	   1.2950482e+00	   8.0325768e-01	
   9.2455000e+01	   1.3367433e+00	   9.0998155e-01	
   9.2510000e+01	   1.2814833e+00	   7.8141902e-01	
   9.2565000e+01	   7.9544328e-01	   6.3644151e-01	
   9.2620000e+01	   1.2651329e+00	   6.8992679e-01	
   9.2675000e+01	   8.0604942e-01	   6.8018567e-01	
   9.2730000e+01	   1.2623078e+00	   6.8222036e-01	
   9.2785000e+01	   9.2777913e-01	   4.8815151e-01	
   9.2840000e+01	   3.9085507e-01	   3.0822588e-01	
   9.2895000e+01	   8.6906910e-01	   4.0633465e-01	
   9.2950000e+01	   7.8000027e-01	   3.4113606e-01	
   9.3005000e+01	   7.9032315e-01	   3.0092569e-01	
   9.3060000e+01	   6.0011766e-01	   8.8142821e-01	
   9.3115000e+01	   9.2999818e-01	   7.3305871e-01	
   9.3170000e+01	   1.1276733e+00	   9.8987373e-01	
   9.3225000e+01	   1.1305848e+00	   6.4417992e-01	
   9.3280000e+01	   1.0307168e+00	   5.4870061e-01	
   9.3335000e+01	   1.6525548e+00	   7.3587475e-01	
   9.3390000e+01	   1.1670616e+00	   6.9060857e-01	
   9.3445000e+01	   9.9835818e-01	   5.4459254e-01	
   9.3500000e+01	   9.3804259e-01	   5.2271900e-01	
   9.3555000e+01	   6.5424067e-01	   5.1118127e-01	
   9.3610000e+01	   9.6403694e-01	   3.3546420e-01	
   9.3665000e+01	   2.4901730e-01	   1.3865284e-01	
   9.3720000e+01	   2.9714762e-01	   1.2975189e-01	
   9.3775000e+01	   1.0569713e+00	   5.2854947e-01	
   9.3830000e+01	   1.5678037e+00	   5.7121116e-01	
   9.3885000e+01	   8.7217899e-01	   5.9011517e-01	
   9.3940000e+01	   1.0274442e+00	   6.7401638e-01	
   9.3995000e+01	   1.3994125e+00	   7.9402298e-01	
   9.4050000e+01	   9.1664323e-01	   8.3008808e-01	
   9.4105000e+01	   4.8773849e-01	   5.1814078e-01	
   9.4160000e+01	   4.4709717e-01	   5.5019728e-01	
   9.4215000e+01	   1.0710102e+00	   6.0021398e-01	
   9.4270000e+01	   4.6360401e-01	   3.7992212e-01	
   9.4325000e+01	   3.8507307e-01	   3.7793132e-01	
   9.4380000e+01	   7.4881948e-01	   4.9052805e-01	
   9.4435000e+01	   6.3565482e-01	   4.8442420e-01	
   9.4490000e+01	   1.7214021e-01	   3.2060293e-01	
   9.4545000e+01	  -7.7136433e-02	   4.8789476e-03	
   9.4600000e+01	   1.2267823e+00	   4.8801591e-01	
   9.4655000e+01	   1.1961358e+00	   7.4999072e-01	
   9.4710000e+01	   8.3514967e-01	   5.8541898e-01	
   9.4765000e+01	   7.5053693e-01	   5.2684169e-01	
   9.4820000e+01	   1.1242167e+00	   7.6054174e-01	
   9.4875000e+01	   9.3481719e-01	   7.8360729e-01	
   9.4930000e+01	   5.4516926e-01	   7.0541405e-01	
   9.4985000e+01	   7.7414179e-01	   5.2322554e-01	
   9.5040000e+01	   9.1028682e-01	   7.6740095e-01	
   9.5095000e+01	   5.5871246e-01	   6.2517166e-01	
   9.5150000e+01	   5.8676077e-01	   3.4666260e-01	
   9.5205000e+01	   3.4533970e-01	   2.9005690e-01	
   9.5260000e+01	   3.8133804e-01	   3.6776309e-01	
   9.5315000e+01	   2.6110066e-01	   3.6279558e-01	
   9.5370000e+01	   1.8369084e-01	   2.1741964e-01	
   9.5425000e+01	   3.7856347e-01	   5.1957973e-01	
   9.5480000e+01	   5.2819307e-01	   7.3432906e-01	
   9.5535000e+01	   1.2592452e+00	   7.6190802e-01	
   9.5590000e+01	   7.7062540e-01	   6.4648150e-01	
   9.5645000e+01	   5.4228910e-01	   7.5616579e-01	
   9.5700000e+01	   8.6740036e-01	   9.1136863e-01	
   9.5755000e+01	   1.2238258e+00	   7.5094653e-01	
   9.5810000e+01	   4.8306627e-01	   6.6978171e-01	
   9.5865000e+01	   1.0056897e+00	   4.5573678e-01	
   9.5920000e+01	   9.7819835e-01	   4.9535556e-01	
   9.5975000e+01	   7.8059792e-01	   5.8156855e-01	
   9.6030000e+01	   4.1585173e-01	   3.4169347e-01	
   9.6085000e+01	   2.7422784e-01	   1.6769683e-01	
   9.6140000e+01	   2.3424174e-01	   4.3344009e-01	
   9.6195000e+01	   6.9170395e-01	   2.0149509e-01	
   9.6250000e+01	  -5.7937855e-01	  -1.2182279e-01	
   9.6305000e+01	   4.5977864e-01	   1.8221905e-01	
   9.6360000e+01	   8.4886054e-01	   7.3893673e-01	
   9.6415000e+01	   5.7405778e-01	   5.8051609e-01	
   9.6470000e+01	   6.8087931e-01	   6.6770173e-01	
   9.6525000e+01	   5.1534506e-01	   8.5153581e-01	
   9.6580000e+01	   1.2136596e+00	   6.9932561e-01	
   9.6635000e+01	   6.5616157e-01	   4.5310463e-01	
   9.6690000e+01	   4.1892759e-01	   4.1831390e-01	
   9.6745000e+01	   6.3910142e-01	   5.4917482e-01	
   9.6800000e+01	   4.7378247e-01	   3.5511454e-01	
   9.6855000e+01	   6.5892013e-01	   5.6253411e-01	
   9.6910000e+01	   4.3014815e-01	   3.1231351e-01	
   9.6965000e+01	   2.0447361e-01	   9.5145820e-02	
   9.7020000e+01	   4.0160613e-02	   7.0260599e-02	
   9.7075000e+01	   3.8092201e-01	   6.0068679e-02	
   9.7130000e+01	   2.2458450e-01	   2.7777443e-01	
   9.7185000e+01	   3.7745027e-01	   5.0852808e-01	
   9.7240000e+01	   1.0373642e+00	   5.7858408e-01	
   9.7295000e+01	   6.2878378e-01	   7.3615420e-01	
   9.7350000e+01	   6.8440641e-01	   6.3100610e-01	
   9.7405000e+01	   5.4094321e-01	   6.4384283e-01	
   9.7460000e+01	   6.7715964e-01	   6.3270570e-01	
   9.7515000e+01	   6.0049566e-01	   5.7359072e-01	
   9.7570000e+01	   9.2955969e-01	   2.4202623e-01	
   9.7625000e+01	   2.8258585e-01	   1.9564438e-01	
   9.7680000e+01	   7.4388487e-01	   5.8045583e-01	
   9.7735000e+01	   3.3860720e-01	   1.5842408e-01	
   9.7790000e+01	  -2.4577066e-02	  -6.0262871e-02	
   9.7845000e+01	   2.6407654e-01	   2.1370680e-01	
   9.7900000e+01	   1.1672653e+00	   2.3772294e-01	
   9.7955000e+01	   8.3983890e-01	   4.2910253e-01	
   9.8010000e+01	   3.4708495e-01	   6.9444389e-01	
   9.8065000e+01	   3.8057792e-01	   7.2480479e-01	
   9.8120000e+01	   4.9414716e-01	   8.2957636e-01	
   9.8175000e+01	   6.2427033e-01	   6.7196762e-01	
   9.8230000e+01	   4.0935732e-01	   6.0072512e-01	
   9.8285000e+01	   5.8763336e-01	   5.6116591e-01	
   9.8340000e+01	   5.9666137e-01	   6.3764503e-01	
   9.8395000e+01	   3.5070946e-01	   3.4302794e-01	
   9.8450000e+01	   1.4272453e-01	   2.9134374e-01	
   9.8505000e+01	   9.1151353e-01	   3.9722988e-01	
   9.8560000e+01	  -3.0048905e-02	   2.4227312e-01	
   9.8615000e+01	  -1.4184999e-01	   1.4115309e-01	
   9.8670000e+01	   1.2021046e-01	   1.9563633e-01	
   9.8725000e+01	   6.4962435e-01	   5.9478944e-01	
   9.8780000e+01	   1.1522809e+00	   7.6649625e-01	
   9.8835000e+01	   3.5900925e-01	   6.1791487e-01	
   9.8890000e+01	   7.6937729e-01	   4.3225676e-01	
   9.8945000e+01	   1.0952811e+00	   6.3739301e-01	
   9.9000000e+01	   2.5153783e-01	   8.7848326e-01	
   9.9055000e+01	   7.2774698e-01	   5.7149813e-01	
   9.9110000e+01	   3.3292215e-01	   5.2298539e-01	
   9.9165000e+01	   3.4162034e-01	   5.9117658e-01	
   9.9220000e+01	   8.3212016e-01	   6.8433375e-01	
   9.9275000e+01	   3.7526638e-01	   1.9660814e-01	
   9.9330000e+01	   4.0574315e-01	   3.8885585e-01	
   9.9385000e+01	   1.6028944e-01	   3.0291394e-01	
   9.9440000e+01	   3.4191454e-01	   2.2227265e-01	
   9.9495000e+01	   6.0161362e-01	   5.7334506e-01	
   9.9550000e+01	   7.5518689e-01	   6.2298499e-01	
   9.9605000e+01	   1.0683500e+00	   6.6635292e-01	
   9.9660000e+01	   1.0789616e+00	   1.2301086e+00	
   9.9715000e+01	   1.0088068e+00	   8.3894028e-01	
   9.9770000e+01	   5.7864192e-01	   5.9695463e-01	
   9.9825000e+01	   6.5401747e-01	   9.8182225e-01	
   9.9880000e+01	   5.0037006e-01	   7.2324325e-01	
   9.9935000e+01	   7.8279785e-01	   6.8747030e-01	
   9.9990000e+01	   5.0935810e-01	   4.7439080e-01	
   1.0004500e+02	   3.4414235e-01	   6.4089908e-01	
   1.0010000e+02	   6.6702491e-01	   4.1009305e-01	
   1.0015500e+02	   3.0558617e-01	   3.0060150e-01	
   1.0021000e+02	   4.0852568e-02	   4.1562969e-01	
   1.0026500e+02	   1.0645605e+00	   6.0380501e-01	
   1.0032000e+02	   1.0879686e+00	   6.0020712e-01	
   1.0037500e+02	   8.0354339e-01	   8.5939350e-01	
   1.0043000e+02	   1.2262422e+00	   7.3154977e-01	
   1.0048500e+02	   1.5603059e+00	   8.8956486e-01	
   1.0054000e+02	   1.5423750e+00	   9.8517776e-01	
   1.0059500e+02	   1.4798758e+00	   7.8547326e-01	
   1.0065000e+02	   1.3447385e+00	   7.9255449e-01	
   1.0070500e+02	   1.5452530e+00	   7.9832902e-01	
   1.0076000e+02	   1.2894825e+00	   5.4775306e-01	
   1.0081500e+02	   1.2381544e+00	   4.5382359e-01	
   1.0087000e+02	   1.3240039e+00	   4.7566857e-01	
   1.0092500e+02	   9.5137783e-01	   5.4428302e-01	
   1.0098000e+02	   6.8288779e-01	   3.5473674e-01	
   1.0103500e+02	   9.2825715e-01	   5.4671949e-01	
   1.0109000e+02	   1.1126650e+00	   7.8454746e-01	
   1.0114500e+02	   9.8821999e-01	   8.4283800e-01	
   1.0120000e+02	   1.2882018e+00	   9.4420345e-01	
   1.0125500e+02	   1.3865116e+00	   9.5249948e-01	
   1.0131000e+02	   1.2492496e+00	   8.3735761e-01	
   1.0136500e+02	   1.3226279e+00	   1.0680959e+00	
   1.0142000e+02	   1.9394042e+00	   8.4265112e-01	
   1.0147500e+02	   1.0834653e+00	   6.7779331e-01	
   1.0153000e+02	   9.5113601e-01	   6.5124887e-01	
   1.0158500e+02	   1.2743426e+00	   7.9797221e-01	
   1.0164000e+02	   1.0924700e+00	   6.0991051e-01	
   1.0169500e+02	   5.3254911e-01	   3.9456831e-01	
   1.0175000e+02	   7.8592016e-01	   5.5903504e-01	
   1.0180500e+02	   1.5511390e+00	   6.6465465e-01	
   1.0186000e+02	   1.7212327e+00	   9.4309328e-01	
   1.0191500e+02	   1.3816993e+00	   7.9246947e-01	
   1.0197000e+02	   1.4890742e+00	   9.5070869e-01	
   1.0202500e+02	   1.8046386e+00	   1.0299639e+00	
   1.0208000e+02	   1.5268264e+00	   8.8225190e-01	
   1.0213500e+02	   1.1670393e+00	   9.5316419e-01	
   1.0219000e+02	   1.0196400e+00	   8.9595798e-01	
   1.0224500e+02	   1.3201654e+00	   8.5032524e-01	
   1.0230000e+02	   7.2439649e-01	   7.6264091e-01	
   1.0235500e+02	   8.6721741e-01	   6.2758929e-01	
   1.0241000e+02	   8.7275611e-01	   6.8105574e-01	
   1.0246500e+02	   7.0807493e-01	   5.8692795e-01	
   1.0252000e+02	   6.1009268e-01	   4.2416430e-01	
   1.0257500e+02	   3.7007209e-01	   3.2974174e-01	
   1.0263000e+02	   9.8668803e-01	   9.0881410e-01	
   1.0268500e+02	   1.2460748e+00	   9.6003669e-01	
   1.0274000e+02	   9.9763737e-01	   9.5098342e-01	
   1.0279500e+02	   1.2826378e+00	   7.4476231e-01	
   1.0285000e+02	   1.3071181e+00	   1.0909699e+00	
   1.0290500e+02	   1.6549217e+00	   1.0161955e+00	
   1.0296000e+02	   1.6494631e+00	   1.0569813e+00	
   1.0301500e+02	   8.7468309e-01	   7.3404080e-01	
   1.0307000e+02	   8.9935475e-01	   9.7290180e-01	
   1.0312500e+02	   9.2536505e-01	   7.1063737e-01	
   1.0318000e+02	   1.0028857e+00	   6.2339812e-01	
   1.0323500e+02	   1.0227784e+00	   4.0908665e-01	
   1.0329000e+02	   1.1496158e+00	   5.7355212e-01	
   1.0334500e+02	   8.4889587e-01	   4.0903823e-01	
   1.0340000e+02	   6.4058382e-01	   3.2049261e-01	
   1.0345500e+02	   1.1760676e+00	   4.1776424e-01	
   1.0351000e+02	   6.6187478e-01	   9.7336652e-01	
   1.0356500e+02	   1.4669090e+00	   9.7828925e-01	
   1.0362000e+02	   9.1149130e-01	   9.1758014e-01	
   1.0367500e+02	   1.2842155e+00	   9.2298987e-01	
   1.0373000e+02	   1.2202188e+00	   1.0451096e+00	
   1.0378500e+02	   1.1916220e+00	   6.8284264e-01	
   1.0384000e+02	   7.5893951e-01	   8.3689277e-01	
   1.0389500e+02	   8.7389786e-01	   5.2143826e-01	
   1.0395000e+02	   1.1692765e+00	   6.6590940e-01	
   1.0400500e+02	   9.8936549e-01	   5.8114570e-01	
   1.0406000e+02	   7.8740981e-01	   6.3770572e-01	
   1.0411500e+02	   8.9583003e-01	   2.1550897e-01	
   1.0417000e+02	   7.8237759e-01	   3.5492199e-01	
   1.0422500e+02	   1.2765644e+00	   6.5749635e-01	
   1.0428000e+02	   8.8573290e-01	   7.5752838e-01	
   1.0433500e+02	   9.3945190e-01	   6.5582335e-01	
   1.0439000e+02	   1.5778669e+00	   9.5832112e-01	
   1.0444500e+02	   1.4769285e+00	   6.4081035e-01	
   1.0450000e+02	   1.0865824e+00	   7.9447788e-01	
   1.0455500e+02	   9.1810789e-01	   5.0994963e-01	
   1.0461000e+02	   1.6554107e+00	   6.4030015e-01	
   1.0466500e+02	   9.2254291e-01	   6.8215551e-01	
   1.0472000e+02	   8.9134191e-01	   3.8081880e-01	
   1.0477500e+02	   1.1189555e+00	   4.8130706e-01	
   1.0483000e+02	   6.8044543e-01	   5.3367668e-01	
   1.0488500e+02	   9.5488569e-01	   5.0771200e-01	
   1.0494000e+02	   3.5337423e-01	   2.4422609e-01	
   1.0499500e+02	   5.7692968e-01	   5.7756828e-01	
   1.0505000e+02	   9.4538822e-01	   8.0444037e-01	
   1.0510500e+02	   1.0635897e+00	   6.6737182e-01	
   1.0516000e+02	   1.3946972e+00	   9.6510740e-01	
   1.0521500e+02	   1.0237205e+00	   5.7051669e-01	
   1.0527000e+02	   1.0178568e+00	   8.6479780e-01	
   1.0532500e+02	   8.5845693e-01	   6.1544110e-01	
   1.0538000e+02	   1.0847924e+00	   5.1193451e-01	
   1.0543500e+02	   1.0302681e+00	   6.5743169e-01	
   1.0549000e+02	   8.9997882e-01	   5.9793739e-01	
   1.0554500e+02	   7.3589928e-01	   5.7273452e-01	
   1.0560000e+02	   5.9271384e-01	   2.6355944e-01	
   1.0565500e+02	   7.2503693e-01	   4.4505693e-01	
   1.0571000e+02	   6.2114397e-01	   4.2466135e-01	
   1.0576500e+02	   4.9137710e-01	   1.1126938e-01	
   1.0582000e+02	   5.3848705e-01	   4.5247542e-01	
   1.0587500e+02	   9.3355725e-01	   6.0535022e-01	
   1.0593000e+02	   1.7600643e+00	   9.9886474e-01	
   1.0598500e+02	   9.8222157e-01	   7.0601497e-01	
   1.0604000e+02	   6.2651510e-01	   5.9181301e-01	
   1.0609500e+02	   7.2092665e-01	   5.5316522e-01	
   1.0615000e+02	   1.1655413e+00	   1.0270465e+00	
   1.0620500e+02	   1.3650080e+00	   6.2959110e-01	
   1.0626000e+02	   1.0736245e+00	   5.3630595e-01	
   1.0631500e+02	   9.6573944e-01	   5.7057350e-01	
   1.0637000e+02	   1.0688636e+00	   5.2778540e-01	
   1.0642500e+02	   9.7124123e-01	   5.5136948e-01	
   1.0648000e+02	   8.7541932e-01	   4.7788329e-01	
   1.0653500e+02	   8.6194657e-01	   4.5437155e-01	
   1.0659000e+02	   6.1325227e-01	   4.1594799e-01	
   1.0664500e+02	   2.1367400e-01	   1.6372799e-01	
   1.0670000e+02	   2.7569931e-01	  -4.1425241e-02	
   1.0675500e+02	   9.7933494e-01	   5.5207264e-01	
   1.0681000e+02	   9.8943370e-01	   8.0944263e-01	
   1.0686500e+02	   1.1586763e+00	   6.1273437e-01	
   1.0692000e+02	   1.1286750e+00	   5.7782746e-01	
   1.0697500e+02	   1.0352165e+00	   8.9304339e-01	
   1.0703000e+02	   1.0044463e+00	   7.8795423e-01	
   1.0708500e+02	   1.2928067e+00	   7.5301127e-01	
   1.0714000e+02	   1.1870881e+00	   6.3856612e-01	
   1.0719500e+02	   1.2501868e+00	   6.5347245e-01	
   1.0725000e+02	   9.2164461e-01	   5.4836607e-01	
   1.0730500e+02	   8.1135739e-01	   5.7680502e-01	
   1.0736000e+02	   9.9041611e-01	   2.2834054e-01	
   1.0741500e+02	   1.0075545e+00	   4.8309264e-01	
   1.0747000e+02	   8.9946305e-01	   1.6496148e-01	
   1.0752500e+02	   7.2092938e-01	  -9.2400598e-02	
   1.0758000e+02	   4.0228119e-01	  -6.2789024e-02	
   1.0763500e+02	   8.5989692e-01	   1.8021324e-01	
   1.0769000e+02	   1.1362205e+00	   4.6974068e-01	
   1.0774500e+02	   5.9536392e-01	   5.9417467e-01	
   1.0780000e+02	   8.7664187e-01	   4.6279867e-01	
   1.0785500e+02	   1.1468337e+00	   6.4248814e-01	
   1.0791000e+02	   1.0105176e+00	   4.4392410e-01	
   1.0796500e+02	   1.1854283e+00	   3.4114792e-01	
   1.0802000e+02	   9.4171944e-01	   4.5196747e-01	
   1.0807500e+02	   1.2087064e+00	   4.8160719e-01	
   1.0813000e+02	   9.7224701e-01	   3.6969362e-01	
   1.0818500e+02	   7.3613592e-01	   1.7056040e-01	
   1.0824000e+02	   2.2285908e-01	   3.7596119e-02	
   1.0829500e+02	   6.1208116e-01	   2.0819065e-01	
   1.0835000e+02	   6.0809623e-01	  -5.5898100e-02	
   1.0840500e+02	  -1.8898735e-01	  -1.7909076e-01	
   1.0846000e+02	   2.2574138e-01	   1.7846047e-02	
   1.0851500e+02	   7.1286838e-01	   3.4088679e-01	
   1.0857000e+02	   1.2287127e+00	   5.9412900e-01	
   1.0862500e+02	   8.7621006e-01	   2.8218696e-01	
   1.0868000e+02	   3.7490486e-01	   3.5511454e-01	
   1.0873500e+02	   6.0542530e-01	   2.8214986e-01	
   1.0879000e+02	   6.9116861e-01	   2.9108394e-01	
   1.0884500e+02	   3.1666827e-01	   1.1115758e-01	
   1.0890000e+02	   6.2520785e-01	   2.3731802e-01	
   1.0895500e+02	   6.9541159e-01	   3.4455106e-01	
   1.0901000e+02	   2.6198968e-01	   1.0289125e-01	
   1.0906500e+02	   5.4674576e-02	   1.5678392e-01	
   1.0912000e+02	   4.3121723e-01	  -1.2959106e-01	
   1.0917500e+02	   6.9926323e-01	  -3.6271570e-02	
   1.0923000e+02	  -1.5906047e-02	  -1.3600133e-01	
   1.0928500e+02	   2.2832852e-01	   3.0245111e-02	
   1.0934000e+02	   7.2012266e-01	   2.9345659e-01	
   1.0939500e+02	   7.9526212e-01	   2.7369959e-01	
   1.0945000e+02	   7.3146615e-01	   5.4538223e-01	
   1.0950500e+02	   3.4994031e-01	   2.6105039e-01	
   1.0956000e+02	   7.0513030e-01	   3.5289355e-01	
   1.0961500e+02	   6.9753388e-01	   4.3687444e-01	
   1.0967000e+02	   8.7684326e-01	   3.5252177e-01	
   1.0972500e+02	  -1.8155687e-02	   4.3808405e-02	
   1.0978000e+02	   6.8109363e-01	   2.1420283e-01	
   1.0983500e+02	   6.5780324e-01	   2.3351995e-01	
   1.0989000e+02	   3.9076671e-01	   8.2814840e-02	
   1.0994500e+02	   3.1514818e-01	  -1.6025594e-01	
   1.1000000e+02	   7.3670461e-01	   4.4085159e-02	
   1.1005500e+02	   8.4187037e-01	   1.5966445e-01	
   1.1011000e+02	   3.3985762e-01	   2.4406015e-01	
   1.1016500e+02	   9.0575812e-01	   2.1104569e-01	
   1.1022000e+02	   1.0373841e+00	   4.6679381e-01	
   1.1027500e+02	   1.0602149e+00	   6.4316421e-01	
   1.1033000e+02	   5.2700472e-01	   2.3220199e-01	
   1.1038500e+02	   9.0497642e-01	   5.2322554e-01	
   1.1044000e+02	   1.0535488e+00	   6.0817014e-01	
   1.1049500e+02	   1.2795003e+00	   7.0234822e-01	
   1.1055000e+02	   1.0210961e+00	   4.4567020e-01	
   1.1060500e+02	   8.4423879e-01	   3.6655989e-01	
   1.1066000e+02	   7.5611000e-01	   1.9028662e-01	
   1.1071500e+02	   4.8291973e-01	   3.3403696e-01	
   1.1077000e+02	   1.9432352e-01	   2.9451637e-01	
   1.1082500e+02	   5.1633132e-01	  -1.6819062e-01	
   1.1088000e+02	   7.5331385e-01	   1.2686078e-01	
   1.1093500e+02	   4.0448587e-01	   1.1229231e-01	
   1.1099000e+02	   1.2144331e+00	   1.5425339e-01	
   1.1104500e+02	   5.0085255e-01	   3.2929098e-01	
   1.1110000e+02	   1.3508873e+00	   7.5846720e-01	
   1.1115500e+02	   1.0491974e+00	   6.9644093e-01	
   1.1121000e+02	   1.2501487e+00	   5.5673781e-01	
   1.1126500e+02	   1.1129982e+00	   4.7262662e-01	
   1.1132000e+02	   1.6043255e+00	   7.2015218e-01	
   1.1137500e+02	   1.0281462e+00	   5.4262273e-01	
   1.1143000e+02	   8.7921574e-01	   3.0620500e-01	
   1.1148500e+02	   9.7302700e-01	   2.7855857e-01	
   1.1154000e+02	   6.0853804e-01	   4.4746193e-01	
   1.1159500e+02	   8.2896544e-01	   2.7099744e-01	
   1.1165000e+02	   6.4573398e-01	   1.5748438e-01	
   1.1170500e+02	   3.5415213e-01	   1.1140581e-01	
   1.1176000e+02	   9.8710991e-01	   2.4182870e-01	
   1.1181500e+02	   1.0634331e+00	   5.7202875e-01	
   1.1187000e+02	   7.4645963e-01	   6.2310141e-01	
   1.1192500e+02	   9.5290904e-01	   6.6377226e-01	
   1.1198000e+02	   9.7363658e-01	   6.6532806e-01	
   1.1203500e+02	   9.5585322e-01	   4.8562295e-01	
   1.1209000e+02	   1.2694971e+00	   5.8155356e-01	
   1.1214500e+02	   1.1687638e+00	   5.1664784e-01	
   1.1220000e+02	   1.0457845e+00	   5.0184028e-01	
   1.1225500e+02	   1.5441224e+00	   5.9213220e-01	
   1.1231000e+02	   1.0675436e+00	   3.0675207e-01	
   1.1236500e+02	   6.0479582e-01	   3.4003610e-01	
   1.1242000e+02	   1.0601229e+00	   9.5570099e-02	
   1.1247500e+02	   8.7925350e-01	   1.9955482e-01	
   1.1253000e+02	   9.3721100e-01	   2.6220056e-01	
   1.1258500e+02	   1.1280469e+00	   5.7386387e-01	
   1.1264000e+02	   1.3568340e+00	   6.8603709e-01	
   1.1269500e+02	   1.3104990e+00	   7.0902232e-01	
   1.1275000e+02	   1.0527459e+00	   5.3396492e-01	
   1.1280500e+02	   1.5570435e+00	   4.9132332e-01	
   1.1286000e+02	   9.6529686e-01	   7.9181225e-01	
   1.1291500e+02	   7.2030446e-01	   5.0719173e-01	
   1.1297000e+02	   5.5453008e-01	   2.9499079e-01	
   1.1302500e+02	   9.0959874e-01	   5.3160157e-01	
   1.1308000e+02	   1.0341303e+00	   3.9569723e-01	
   1.1313500e+02	   5.8832610e-01	   3.0397346e-01	
   1.1319000e+02	   7.8708548e-01	   1.5413035e-01	
   1.1324500e+02	   4.2876000e-01	   3.0566763e-02	
   1.1330000e+02	   1.1309482e+00	   5.8626551e-01	
   1.1335500e+02	   1.4972910e+00	   5.4877571e-01	
   1.1341000e+02	   1.1389184e+00	   7.5612771e-01	
   1.1346500e+02	   1.1332265e+00	   7.5093847e-01	
   1.1352000e+02	   1.6338815e+00	   7.0129223e-01	
   1.1357500e+02	   1.3754016e+00	   6.0981880e-01	
   1.1363000e+02	   1.1917692e+00	   6.8125109e-01	
   1.1368500e+02	   1.0657969e+00	   6.1306061e-01	
   1.1374000e+02	   1.4210075e+00	   6.5357022e-01	
   1.1379500e+02	   9.2841632e-01	   4.0908665e-01	
   1.1385000e+02	   1.2203843e+00	   3.2779146e-01	
   1.1390500e+02	   6.6639708e-01	   3.9824863e-01	
   1.1396000e+02	   1.5147087e+00	   4.7544168e-01	
   1.1401500e+02	   1.0237135e+00	   2.5913606e-01	
   1.1407000e+02	   9.0327516e-01	   2.3109886e-01	
   1.1412500e+02	   1.0960152e+00	   5.1795869e-01	
   1.1418000e+02	   1.5430790e+00	   9.2793409e-01	
   1.1423500e+02	   1.3991880e+00	   7.4003373e-01	
   1.1429000e+02	   1.3771170e+00	   6.6350116e-01	
   1.1434500e+02	   1.5955707e+00	   8.4881690e-01	
   1.1440000e+02	   1.8756121e+00	   9.1871490e-01	
   1.1445500e+02	   1.4540027e+00	   7.5757701e-01	
   1.1451000e+02	   1.4230624e+00	   6.6052658e-01	
   1.1456500e+02	   1.6628650e+00	   9.6925677e-01	
   1.1462000e+02	   1.4782599e+00	   5.7329935e-01	
   1.1467500e+02	   1.2509570e+00	   4.5902720e-01	
   1.1473000e+02	   1.3061970e+00	   6.3343081e-01	
   1.1478500e+02	   1.2839937e+00	   4.7793463e-01	
   1.1484000e+02	   1.4892195e+00	   4.7225614e-01	
   1.1489500e+02	   8.3215561e-01	   3.3629742e-01	
   1.1495000e+02	   5.8874115e-01	  -1.7339909e-02	
   1.1500500e+02	   1.3642996e+00	   3.6518849e-01	
   1.1506000e+02	   1.1607582e+00	   5.7923051e-01	
   1.1511500e+02	   1.5734977e+00	   8.2028819e-01	
   1.1517000e+02	   1.3808140e+00	   7.2733551e-01	
   1.1522500e+02	   1.6645429e+00	   8.8360309e-01	
   1.1528000e+02	   2.0493364e+00	   1.0126467e+00	
   1.1533500e+02	   2.0995919e+00	   7.9950739e-01	
   1.1539000e+02	   1.1194562e+00	   4.5768943e-01	
   1.1544500e+02	   1.4595990e+00	   7.8904368e-01	
   1.1550000e+02	   1.8080565e+00	   8.7054524e-01	
   1.1555500e+02	   1.4036249e+00	   5.1751550e-01	
   1.1561000e+02	   1.5470725e+00	   4.7910895e-01	
   1.1566500e+02	   1.4718903e+00	   5.4538223e-01	
   1.1572000e+02	   1.1572996e+00	   3.9040250e-01	
   1.1577500e+02	   9.5369632e-01	   4.1416710e-01	
   1.1583000e+02	   7.5485923e-01	   2.2931931e-01	
   1.1588500e+02	   9.9689778e-01	   3.0418220e-01	
   1.1594000e+02	   1.6020675e+00	   4.5147221e-01	
   1.1599500e+02	   9.7018588e-01	   6.1079696e-01	
   1.1605000e+02	   1.3016990e+00	   8.1074515e-01	
   1.1610500e+02	   1.5394879e+00	   7.6968623e-01	
   1.1616000e+02	   1.4443832e+00	   5.8316507e-01	
   1.1621500e+02	   1.4662858e+00	   7.1801395e-01	
   1.1627000e+02	   1.6465883e+00	   7.7099519e-01	
   1.1632500e+02	   1.2891367e+00	   5.9657088e-01	
   1.1638000e+02	   1.1207416e+00	   7.5597486e-01	
   1.1643500e+02	   1.7807677e+00	   6.3996407e-01	
   1.1649000e+02	   1.3124953e+00	   5.5264315e-01	
   1.1654500e+02	   9.6345644e-01	   4.8977477e-01	
   1.1660000e+02	   1.2152210e+00	   2.2671982e-01	
   1.1665500e+02	   8.2993947e-01	   9.9704162e-02	
   1.1671000e+02	   7.5973544e-01	   1.6608574e-01	
   1.1676500e+02	   1.5410648e+00	   5.6626866e-01	
   1.1682000e+02	   9.3327761e-01	   7.6511278e-01	
   1.1687500e+02	   1.3446348e+00	   6.5670056e-01	
   1.1693000e+02	   1.3531848e+00	   5.9260933e-01	
   1.1698500e+02	   1.3752852e+00	   8.9600062e-01	
   1.1704000e+02	   1.4278296e+00	   7.6046794e-01	
   1.1709500e+02	   1.2892334e+00	   5.3400495e-01	
   1.1715000e+02	   9.5603113e-01	   4.2688457e-01	
   1.1720500e+02	   9.7088640e-01	   4.2046500e-01	
   1.1726000e+02	   1.3635870e+00	   4.8489527e-01	
   1.1731500e+02	   8.3646935e-01	   2.5323541e-01	
   1.1737000e+02	   7.5480614e-01	   1.4435531e-01	
   1.1742500e+02	   7.8592712e-01	   1.6608574e-01	
   1.1748000e+02	   7.8708109e-01	   2.7252495e-01	
   1.1753500e+02	   1.2654050e+00	   5.1811862e-01	
   1.1759000e+02	   1.3446740e+00	   6.8222865e-01	
   1.1764500e+02	   1.2952452e+00	   7.5307850e-01	
   1.1770000e+02	   8.5278547e-01	   5.6563861e-01	
   1.1775500e+02	   8.5612496e-01	   4.9571435e-01	
   1.1781000e+02	   9.9343153e-01	   5.2348621e-01	
   1.1786500e+02	   1.1044604e+00	   5.9831053e-01	
   1.1792000e+02	   1.2283823e+00	   6.8304237e-01	
   1.1797500e+02	   6.5631608e-01	   2.0192854e-01	
   1.1803000e+02	   6.0464119e-01	   2.4606567e-01	
   1.1808500e+02	   1.0722635e+00	   4.7724834e-01	
   1.1814000e+02	   7.0227570e-01	   2.0461211e-01	
   1.1819500e+02	  -3.6368922e-02	   5.9702031e-02	
   1.1825000e+02	   6.5892653e-01	   2.1434274e-01	
   1.1830500e+02	   1.1212284e+00	   7.0757239e-01	
   1.1836000e+02	   1.1761677e+00	   7.8665530e-01	
   1.1841500e+02	   1.6918861e+00	   5.7030951e-01	
   1.1847000e+02	   1.7720436e+00	   7.1952013e-01	
   1.1852500e+02	   1.5168448e+00	   8.1990989e-01	
   1.1858000e+02	   1.7784732e+00	   7.4433610e-01	
   1.1863500e+02	   1.3692597e+00	   7.0438184e-01	
   1.1869000e+02	   1.6845734e+00	   5.2289735e-01	
   1.1874500e+02	   1.1102928e+00	   5.7329935e-01	
   1.1880000e+02	   1.4860495e+00	   4.2123238e-01	
   1.1885500e+02	   1.0977663e+00	   4.1870605e-01	
   1.1891000e+02	   9.0162828e-01	   3.6145310e-01	
   1.1896500e+02	   1.1645585e+00	   4.9467095e-01	
   1.1902000e+02	   1.1744394e+00	   1.8711608e-01	
   1.1907500e+02	   1.1344928e+00	   3.5163745e-01	
   1.1913000e+02	   1.0630290e+00	   6.4302190e-01	
   1.1918500e+02	   1.5488411e+00	   8.2728483e-01	
   1.1924000e+02	   1.7085976e+00	   8.6536517e-01	
   1.1929500e+02	   1.3855093e+00	   5.4167969e-01	
   1.1935000e+02	   1.4518936e+00	   7.3304335e-01	
   1.1940500e+02	   1.7669827e+00	   8.7501505e-01	
   1.1946000e+02	   1.5275367e+00	   6.7579169e-01	
   1.1951500e+02	   1.5643386e+00	   5.0076602e-01	
   1.1957000e+02	   1.4106399e+00	   5.9558089e-01	
   1.1962500e+02	   1.2839900e+00	   5.7942352e-01	
   1.1968000e+02	   9.8384003e-01	   4.9646360e-01	
   1.1973500e+02	   1.0079120e+00	   2.9850239e-01	
   1.1979000e+02	   1.0974702e+00	   4.2625226e-01	
   1.1984500e+02	   1.1363079e+00	   3.5724083e-01	
   1.1990000e+02	   2.9615323e-01	  -7.9106809e-02	
   1.1995500e+02	   1.0694278e+00	   4.4308049e-01	
   1.2001000e+02	   7.6415349e-01	   6.4388936e-01	
   1.2006500e+02	   1.2454059e+00	   8.5566616e-01	
   1.2012000e+02	   7.4992759e-01	   4.9413548e-01	
   1.2017500e+02	   1.1780026e+00	   9.6028303e-01	
   1.2023000e+02	   6.0499665e-01	   6.5218492e-01	
   1.2028500e+02	   1.0826973e+00	   8.4592108e-01	
   1.2034000e+02	   1.1067992e+00	   7.6289401e-01	
   1.2039500e+02	   1.6111467e+00	   5.9058383e-01	
   1.2045000e+02	   1.3087183e+00	   7.8822114e-01	
   1.2050500e+02	   1.3226688e+00	   4.4661314e-01	
   1.2056000e+02	   1.1762383e+00	   4.5498179e-01	
   1.2061500e+02	   1.2000783e+00	   3.5378125e-01	
   1.2067000e+02	   1.0057048e+00	   2.8584654e-01	
   1.2072500e+02	   1.2828746e+00	   3.8544378e-01	
   1.2078000e+02	   1.3017025e+00	   4.2795278e-01	
   1.2083500e+02	   1.3030495e+00	   5.6138172e-01	
   1.2089000e+02	   1.1130368e+00	   6.5834802e-01	
   1.2094500e+02	   1.5428845e+00	   1.0084428e+00	
   1.2100000e+02	   1.7207279e+00	   6.6230783e-01	
   1.2105500e+02	   8.2623211e-01	   4.2829011e-01	
   1.2111000e+02	   9.7951581e-01	   7.3964326e-01	
   1.2116500e+02	   1.1482061e+00	   5.6552453e-01	
   1.2122000e+02	   8.7312224e-01	   6.0648675e-01	
   1.2127500e+02	   1.0309554e+00	   4.4387497e-01	
   1.2133000e+02	   5.3789619e-01	   3.6382861e-01	
   1.2138500e+02	   1.1980623e+00	   6.0447250e-01	
   1.2144000e+02	   8.3107568e-01	   2.8218696e-01	
   1.2149500e+02	   7.9922923e-01	   2.7408033e-01	
   1.2155000e+02	   5.4742781e-01	   2.3611914e-01	
   1.2160500e+02	   8.5760962e-01	   6.5418909e-01	
   1.2166000e+02	   1.3064941e+00	   6.7541603e-01	
   1.2171500e+02	   5.3614461e-01	   4.3536925e-01	
   1.2177000e+02	   6.5207606e-01	   5.4468831e-01	
   1.2182500e+02	   9.8873597e-01	   6.9391739e-01	
   1.2188000e+02	   1.1875601e+00	   7.6232736e-01	
   1.2193500e+02	   6.9445980e-01	   4.4406660e-01	
   1.2199000e+02	   1.0348824e+00	   5.7767656e-01	
   1.2204500e+02	   9.7800427e-01	   5.6959097e-01	
   1.2210000e+02	   7.7574272e-01	   1.2555454e-01	
   1.2215500e+02	   5.8824032e-01	   2.2993668e-01	
   1.2221000e+02	   7.9926430e-01	   3.5417992e-01	
   1.2226500e+02	   7.5840770e-01	   1.7903304e-01	
   1.2232000e+02	   7.2918018e-01	   3.3310038e-01	
   1.2237500e+02	   1.2048586e+00	   5.4565817e-01	
   1.2243000e+02	   1.4557365e+00	   7.1260891e-01	
   1.2248500e+02	   1.2062279e+00	   6.5692403e-01	
   1.2254000e+02	   9.4055401e-01	   5.1413570e-01	
   1.2259500e+02	   8.3441659e-01	   3.7398326e-01	
   1.2265000e+02	   1.1315006e+00	   5.2549208e-01	
   1.2270500e+02	   7.5884481e-01	   5.6399996e-01	
   1.2276000e+02	   8.3552732e-01	   2.5920887e-01	
   1.2281500e+02	   7.8524762e-01	   4.1096964e-01	
   1.2287000e+02	   8.8828350e-01	   2.9448852e-01	
   1.2292500e+02	   7.5084403e-01	   5.6518491e-02	
   1.2298000e+02	   5.0452953e-01	   1.5471570e-01	
   1.2303500e+02	   5.2414592e-01	   6.4011986e-02	
   1.2309000e+02	   9.1862137e-01	   4.6221879e-01	
   1.2314500e+02	   6.8586273e-01	   6.0406389e-01	
   1.2320000e+02	   1.0589318e+00	   6.0773932e-01	
   1.2325500e+02	   1.3809766e+00	   5.2281472e-01	
   1.2331000e+02	   1.5861814e+00	   6.4984046e-01	
   1.2336500e+02	   1.6148929e+00	   7.2652911e-01	
   1.2342000e+02	   1.7563354e+00	   7.5133355e-01	
   1.2347500e+02	   9.4696678e-01	   5.8935085e-01	
   1.2353000e+02	   1.1788917e+00	   6.1524371e-01	
   1.2358500e+02	   1.0356925e+00	   4.8061539e-01	
   1.2364000e+02	   4.4203487e-01	   1.8881909e-01	
   1.2369500e+02	   7.8725282e-01	   4.2600005e-01	
   1.2375000e+02	   9.7307760e-01	   4.5009367e-01	
   1.2380500e+02	   3.1008336e-01	   2.8850011e-01	
   1.2386000e+02	   5.1600022e-01	   6.4193025e-02	
   1.2391500e+02	   5.9265508e-01	   4.8949544e-01	
   1.2397000e+02	   7.4039579e-01	   6.5822268e-01	
   1.2402500e+02	   1.0640675e+00	   8.6540925e-01	
   1.2408000e+02	   1.0335377e+00	   5.9422368e-01	
   1.2413500e+02	   7.7645029e-01	   5.8228134e-01	
   1.2419000e+02	   1.2401520e+00	   6.7792766e-01	
   1.2424500e+02	   1.0738737e+00	   5.0489046e-01	
   1.2430000e+02	   1.1631222e+00	   6.7181427e-01	
   1.2435500e+02	   4.8642219e-01	   3.6949122e-01	
   1.2441000e+02	   6.1324227e-01	   4.8011972e-01	
   1.2446500e+02	   7.4386057e-01	   5.4406197e-01	
   1.2452000e+02	   4.2423660e-01	   2.9068172e-01	
   1.2457500e+02	   6.0463054e-01	   2.0667227e-01	
   1.2463000e+02	   3.3091597e-01	   2.1807625e-01	
   1.2468500e+02	   1.3896589e+00	   3.8523575e-01	
   1.2474000e+02	   7.5908886e-01	   2.8084379e-01	
   1.2479500e+02	   5.8559390e-01	   5.5573884e-01	
   1.2485000e+02	   1.0014975e+00	   9.3195450e-01	
   1.2490500e+02	   1.3607976e+00	   8.2756437e-01	
   1.2496000e+02	   1.1912410e+00	   5.8075289e-01	
   1.2501500e+02	   1.1751690e+00	   7.5360150e-01	
   1.2507000e+02	   1.1799150e+00	   8.2638105e-01	
   1.2512500e+02	   1.2502990e+00	   7.6510101e-01	
   1.2518000e+02	   1.0061697e+00	   5.4468831e-01	
   1.2523500e+02	   1.0383924e+00	   4.3907716e-01	
   1.2529000e+02	   1.3779552e+00	   5.3675782e-01	
   1.2534500e+02	   8.5563712e-01	   4.6487832e-01	
   1.2540000e+02	   1.1139073e+00	   4.1594997e-01	
   1.2545500e+02	   6.6209117e-01	   1.3896433e-01	
   1.2551000e+02	   6.7775376e-01	   4.1660287e-01	
   1.2556500e+02	   5.9470285e-01	   4.6226918e-01	
   1.2562000e+02	   6.6415503e-01	   5.5807542e-01	
   1.2567500e+02	   1.4075855e+00	   6.2478963e-01	
   1.2573000e+02	   1.2516612e+00	   5.9030327e-01	
   1.2578500e+02	   1.1604202e+00	   6.9296093e-01	
   1.2584000e+02	   1.0436911e+00	   4.2302162e-01	
   1.2589500e+02	   1.2479962e+00	   6.2626602e-01	
   1.2595000e+02	   1.1045774e+00	   5.5147232e-01	
   1.2600500e+02	   1.1013554e+00	   4.4233968e-01	
   1.2606000e+02	   7.0225118e-01	   3.2659337e-01	
   1.2611500e+02	   6.5779728e-01	   3.5448535e-01	
   1.2617000e+02	   7.1246989e-01	   3.2497610e-01	
   1.2622500e+02	   7.5090518e-01	   9.1496752e-02	
   1.2628000e+02	   8.4236441e-01	   4.7484068e-01	
   1.2633500e+02	   1.2901641e+00	   4.8744990e-01	
   1.2639000e+02	   9.6829468e-01	   8.5262854e-01	
   1.2644500e+02	   1.3994345e+00	   7.9274792e-01	
   1.2650000e+02	   1.1445608e+00	   6.2514330e-01	
   1.2655500e+02	   7.9305852e-01	   6.7237953e-01	
   1.2661000e+02	   1.2762386e+00	   6.5751924e-01	
   1.2666500e+02	   1.3977485e+00	   5.7804380e-01	
   1.2672000e+02	   1.1885896e+00	   4.9554800e-01	
   1.2677500e+02	   6.8497274e-01	   5.2788995e-01	
   1.2683000e+02	   9.6079532e-01	   5.8637000e-01	
