
0   5   7
   0.0000000e+00	   1.1798594e+00	   1.1759056e+00	
   5.5000000e-02	   1.2424840e+00	   1.2607863e+00	
   1.1000000e-01	   1.3009175e+00	   1.3609450e+00	
   1.6500000e-01	   1.3258338e+00	   1.3584377e+00	
   2.2000000e-01	   1.2359787e+00	   1.2233348e+00	
   2.7500000e-01	   8.7576774e-01	   1.0710659e+00	
   3.3000000e-01	   6.9545019e-01	   1.1374857e+00	
   3.8500000e-01	   6.2937649e-01	   1.0050559e+00	
   4.4000000e-01	   9.2776019e-01	   1.0809650e+00	
   4.9500000e-01	   9.2483263e-01	   9.3948755e-01	
   5.5000000e-01	   8.4153064e-01	   1.0424638e+00	
   6.0500000e-01	   1.1700900e+00	   1.3158312e+00	
   6.6000000e-01	   1.2212410e+00	   1.2885341e+00	
   7.1500000e-01	   1.1861773e+00	   1.3495675e+00	
   7.7000000e-01	   1.1595620e+00	   1.1625362e+00	
   8.2500000e-01	   1.4166063e+00	   1.5233171e+00	
   8.8000000e-01	   1.0314601e+00	   1.3029464e+00	
   9.3500000e-01	   1.0425046e+00	   1.1665086e+00	
   9.9000000e-01	   1.0440604e+00	   1.2285876e+00	
   1.0450000e+00	   9.2320892e-01	   1.2387536e+00	
   1.1000000e+00	   1.0906191e+00	   1.2526596e+00	
   1.1550000e+00	   8.7103885e-01	   1.0668758e+00	
   1.2100000e+00	   7.8390322e-01	   1.0702526e+00	
   1.2650000e+00	   1.4106444e+00	   1.4683052e+00	
   1.3200000e+00	   1.3971902e+00	   1.3417775e+00	
   1.3750000e+00	   1.3163507e+00	   1.2987562e+00	
   1.4300000e+00	   1.2649107e+00	   1.3839327e+00	
   1.4850000e+00	   1.5688148e+00	   1.5613676e+00	
   1.5400000e+00	   1.3173967e+00	   1.3780046e+00	
   1.5950000e+00	   1.0579094e+00	   1.3831614e+00	
   1.6500000e+00	   1.1172321e+00	   1.2198705e+00	
   1.7050000e+00	   1.0664494e+00	   1.4321938e+00	
   1.7600000e+00	   1.0730666e+00	   1.2611056e+00	
   1.8150000e+00	   8.7437179e-01	   1.1135538e+00	
   1.8700000e+00	   8.7619670e-01	   9.9452676e-01	
   1.9250000e+00	   1.2448153e+00	   1.1637090e+00	
   1.9800000e+00	   1.2500725e+00	   1.4037876e+00	
   2.0350000e+00	   1.3540061e+00	   1.3935370e+00	
   2.0900000e+00	   1.5707099e+00	   1.5960040e+00	
   2.1450000e+00	   1.8305535e+00	   1.6791307e+00	
   2.2000000e+00	   1.4125198e+00	   1.4671005e+00	
   2.2550000e+00	   1.3528572e+00	   1.4169008e+00	
   2.3100000e+00	   1.5785240e+00	   1.5019877e+00	
   2.3650000e+00	   1.4641811e+00	   1.4455718e+00	
   2.4200000e+00	   1.2096956e+00	   1.3262516e+00	
   2.4750000e+00	   1.1409231e+00	   1.2533220e+00	
   2.5300000e+00	   1.1194992e+00	   1.3593911e+00	
   2.5850000e+00	   1.0987722e+00	   1.1757528e+00	
   2.6400000e+00	   1.0453480e+00	   1.1936157e+00	
   2.6950000e+00	   8.8148625e-01	   9.1221653e-01	
   2.7500000e+00	   1.3126961e+00	   1.4894629e+00	
   2.8050000e+00	   1.7269612e+00	   1.6074700e+00	
   2.8600000e+00	   1.7043173e+00	   1.6303459e+00	
   2.9150000e+00	   1.5660328e+00	   1.5934376e+00	
   2.9700000e+00	   1.5218855e+00	   1.6708241e+00	
   3.0250000e+00	   1.5255107e+00	   1.5813536e+00	
   3.0800000e+00	   1.6733378e+00	   1.6958954e+00	
   3.1350000e+00	   1.3550714e+00	   1.3585808e+00	
   3.1900000e+00	   1.4519152e+00	   1.4364180e+00	
   3.2450000e+00	   1.5292738e+00	   1.5938095e+00	
   3.3000000e+00	   1.2701842e+00	   1.2780034e+00	
   3.3550000e+00	   9.7541631e-01	   1.2256891e+00	
   3.4100000e+00	   1.2101873e+00	   1.2347725e+00	
   3.4650000e+00	   1.2123552e+00	   1.2097769e+00	
   3.5200000e+00	   1.3734006e+00	   1.3029200e+00	
   3.5750000e+00	   1.4341850e+00	   1.3721655e+00	
   3.6300000e+00	   1.6490459e+00	   1.6653851e+00	
   3.6850000e+00	   1.5868650e+00	   1.6268246e+00	
   3.7400000e+00	   1.6159037e+00	   1.5377514e+00	
   3.7950000e+00	   1.6233152e+00	   1.4958522e+00	
   3.8500000e+00	   1.8278396e+00	   1.7428591e+00	
   3.9050000e+00	   1.8058544e+00	   1.4643676e+00	
   3.9600000e+00	   1.4928781e+00	   1.4246809e+00	
   4.0150000e+00	   1.3318787e+00	   1.3794452e+00	
   4.0700000e+00	   1.1942922e+00	   1.4109944e+00	
   4.1250000e+00	   1.4696449e+00	   1.3821316e+00	
   4.1800000e+00	   1.1633420e+00	   1.1899827e+00	
   4.2350000e+00	   1.3017183e+00	   1.1585349e+00	
   4.2900000e+00	   1.4534089e+00	   1.5080445e+00	
   4.3450000e+00	   1.6308548e+00	   1.5710654e+00	
   4.4000000e+00	   1.6129832e+00	   1.5040013e+00	
   4.4550000e+00	   1.6344117e+00	   1.3028490e+00	
   4.5100000e+00	   1.4304893e+00	   1.4535293e+00	
   4.5650000e+00	   1.6900150e+00	   1.5285354e+00	
   4.6200000e+00	   1.6846238e+00	   1.3166624e+00	
   4.6750000e+00	   1.5949480e+00	   1.4080090e+00	
   4.7300000e+00	   1.1888452e+00	   1.2915442e+00	
   4.7850000e+00	   1.5504021e+00	   1.2219740e+00	
   4.8400000e+00	   1.3351618e+00	   1.0430127e+00	
   4.8950000e+00	   1.1695588e+00	   1.0367790e+00	
   4.9500000e+00	   1.0903986e+00	   1.1438263e+00	
   5.0050000e+00	   1.5409675e+00	   1.3089170e+00	
   5.0600000e+00	   1.6474376e+00	   1.4529804e+00	
   5.1150000e+00	   1.5841938e+00	   1.3035848e+00	
   5.1700000e+00	   2.0182767e+00	   1.6140543e+00	
   5.2250000e+00	   1.7935520e+00	   1.6226878e+00	
   5.2800000e+00	   1.8506302e+00	   1.3659236e+00	
   5.3350000e+00	   1.4390976e+00	   1.2806693e+00	
   5.3900000e+00	   1.6677064e+00	   1.5450275e+00	
   5.4450000e+00	   1.7336030e+00	   1.4299383e+00	
   5.5000000e+00	   1.5818094e+00	   1.3861488e+00	
   5.5550000e+00	   1.4685746e+00	   1.1954419e+00	
   5.6100000e+00	   1.5819217e+00	   1.2545120e+00	
   5.6650000e+00	   1.4235973e+00	   1.1897465e+00	
   5.7200000e+00	   1.3275591e+00	   1.0383613e+00	
   5.7750000e+00	   1.3056971e+00	   9.4944387e-01	
   5.8300000e+00	   1.4289528e+00	   1.1695473e+00	
   5.8850000e+00	   1.6019766e+00	   1.3911016e+00	
   5.9400000e+00	   1.8593534e+00	   1.3621656e+00	
   5.9950000e+00	   1.6799017e+00	   1.3550739e+00	
   6.0500000e+00	   1.9333126e+00	   1.3977833e+00	
   6.1050000e+00	   1.8699140e+00	   1.5383330e+00	
   6.1600000e+00	   1.9150719e+00	   1.3376721e+00	
   6.2150000e+00	   1.4873366e+00	   1.2818173e+00	
   6.2700000e+00	   1.7831990e+00	   1.3774405e+00	
   6.3250000e+00	   1.5699726e+00	   1.2473976e+00	
   6.3800000e+00	   1.5349592e+00	   1.0188287e+00	
   6.4350000e+00	   1.4001382e+00	   1.1058616e+00	
   6.4900000e+00	   1.5433434e+00	   1.2382215e+00	
   6.5450000e+00	   1.5908255e+00	   1.1411359e+00	
   6.6000000e+00	   1.2782034e+00	   8.6967450e-01	
   6.6550000e+00	   1.2757193e+00	   8.8141263e-01	
   6.7100000e+00	   1.8037912e+00	   1.2059918e+00	
   6.7650000e+00	   2.0023881e+00	   1.2999041e+00	
   6.8200000e+00	   1.9549758e+00	   1.3339194e+00	
   6.8750000e+00	   1.7570204e+00	   1.2844214e+00	
   6.9300000e+00	   1.8654636e+00	   1.3765190e+00	
   6.9850000e+00	   1.9179785e+00	   1.4229262e+00	
   7.0400000e+00	   1.9346042e+00	   1.2813648e+00	
   7.0950000e+00	   1.9152088e+00	   1.2261522e+00	
   7.1500000e+00	   1.6200418e+00	   1.1591560e+00	
   7.2050000e+00	   1.8359721e+00	   1.2635734e+00	
   7.2600000e+00	   1.6950712e+00	   1.1511526e+00	
   7.3150000e+00	   1.6125038e+00	   9.7965809e-01	
   7.3700000e+00	   1.2672735e+00	   9.5283945e-01	
   7.4250000e+00	   1.8188032e+00	   9.0632404e-01	
   7.4800000e+00	   1.1052104e+00	   7.5624155e-01	
   7.5350000e+00	   1.5939220e+00	   1.1079531e+00	
   7.5900000e+00	   1.6054317e+00	   1.2805935e+00	
   7.6450000e+00	   1.6627059e+00	   1.1983000e+00	
   7.7000000e+00	   1.5445568e+00	   1.1973708e+00	
   7.7550000e+00	   1.9115150e+00	   1.2325297e+00	
   7.8100000e+00	   1.5296182e+00	   1.1624474e+00	
   7.8650000e+00	   1.6829406e+00	   1.1783288e+00	
   7.9200000e+00	   1.3429881e+00	   1.0568202e+00	
   7.9750000e+00	   1.3162225e+00	   9.3056462e-01	
   8.0300000e+00	   1.4397170e+00	   1.0830406e+00	
   8.0850000e+00	   1.4161479e+00	   9.9056483e-01	
   8.1400000e+00	   9.7047512e-01	   7.1275127e-01	
   8.1950000e+00	   1.2026592e+00	   7.8793559e-01	
   8.2500000e+00	   1.2555588e+00	   1.0750657e+00	
   8.3050000e+00	   1.7662555e+00	   1.2775699e+00	
   8.3600000e+00	   1.6671976e+00	   1.1893148e+00	
   8.4150000e+00	   1.6628973e+00	   1.1078425e+00	
   8.4700000e+00	   1.4573486e+00	   1.0861450e+00	
   8.5250000e+00	   1.6815238e+00	   1.2554707e+00	
   8.5800000e+00	   1.4371057e+00	   9.3882410e-01	
   8.6350000e+00	   1.5133284e+00	   1.0585832e+00	
   8.6900000e+00	   1.2197688e+00	   9.4780863e-01	
   8.7450000e+00	   1.2979043e+00	   1.0596131e+00	
   8.8000000e+00	   1.4208314e+00	   9.7155451e-01	
   8.8550000e+00	   1.3584772e+00	   9.0614524e-01	
   8.9100000e+00	   1.4782910e+00	   1.0624676e+00	
   8.9650000e+00	   1.7895259e+00	   1.3292906e+00	
   9.0200000e+00	   1.5466576e+00	   1.1570470e+00	
   9.0750000e+00	   1.7358369e+00	   1.3465957e+00	
   9.1300000e+00	   1.8141196e+00	   1.3236846e+00	
   9.1850000e+00	   1.7748275e+00	   1.4675401e+00	
   9.2400000e+00	   1.7627794e+00	   1.2045676e+00	
   9.2950000e+00	   1.5629014e+00	   1.2152176e+00	
   9.3500000e+00	   1.4493536e+00	   1.3700245e+00	
   9.4050000e+00	   1.5357675e+00	   1.3285658e+00	
   9.4600000e+00	   1.4682288e+00	   1.1588231e+00	
   9.5150000e+00	   1.2898862e+00	   1.0479491e+00	
   9.5700000e+00	   1.1133429e+00	   1.0218873e+00	
   9.6250000e+00	   1.6476556e+00	   1.1586050e+00	
   9.6800000e+00	   1.4903630e+00	   1.1924459e+00	
   9.7350000e+00	   1.8652736e+00	   1.3826465e+00	
   9.7900000e+00	   2.1950775e+00	   1.4640569e+00	
   9.8450000e+00	   2.0732360e+00	   1.6715906e+00	
   9.9000000e+00	   1.9206942e+00	   1.5666514e+00	
   9.9550000e+00	   2.0033007e+00	   1.4344733e+00	
   1.0010000e+01	   1.7005768e+00	   1.5461618e+00	
   1.0065000e+01	   1.7606377e+00	   1.5409390e+00	
   1.0120000e+01	   1.7830496e+00	   1.1993674e+00	
   1.0175000e+01	   1.6724932e+00	   1.2847851e+00	
   1.0230000e+01	   1.4458167e+00	   1.2388606e+00	
   1.0285000e+01	   1.7255086e+00	   1.3098435e+00	
   1.0340000e+01	   1.6566847e+00	   1.2495666e+00	
   1.0395000e+01	   1.5730437e+00	   1.2020546e+00	
   1.0450000e+01	   1.7542110e+00	   1.1975513e+00	
   1.0505000e+01	   2.0066485e+00	   1.3846573e+00	
   1.0560000e+01	   2.1428460e+00	   1.4983193e+00	
   1.0615000e+01	   2.1390310e+00	   1.5904619e+00	
   1.0670000e+01	   2.1651497e+00	   1.6093350e+00	
   1.0725000e+01	   2.0613219e+00	   1.6259407e+00	
   1.0780000e+01	   2.1004347e+00	   1.7034526e+00	
   1.0835000e+01	   1.7451120e+00	   1.3907094e+00	
   1.0890000e+01	   1.7601244e+00	   1.4489366e+00	
   1.0945000e+01	   1.8777905e+00	   1.5391887e+00	
   1.1000000e+01	   1.8726934e+00	   1.4474971e+00	
   1.1055000e+01	   1.7577547e+00	   1.3165833e+00	
   1.1110000e+01	   1.6670522e+00	   1.3035722e+00	
   1.1165000e+01	   1.6683334e+00	   1.3801382e+00	
   1.1220000e+01	   1.7117023e+00	   1.1771246e+00	
   1.1275000e+01	   1.6425053e+00	   1.1525266e+00	
   1.1330000e+01	   1.8858013e+00	   1.3849616e+00	
   1.1385000e+01	   2.2166381e+00	   1.6897505e+00	
   1.1440000e+01	   2.3477223e+00	   1.5279681e+00	
   1.1495000e+01	   2.2206516e+00	   1.4362849e+00	
   1.1550000e+01	   1.9496956e+00	   1.4867390e+00	
   1.1605000e+01	   2.3721205e+00	   1.7598139e+00	
   1.1660000e+01	   2.2391804e+00	   1.5360907e+00	
   1.1715000e+01	   1.8304956e+00	   1.3698851e+00	
   1.1770000e+01	   2.0212048e+00	   1.4391874e+00	
   1.1825000e+01	   1.9821295e+00	   1.5097844e+00	
   1.1880000e+01	   1.9900335e+00	   1.4506832e+00	
   1.1935000e+01	   1.5623019e+00	   1.1936433e+00	
   1.1990000e+01	   1.6617184e+00	   1.2404932e+00	
   1.2045000e+01	   1.6372699e+00	   1.2891677e+00	
   1.2100000e+01	   1.6956616e+00	   1.2541720e+00	
   1.2155000e+01	   1.9295197e+00	   1.2359489e+00	
   1.2210000e+01	   1.9526526e+00	   1.3866371e+00	
   1.2265000e+01	   2.0564754e+00	   1.4993408e+00	
   1.2320000e+01	   2.1930580e+00	   1.4951445e+00	
   1.2375000e+01	   1.7229614e+00	   1.3732370e+00	
   1.2430000e+01	   1.9956834e+00	   1.4169040e+00	
   1.2485000e+01	   2.1098346e+00	   1.4899644e+00	
   1.2540000e+01	   2.0457166e+00	   1.3065787e+00	
   1.2595000e+01	   1.7000341e+00	   1.0274255e+00	
   1.2650000e+01	   1.9690139e+00	   1.3046935e+00	
   1.2705000e+01	   2.0744604e+00	   1.3736111e+00	
   1.2760000e+01	   1.4440590e+00	   1.0335347e+00	
   1.2815000e+01	   1.2683219e+00	   8.5724727e-01	
   1.2870000e+01	   1.5534935e+00	   1.1112928e+00	
   1.2925000e+01	   1.9463827e+00	   1.2991389e+00	
   1.2980000e+01	   1.9024783e+00	   1.3428541e+00	
   1.3035000e+01	   1.8901497e+00	   1.3234844e+00	
   1.3090000e+01	   2.1942672e+00	   1.3619046e+00	
   1.3145000e+01	   2.0245280e+00	   1.2458817e+00	
   1.3200000e+01	   2.1038885e+00	   1.4019460e+00	
   1.3255000e+01	   1.8389037e+00	   1.0735345e+00	
   1.3310000e+01	   1.5951022e+00	   1.1478626e+00	
   1.3365000e+01	   1.9403186e+00	   1.1400020e+00	
   1.3420000e+01	   1.7269811e+00	   1.0843980e+00	
   1.3475000e+01	   1.4848741e+00	   9.5936835e-01	
   1.3530000e+01	   1.4591579e+00	   8.4852563e-01	
   1.3585000e+01	   1.5643826e+00	   1.0293909e+00	
   1.3640000e+01	   1.9553115e+00	   1.1073145e+00	
   1.3695000e+01	   1.9360344e+00	   1.1974720e+00	
   1.3750000e+01	   1.9828602e+00	   1.2331742e+00	
   1.3805000e+01	   2.3917147e+00	   1.4782666e+00	
   1.3860000e+01	   2.1503256e+00	   1.3222781e+00	
   1.3915000e+01	   1.9137704e+00	   1.2269429e+00	
   1.3970000e+01	   2.0766706e+00	   1.3113677e+00	
   1.4025000e+01	   2.0545545e+00	   1.3276236e+00	
   1.4080000e+01	   1.8310587e+00	   1.2081623e+00	
   1.4135000e+01	   1.7496956e+00	   1.1024316e+00	
   1.4190000e+01	   1.5670545e+00	   1.0005333e+00	
   1.4245000e+01	   1.8194450e+00	   1.2572217e+00	
   1.4300000e+01	   1.6861415e+00	   9.5858009e-01	
   1.4355000e+01	   1.7194499e+00	   9.6177182e-01	
   1.4410000e+01	   1.3533997e+00	   8.5565042e-01	
   1.4465000e+01	   1.7159671e+00	   1.1122178e+00	
   1.4520000e+01	   1.9805937e+00	   1.2255658e+00	
   1.4575000e+01	   2.0757215e+00	   1.2299078e+00	
   1.4630000e+01	   2.1042988e+00	   1.3568120e+00	
   1.4685000e+01	   1.9823630e+00	   1.3016217e+00	
   1.4740000e+01	   1.9785220e+00	   1.3030272e+00	
   1.4795000e+01	   1.9214829e+00	   1.2052799e+00	
   1.4850000e+01	   1.8257484e+00	   1.2228558e+00	
   1.4905000e+01	   1.8958970e+00	   1.2901909e+00	
   1.4960000e+01	   1.7781282e+00	   1.1638350e+00	
   1.5015000e+01	   1.5664488e+00	   9.0083617e-01	
   1.5070000e+01	   1.3964561e+00	   9.2280216e-01	
   1.5125000e+01	   1.5618233e+00	   1.1034173e+00	
   1.5180000e+01	   1.6863277e+00	   1.0324233e+00	
   1.5235000e+01	   1.5083427e+00	   8.3408064e-01	
   1.5290000e+01	   1.4928065e+00	   1.0592824e+00	
   1.5345000e+01	   1.9106511e+00	   1.1777273e+00	
   1.5400000e+01	   1.7873926e+00	   1.2434660e+00	
   1.5455000e+01	   1.8493962e+00	   1.1513909e+00	
   1.5510000e+01	   1.8445169e+00	   1.2826462e+00	
   1.5565000e+01	   2.1218479e+00	   1.3922607e+00	
   1.5620000e+01	   2.0211585e+00	   1.3838807e+00	
   1.5675000e+01	   1.8056947e+00	   1.1226842e+00	
   1.5730000e+01	   1.7094065e+00	   1.1660233e+00	
   1.5785000e+01	   1.8160631e+00	   1.2517247e+00	
   1.5840000e+01	   1.7021249e+00	   1.1627875e+00	
   1.5895000e+01	   1.4730593e+00	   9.4746089e-01	
   1.5950000e+01	   1.3010589e+00	   9.2686076e-01	
   1.6005000e+01	   1.6056372e+00	   1.1109324e+00	
   1.6060000e+01	   1.1556941e+00	   8.2823539e-01	
   1.6115000e+01	   1.7010269e+00	   9.6475136e-01	
   1.6170000e+01	   1.4909562e+00	   1.0968910e+00	
   1.6225000e+01	   1.9429732e+00	   1.2581067e+00	
   1.6280000e+01	   1.9931585e+00	   1.2938072e+00	
   1.6335000e+01	   1.7229246e+00	   1.2503511e+00	
   1.6390000e+01	   1.7967855e+00	   1.3475762e+00	
   1.6445000e+01	   1.8406137e+00	   1.2818201e+00	
   1.6500000e+01	   1.6113388e+00	   1.0809432e+00	
   1.6555000e+01	   3.6022547e+00	   1.1615693e+00	
   1.6610000e+01	   3.3477615e+00	   1.1704847e+00	
   1.6665000e+01	   3.3438094e+00	   1.2719977e+00	
   1.6720000e+01	   3.0964659e+00	   1.0922006e+00	
   1.6775000e+01	   3.3350807e+00	   1.0088844e+00	
   1.6830000e+01	   2.9414288e+00	   9.3026685e-01	
   1.6885000e+01	   3.0240094e+00	   1.0478499e+00	
   1.6940000e+01	   3.4392040e+00	   1.2565012e+00	
   1.6995000e+01	   3.4524700e+00	   1.1325138e+00	
   1.7050000e+01	   3.2731039e+00	   1.2484030e+00	
   1.7105000e+01	   3.4758750e+00	   1.3590167e+00	
   1.7160000e+01	   3.4566896e+00	   1.2904953e+00	
   1.7215000e+01	   3.4161034e+00	   1.2495073e+00	
   1.7270000e+01	   3.0394683e+00	   1.1232118e+00	
   1.7325000e+01	   3.3309250e+00	   1.3823755e+00	
   1.7380000e+01	   3.2544962e+00	   1.1529439e+00	
   1.7435000e+01	   3.0682200e+00	   9.9114567e-01	
   1.7490000e+01	   2.9176496e+00	   1.0546758e+00	
   1.7545000e+01	   2.9684117e+00	   1.1110829e+00	
   1.7600000e+01	   3.0656332e+00	   9.0954354e-01	
   1.7655000e+01	   3.0009843e+00	   8.2573211e-01	
   1.7710000e+01	   3.1453363e+00	   1.1705303e+00	
   1.7765000e+01	   3.2697488e+00	   1.2124912e+00	
   1.7820000e+01	   3.4695235e+00	   1.2628707e+00	
   1.7875000e+01	   3.5390367e+00	   1.2042477e+00	
   1.7930000e+01	   3.3374525e+00	   1.2876121e+00	
   1.7985000e+01	   3.4175957e+00	   1.2544040e+00	
   1.8040000e+01	   3.4235723e+00	   1.2251519e+00	
   1.8095000e+01	   3.1030143e+00	   1.0129904e+00	
   1.8150000e+01	   3.0464161e+00	   9.9223491e-01	
   1.8205000e+01	   3.2385762e+00	   1.1003362e+00	
   1.8260000e+01	   3.0668923e+00	   1.1467163e+00	
   1.8315000e+01	   3.0413565e+00	   9.3427912e-01	
   1.8370000e+01	   2.6546630e+00	   7.0735165e-01	
   1.8425000e+01	   2.5941931e+00	   8.0711589e-01	
   1.8480000e+01	   2.6923791e+00	   9.9412713e-01	
   1.8535000e+01	   3.0664019e+00	   1.0537122e+00	
   1.8590000e+01	   3.1990506e+00	   1.0835760e+00	
   1.8645000e+01	   3.3739519e+00	   1.2926013e+00	
   1.8700000e+01	   3.2685458e+00	   1.1597852e+00	
   1.8755000e+01	   3.2906879e+00	   1.2582216e+00	
   1.8810000e+01	   3.2046027e+00	   1.1121575e+00	
   1.8865000e+01	   3.3486867e+00	   1.1821625e+00	
   1.8920000e+01	   3.4086594e+00	   1.1555406e+00	
   1.8975000e+01	   3.0053910e+00	   9.7466932e-01	
   1.9030000e+01	   3.2294851e+00	   9.5555036e-01	
   1.9085000e+01	   3.1217729e+00	   1.1218977e+00	
   1.9140000e+01	   2.7896659e+00	   7.8324434e-01	
   1.9195000e+01	   2.9326495e+00	   8.1726654e-01	
   1.9250000e+01	   2.6373338e+00	   6.6717489e-01	
   1.9305000e+01	   2.7769100e+00	   6.4470600e-01	
   1.9360000e+01	   3.0899100e+00	   8.3397207e-01	
   1.9415000e+01	   3.2405760e+00	   1.0550727e+00	
   1.9470000e+01	   3.1996276e+00	   9.2511660e-01	
   1.9525000e+01	   3.1341488e+00	   9.8528472e-01	
   1.9580000e+01	   3.4191653e+00	   1.2038427e+00	
   1.9635000e+01	   3.2677796e+00	   9.8622861e-01	
   1.9690000e+01	   3.0491064e+00	   1.0329851e+00	
   1.9745000e+01	   3.1822735e+00	   1.0131578e+00	
   1.9800000e+01	   2.9578767e+00	   9.7311281e-01	
   1.9855000e+01	   1.1902969e+00	   8.6166925e-01	
   1.9910000e+01	   7.0782730e-01	   4.8790787e-01	
   1.9965000e+01	   1.0500603e+00	   7.3812891e-01	
   2.0020000e+01	   1.1577094e+00	   7.6384499e-01	
   2.0075000e+01	   7.8101041e-01	   5.8335231e-01	
   2.0130000e+01	   3.0480685e+00	   6.9248130e-01	
   2.0185000e+01	   2.6939744e+00	   5.0372005e-01	
   2.0240000e+01	   2.7829266e+00	   7.8019268e-01	
   2.0295000e+01	   3.1698411e+00	   9.7937027e-01	
   2.0350000e+01	   2.8867232e+00	   9.1858988e-01	
   2.0405000e+01	   3.4220612e+00	   1.0235652e+00	
   2.0460000e+01	   3.2627160e+00	   1.0634485e+00	
   2.0515000e+01	   3.0154974e+00	   9.9001001e-01	
   2.0570000e+01	   2.8204944e+00	   9.0861029e-01	
   2.0625000e+01	   2.6775782e+00	   8.5472189e-01	
   2.0680000e+01	   3.0811453e+00	   9.4349306e-01	
   2.0735000e+01	   2.8626598e+00	   7.2645079e-01	
   2.0790000e+01	   2.8015913e+00	   7.8690811e-01	
   2.0845000e+01	   1.6356206e+00	   7.4588287e-01	
   2.0900000e+01	   1.0596328e+00	   7.2349520e-01	
   2.0955000e+01	   4.7838076e-01	   3.3150929e-01	
   2.1010000e+01	   2.5092282e+00	   5.1310732e-01	
   2.1065000e+01	   2.7548488e+00	   7.7580744e-01	
   2.1120000e+01	   2.9502531e+00	   9.0114147e-01	
   2.1175000e+01	   2.7646035e+00	   8.3246203e-01	
   2.1230000e+01	   3.1366047e+00	   9.9338552e-01	
   2.1285000e+01	   3.0408951e+00	   1.0266851e+00	
   2.1340000e+01	   2.9640262e+00	   9.8751083e-01	
   2.1395000e+01	   2.6134396e+00	   6.1488833e-01	
   2.1450000e+01	   2.4994810e+00	   7.2827860e-01	
   2.1505000e+01	   2.7583886e+00	   8.5210993e-01	
   2.1560000e+01	   8.4781704e-01	   6.3109582e-01	
   2.1615000e+01	   5.8409718e-01	   5.0740414e-01	
   2.1670000e+01	   4.9424866e-01	   4.1318911e-01	
   2.1725000e+01	   6.7562449e-01	   4.7004179e-01	
   2.1780000e+01	   4.8472838e-01	   4.7671249e-01	
   2.1835000e+01	   3.2592884e+00	   7.9240993e-01	
   2.1890000e+01	   2.6790076e+00	   8.0422858e-01	
   2.1945000e+01	   2.9599832e+00	   1.0261299e+00	
   2.2000000e+01	   3.0315192e+00	   8.9535160e-01	
   2.2055000e+01	   2.6853307e+00	   6.6490932e-01	
   2.2110000e+01	   2.8706742e+00	   8.5703221e-01	
   2.2165000e+01	   2.9426814e+00	   9.9874882e-01	
   2.2220000e+01	   2.9096696e+00	   9.0194229e-01	
   2.2275000e+01	   2.5296565e+00	   6.8071838e-01	
   2.2330000e+01	   4.5646135e-01	   5.3131685e-01	
   2.2385000e+01	   6.9494274e-01	   7.0423993e-01	
   2.2440000e+01	   2.6727531e+00	   5.4902787e-01	
   2.2495000e+01	   2.4251470e+00	   4.7357011e-01	
   2.2550000e+01	   2.0254348e+00	   2.4674576e-01	
   2.2605000e+01	   2.3961381e+00	   5.9138174e-01	
   2.2660000e+01	   2.8704026e+00	   8.2887798e-01	
   2.2715000e+01	   2.8422051e+00	   8.0836455e-01	
   2.2770000e+01	   2.6470514e+00	   7.5347703e-01	
   2.2825000e+01	   2.9003960e+00	   9.1199471e-01	
   2.2880000e+01	   9.7872759e-01	   7.0585501e-01	
   2.2935000e+01	   9.1343442e-01	   7.6939780e-01	
   2.2990000e+01	   7.5703264e-01	   6.9044913e-01	
   2.3045000e+01	   9.9078411e-01	   8.4901865e-01	
   2.3100000e+01	   8.3669154e-01	   7.6021573e-01	
   2.3155000e+01	   5.8625950e-01	   6.1861915e-01	
   2.3210000e+01	   5.3839452e-01	   5.6816914e-01	
   2.3265000e+01	   6.3384973e-01	   3.9481115e-01	
   2.3320000e+01	   6.2440267e-01	   7.1757786e-01	
   2.3375000e+01	   1.7959804e-01	   2.5772753e-01	
   2.3430000e+01	   2.9944370e-01	   4.1074778e-01	
   2.3485000e+01	   7.0146621e-01	   7.3042726e-01	
   2.3540000e+01	   1.1846461e+00	   9.2378535e-01	
   2.3595000e+01	   9.5326447e-01	   9.2396492e-01	
   2.3650000e+01	   6.9435503e-01	   7.5955007e-01	
   2.3705000e+01	   1.0181678e+00	   8.1702958e-01	
   2.3760000e+01	   1.2033655e+00	   1.0393555e+00	
   2.3815000e+01	   1.1185194e+00	   8.3733898e-01	
   2.3870000e+01	   8.3523169e-01	   7.9419018e-01	
   2.3925000e+01	   8.1007640e-01	   8.4584898e-01	
   2.3980000e+01	   9.5243089e-01	   7.7161395e-01	
   2.4035000e+01	   7.5127473e-01	   7.2079969e-01	
   2.4090000e+01	   6.1696428e-01	   4.5232394e-01	
   2.4145000e+01	   7.1405381e-01	   7.0636013e-01	
   2.4200000e+01	   6.9887659e-01	   6.0807719e-01	
   2.4255000e+01	   4.6378552e-01	   5.1113757e-01	
   2.4310000e+01	   8.3316307e-01	   6.1640949e-01	
   2.4365000e+01	   1.0858107e+00	   6.7768683e-01	
   2.4420000e+01	   1.1466647e+00	   1.0032306e+00	
   2.4475000e+01	   1.4170942e+00	   1.0142145e+00	
   2.4530000e+01	   1.0922434e+00	   8.6350080e-01	
   2.4585000e+01	   1.1443506e+00	   9.7498276e-01	
   2.4640000e+01	   1.1439921e+00	   1.0895123e+00	
   2.4695000e+01	   1.0043601e+00	   8.5046819e-01	
   2.4750000e+01	   7.6767363e-01	   6.6532190e-01	
   2.4805000e+01	   8.0463315e-01	   7.0507263e-01	
   2.4860000e+01	   8.9087679e-01	   7.7862096e-01	
   2.4915000e+01	   9.4025354e-01	   7.4779056e-01	
   2.4970000e+01	   6.3772970e-01	   5.5857490e-01	
   2.5025000e+01	   6.1391853e-01	   5.1484245e-01	
   2.5080000e+01	   6.8774411e-01	   5.0331432e-01	
   2.5135000e+01	   7.8811464e-01	   5.7335581e-01	
   2.5190000e+01	   7.6073110e-01	   5.0435101e-01	
   2.5245000e+01	   1.0540176e+00	   8.2879046e-01	
   2.5300000e+01	   1.0699492e+00	   8.3839232e-01	
   2.5355000e+01	   1.1901065e+00	   8.9914746e-01	
   2.5410000e+01	   1.0996721e+00	   9.1507606e-01	
   2.5465000e+01	   1.1556474e+00	   8.4243044e-01	
   2.5520000e+01	   1.0325690e+00	   7.7080963e-01	
   2.5575000e+01	   1.0281377e+00	   8.4617735e-01	
   2.5630000e+01	   8.0859458e-01	   7.0157566e-01	
   2.5685000e+01	   1.1024198e+00	   8.1325839e-01	
   2.5740000e+01	   8.4252177e-01	   8.0426185e-01	
   2.5795000e+01	   8.0674895e-01	   7.1961264e-01	
   2.5850000e+01	   1.1362951e+00	   6.9580409e-01	
   2.5905000e+01	   5.4465881e-01	   5.2459691e-01	
   2.5960000e+01	   5.6471632e-01	   5.2197210e-01	
   2.6015000e+01	   6.4628517e-01	   4.9669950e-01	
   2.6070000e+01	   8.0153753e-01	   6.8879796e-01	
   2.6125000e+01	   8.0351824e-01	   7.8962353e-01	
   2.6180000e+01	   1.1034863e+00	   9.3378747e-01	
   2.6235000e+01	   1.0622136e+00	   8.0300262e-01	
   2.6290000e+01	   9.7173246e-01	   8.9233932e-01	
   2.6345000e+01	   7.2935228e-01	   7.2329557e-01	
   2.6400000e+01	   1.0498196e+00	   8.3064686e-01	
   2.6455000e+01	   8.3216519e-01	   6.4690570e-01	
   2.6510000e+01	   9.5125913e-01	   7.4612982e-01	
   2.6565000e+01	   1.0229532e+00	   7.6478898e-01	
   2.6620000e+01	   8.5788984e-01	   6.0840889e-01	
   2.6675000e+01	   5.1392184e-01	   4.5813857e-01	
   2.6730000e+01	   5.6695913e-01	   4.5157525e-01	
   2.6785000e+01	   2.7975906e-01	   4.5025787e-01	
   2.6840000e+01	   6.3739067e-01	   5.2751425e-01	
   2.6895000e+01	   9.6224915e-01	   6.4416361e-01	
   2.6950000e+01	   7.9619214e-01	   5.8109381e-01	
   2.7005000e+01	   9.5182542e-01	   7.0927990e-01	
   2.7060000e+01	   1.1005206e+00	   9.1224214e-01	
   2.7115000e+01	   1.0456475e+00	   8.7526477e-01	
   2.7170000e+01	   9.3065996e-01	   7.7544806e-01	
   2.7225000e+01	   9.5159756e-01	   8.2991837e-01	
   2.7280000e+01	   9.5641900e-01	   9.3541652e-01	
   2.7335000e+01	   7.6936895e-01	   7.6267927e-01	
   2.7390000e+01	   7.9701688e-01	   5.5415077e-01	
   2.7445000e+01	   8.3350737e-01	   6.2837690e-01	
   2.7500000e+01	   7.6578037e-01	   7.0525440e-01	
   2.7555000e+01	   7.4396065e-01	   4.9968172e-01	
   2.7610000e+01	   5.3692007e-01	   3.9942736e-01	
   2.7665000e+01	   4.3040469e-01	   3.5129210e-01	
   2.7720000e+01	   6.8350211e-01	   3.4153019e-01	
   2.7775000e+01	   9.3236224e-01	   6.1283883e-01	
   2.7830000e+01	   1.0152149e+00	   7.9487073e-01	
   2.7885000e+01	   9.4286308e-01	   7.0275074e-01	
   2.7940000e+01	   1.1449303e+00	   8.5590791e-01	
   2.7995000e+01	   7.9964435e-01	   7.9785333e-01	
   2.8050000e+01	   9.8427461e-01	   7.8624654e-01	
   2.8105000e+01	   7.8671339e-01	   8.7207215e-01	
   2.8160000e+01	   1.0949941e+00	   8.3617434e-01	
   2.8215000e+01	   1.0209679e+00	   6.2733316e-01	
   2.8270000e+01	   6.3506187e-01	   6.4696517e-01	
   2.8325000e+01	   6.3502699e-01	   6.9548129e-01	
   2.8380000e+01	   8.5131482e-01	   8.2579945e-01	
   2.8435000e+01	   6.1321419e-01	   5.5928324e-01	
   2.8490000e+01	   4.7321573e-01	   3.7799836e-01	
   2.8545000e+01	   3.0276516e-01	   3.3624925e-01	
   2.8600000e+01	   5.9187321e-01	   5.2947755e-01	
   2.8655000e+01	   6.7642876e-01	   5.6556839e-01	
   2.8710000e+01	   7.7654049e-01	   5.6074410e-01	
   2.8765000e+01	   9.1354878e-01	   7.8658075e-01	
   2.8820000e+01	   7.9366310e-01	   8.0332052e-01	
   2.8875000e+01	   1.1477494e+00	   8.9839264e-01	
   2.8930000e+01	   8.9012204e-01	   7.4710283e-01	
   2.8985000e+01	   9.2091126e-01	   8.6992001e-01	
   2.9040000e+01	   8.8538699e-01	   9.3192208e-01	
   2.9095000e+01	   7.4925146e-01	   8.0300949e-01	
   2.9150000e+01	   6.4855327e-01	   7.4875155e-01	
   2.9205000e+01	   3.3888759e-01	   4.9345880e-01	
   2.9260000e+01	   5.5397642e-01	   6.0232726e-01	
   2.9315000e+01	   5.8579977e-01	   5.2246492e-01	
   2.9370000e+01	   2.2737378e-01	   3.1707781e-01	
   2.9425000e+01	   3.0327361e-01	   4.8176381e-01	
   2.9480000e+01	   7.6999142e-01	   5.8761231e-01	
   2.9535000e+01	   8.7887113e-01	   7.4950574e-01	
   2.9590000e+01	   1.1014706e+00	   8.1515820e-01	
   2.9645000e+01	   6.8607137e-01	   7.5563473e-01	
   2.9700000e+01	   1.1888648e+00	   9.5815194e-01	
   2.9755000e+01	   9.0423262e-01	   7.6556461e-01	
   2.9810000e+01	   7.2373738e-01	   7.7007614e-01	
   2.9865000e+01	   7.5440113e-01	   8.5114523e-01	
   2.9920000e+01	   7.6926663e-01	   8.1173285e-01	
   2.9975000e+01	   6.9952709e-01	   8.0397558e-01	
   3.0030000e+01	   6.9129677e-01	   6.0222191e-01	
   3.0085000e+01	   5.3948709e-01	   5.2798850e-01	
   3.0140000e+01	   5.6990945e-01	   5.7532259e-01	
   3.0195000e+01	   6.0464250e-01	   5.3503062e-01	
   3.0250000e+01	   3.9908773e-01	   3.8288752e-01	
   3.0305000e+01	   7.3542699e-01	   6.5845570e-01	
   3.0360000e+01	   9.0441980e-01	   8.3931608e-01	
   3.0415000e+01	   7.2063426e-01	   7.0539103e-01	
   3.0470000e+01	   8.0629743e-01	   5.9911200e-01	
   3.0525000e+01	   8.3130462e-01	   8.0300643e-01	
   3.0580000e+01	   7.6383859e-01	   8.7860913e-01	
   3.0635000e+01	   9.4383464e-01	   9.4389153e-01	
   3.0690000e+01	   6.2311701e-01	   6.3510343e-01	
   3.0745000e+01	   6.1632088e-01	   6.9931511e-01	
   3.0800000e+01	   6.0399692e-01	   6.9973489e-01	
   3.0855000e+01	   6.7666545e-01	   5.8758093e-01	
   3.0910000e+01	   3.3123788e-01	   4.7660301e-01	
   3.0965000e+01	   2.5304499e-01	   5.3275038e-01	
   3.1020000e+01	   4.2405659e-01	   5.2266417e-01	
   3.1075000e+01	   3.8189655e-01	   4.7237769e-01	
   3.1130000e+01	   6.4311221e-01	   5.4447434e-01	
   3.1185000e+01	   1.0007370e+00	   7.5606280e-01	
   3.1240000e+01	   1.1914871e+00	   9.9769495e-01	
   3.1295000e+01	   9.9140787e-01	   9.2634901e-01	
   3.1350000e+01	   8.2832241e-01	   8.0340992e-01	
   3.1405000e+01	   7.3735688e-01	   8.4205971e-01	
   3.1460000e+01	   8.2315632e-01	   8.1884906e-01	
   3.1515000e+01	   5.6664359e-01	   7.4875825e-01	
   3.1570000e+01	   7.1208335e-01	   7.7978078e-01	
   3.1625000e+01	   7.0686280e-01	   7.3457351e-01	
   3.1680000e+01	   7.4218933e-01	   7.9340006e-01	
   3.1735000e+01	   5.5391675e-01	   6.4719205e-01	
   3.1790000e+01	   4.5339547e-01	   7.0672425e-01	
   3.1845000e+01	   5.0949454e-01	   5.7253487e-01	
   3.1900000e+01	   5.4049297e-01	   5.9118937e-01	
   3.1955000e+01	   7.9796025e-01	   9.3577236e-01	
   3.2010000e+01	   1.0610357e+00	   8.0504607e-01	
   3.2065000e+01	   1.0669736e+00	   8.8248276e-01	
   3.2120000e+01	   1.0306284e+00	   1.0266798e+00	
   3.2175000e+01	   1.3585396e+00	   1.1626303e+00	
   3.2230000e+01	   1.0380288e+00	   9.4156488e-01	
   3.2285000e+01	   5.8562648e-01	   7.4394916e-01	
   3.2340000e+01	   9.1620250e-01	   1.1666954e+00	
   3.2395000e+01	   8.0012169e-01	   8.4711752e-01	
   3.2450000e+01	   7.8851880e-01	   7.4559236e-01	
   3.2505000e+01	   8.4202965e-01	   8.0354905e-01	
   3.2560000e+01	   8.4078617e-01	   8.3236437e-01	
   3.2615000e+01	   7.4298189e-01	   7.2229201e-01	
   3.2670000e+01	   3.9735108e-01	   4.3784801e-01	
   3.2725000e+01	   4.6553229e-01	   5.5284864e-01	
   3.2780000e+01	   6.0102232e-01	   5.6982402e-01	
   3.2835000e+01	   1.0793177e+00	   8.7811396e-01	
   3.2890000e+01	   1.0159961e+00	   7.9523272e-01	
   3.2945000e+01	   1.0937403e+00	   8.5589541e-01	
   3.3000000e+01	   1.2168232e+00	   1.0397867e+00	
   3.3055000e+01	   9.2464448e-01	   8.9260051e-01	
   3.3110000e+01	   1.1093599e+00	   9.2424750e-01	
   3.3165000e+01	   8.6020314e-01	   7.9200501e-01	
   3.3220000e+01	   9.0480190e-01	   9.0194146e-01	
   3.3275000e+01	   1.0687796e+00	   8.9890315e-01	
   3.3330000e+01	   7.5772022e-01	   6.6270062e-01	
   3.3385000e+01	   4.7252624e-01	   6.5829411e-01	
   3.3440000e+01	   9.1041770e-01	   7.7401620e-01	
   3.3495000e+01	   6.6550893e-01	   5.7144199e-01	
   3.3550000e+01	   5.0189287e-01	   5.5505700e-01	
   3.3605000e+01	   6.7873256e-01	   5.5659329e-01	
   3.3660000e+01	   9.4971979e-01	   8.9373520e-01	
   3.3715000e+01	   1.0084191e+00	   8.2503323e-01	
   3.3770000e+01	   8.2278406e-01	   7.3112229e-01	
   3.3825000e+01	   9.2747592e-01	   7.3811297e-01	
   3.3880000e+01	   1.3622149e+00	   1.1297078e+00	
   3.3935000e+01	   1.1094309e+00	   1.0193126e+00	
   3.3990000e+01	   8.7967586e-01	   8.2088932e-01	
   3.4045000e+01	   1.1507647e+00	   8.6699679e-01	
   3.4100000e+01	   1.0192143e+00	   1.0225894e+00	
   3.4155000e+01	   8.0284441e-01	   6.2874233e-01	
   3.4210000e+01	   5.8905416e-01	   5.6968393e-01	
   3.4265000e+01	   6.9422211e-01	   6.4536752e-01	
   3.4320000e+01	   6.6168279e-01	   6.9806125e-01	
   3.4375000e+01	   8.0780750e-01	   6.9070816e-01	
   3.4430000e+01	   7.5501632e-01	   6.4529843e-01	
   3.4485000e+01	   1.0837637e+00	   9.1428027e-01	
   3.4540000e+01	   1.0541452e+00	   1.0483354e+00	
   3.4595000e+01	   1.0285102e+00	   9.1224718e-01	
   3.4650000e+01	   8.7697898e-01	   7.1884025e-01	
   3.4705000e+01	   1.0173418e+00	   9.2700813e-01	
   3.4760000e+01	   9.5561977e-01	   9.5072974e-01	
   3.4815000e+01	   9.6032625e-01	   8.6388993e-01	
   3.4870000e+01	   6.7925026e-01	   6.3560749e-01	
   3.4925000e+01	   7.7645517e-01	   7.2702121e-01	
   3.4980000e+01	   9.2830956e-01	   8.8130287e-01	
   3.5035000e+01	   7.1830928e-01	   7.9268576e-01	
   3.5090000e+01	   5.7009752e-01	   5.3108509e-01	
   3.5145000e+01	   4.4949545e-01	   4.5083814e-01	
   3.5200000e+01	   1.0370881e+00	   9.1952022e-01	
   3.5255000e+01	   1.1611813e+00	   8.3837893e-01	
   3.5310000e+01	   1.0402050e+00	   8.7157971e-01	
   3.5365000e+01	   1.4041314e+00	   9.9742336e-01	
   3.5420000e+01	   1.2047143e+00	   1.0994826e+00	
   3.5475000e+01	   1.3969115e+00	   1.1519477e+00	
   3.5530000e+01	   1.2339844e+00	   9.9396307e-01	
   3.5585000e+01	   9.7830874e-01	   8.6176128e-01	
   3.5640000e+01	   1.1072299e+00	   1.0338862e+00	
   3.5695000e+01	   9.8401700e-01	   8.8728243e-01	
   3.5750000e+01	   8.1131852e-01	   6.8713929e-01	
   3.5805000e+01	   9.3335378e-01	   8.0125489e-01	
   3.5860000e+01	   1.0780128e+00	   9.2793935e-01	
   3.5915000e+01	   8.8362226e-01	   8.0446307e-01	
   3.5970000e+01	   8.1394438e-01	   7.0947847e-01	
   3.6025000e+01	   9.1131390e-01	   8.3012640e-01	
   3.6080000e+01	   1.4502130e+00	   1.1783933e+00	
   3.6135000e+01	   1.2527780e+00	   1.0915388e+00	
   3.6190000e+01	   1.4395428e+00	   1.0868572e+00	
   3.6245000e+01	   1.4517708e+00	   1.0541583e+00	
   3.6300000e+01	   1.5728781e+00	   1.3237673e+00	
   3.6355000e+01	   1.6239413e+00	   1.2068488e+00	
   3.6410000e+01	   1.1684958e+00	   9.6239641e-01	
   3.6465000e+01	   1.5483696e+00	   1.0821012e+00	
   3.6520000e+01	   1.2681196e+00	   1.0579457e+00	
   3.6575000e+01	   1.3773169e+00	   9.2275333e-01	
   3.6630000e+01	   1.0730749e+00	   8.9011493e-01	
   3.6685000e+01	   8.4625723e-01	   7.6719344e-01	
   3.6740000e+01	   1.1173036e+00	   8.9277668e-01	
   3.6795000e+01	   1.1120662e+00	   8.2907944e-01	
   3.6850000e+01	   1.6871869e+00	   9.7374181e-01	
   3.6905000e+01	   1.2408588e+00	   1.0573423e+00	
   3.6960000e+01	   1.6797439e+00	   1.2043010e+00	
   3.7015000e+01	   1.6329199e+00	   1.2850829e+00	
   3.7070000e+01	   1.3072297e+00	   9.8583612e-01	
   3.7125000e+01	   1.0310188e+00	   1.0236693e+00	
   3.7180000e+01	   1.3761589e+00	   1.1292492e+00	
   3.7235000e+01	   1.4436875e+00	   1.0901591e+00	
   3.7290000e+01	   1.1205151e+00	   9.3747392e-01	
   3.7345000e+01	   1.0630629e+00	   9.5515937e-01	
   3.7400000e+01	   1.4531596e+00	   1.1007472e+00	
   3.7455000e+01	   1.2076549e+00	   9.9440935e-01	
   3.7510000e+01	   1.0728836e+00	   7.1008088e-01	
   3.7565000e+01	   1.0598637e+00	   8.1035889e-01	
   3.7620000e+01	   1.7082618e+00	   1.0368690e+00	
   3.7675000e+01	   1.4466762e+00	   1.2209606e+00	
   3.7730000e+01	   1.5962516e+00	   1.0881146e+00	
   3.7785000e+01	   1.6160628e+00	   1.2311084e+00	
   3.7840000e+01	   1.5943108e+00	   1.1679293e+00	
   3.7895000e+01	   1.6216575e+00	   1.1186827e+00	
   3.7950000e+01	   1.3693323e+00	   1.0073451e+00	
   3.8005000e+01	   1.3494328e+00	   1.0113589e+00	
   3.8060000e+01	   1.3979899e+00	   1.1182824e+00	
   3.8115000e+01	   1.4206198e+00	   1.0357478e+00	
   3.8170000e+01	   1.1597058e+00	   8.4082973e-01	
   3.8225000e+01	   1.3118824e+00	   8.2834389e-01	
   3.8280000e+01	   7.7371456e-01	   7.8752528e-01	
   3.8335000e+01	   1.1428150e+00	   8.8558446e-01	
   3.8390000e+01	   1.1523748e+00	   6.8383547e-01	
   3.8445000e+01	   1.0847722e+00	   9.7261366e-01	
   3.8500000e+01	   1.7105954e+00	   1.0096628e+00	
   3.8555000e+01	   1.8604810e+00	   1.0873460e+00	
   3.8610000e+01	   1.7583005e+00	   1.0218514e+00	
   3.8665000e+01	   1.2166608e+00	   9.7730432e-01	
   3.8720000e+01	   1.3411815e+00	   1.1818921e+00	
   3.8775000e+01	   1.4629017e+00	   1.1210166e+00	
   3.8830000e+01	   1.2621270e+00	   1.0501292e+00	
   3.8885000e+01	   1.1705483e+00	   8.6130109e-01	
   3.8940000e+01	   1.4115958e+00	   1.0314809e+00	
   3.8995000e+01	   1.2544313e+00	   9.5386652e-01	
   3.9050000e+01	   1.1620697e+00	   7.4325174e-01	
   3.9105000e+01	   1.2074356e+00	   8.0523375e-01	
   3.9160000e+01	   1.0839351e+00	   7.7209944e-01	
   3.9215000e+01	   1.0894377e+00	   6.6058843e-01	
   3.9270000e+01	   1.1383993e+00	   5.7104100e-01	
   3.9325000e+01	   1.1914568e+00	   7.1856418e-01	
   3.9380000e+01	   1.4011619e+00	   1.0003522e+00	
   3.9435000e+01	   1.4983806e+00	   1.0595844e+00	
   3.9490000e+01	   1.4085644e+00	   1.0387235e+00	
   3.9545000e+01	   1.2843634e+00	   9.9286705e-01	
   3.9600000e+01	   1.6365686e+00	   1.1380521e+00	
   3.9655000e+01	   1.3472751e+00	   1.1497133e+00	
   3.9710000e+01	   1.0717724e+00	   8.3643315e-01	
   3.9765000e+01	   1.0183662e+00	   7.8166879e-01	
   3.9820000e+01	   1.4103797e+00	   8.8809332e-01	
   3.9875000e+01	   1.0748453e+00	   8.6826409e-01	
   3.9930000e+01	   8.4152915e-01	   7.5065440e-01	
   3.9985000e+01	   9.2700272e-01	   6.6339895e-01	
   4.0040000e+01	   9.0584121e-01	   6.8317448e-01	
   4.0095000e+01	   6.6797860e-01	   4.2985180e-01	
   4.0150000e+01	   6.7918540e-01	   3.4840056e-01	
   4.0205000e+01	   1.1122713e+00	   8.3281367e-01	
   4.0260000e+01	   1.0946717e+00	   8.1938945e-01	
   4.0315000e+01	   1.3596230e+00	   8.9653336e-01	
   4.0370000e+01	   1.3089801e+00	   8.6577808e-01	
   4.0425000e+01	   1.2403301e+00	   9.9900709e-01	
   4.0480000e+01	   1.3344048e+00	   1.1081386e+00	
   4.0535000e+01	   1.1262625e+00	   8.7801021e-01	
   4.0590000e+01	   1.0984874e+00	   6.8496973e-01	
   4.0645000e+01	   9.6981087e-01	   6.8267324e-01	
   4.0700000e+01	   9.3123018e-01	   6.2350318e-01	
   4.0755000e+01	   1.1084320e+00	   7.6620242e-01	
   4.0810000e+01	   6.1482731e-01	   4.7969976e-01	
   4.0865000e+01	   8.5377398e-01	   5.5433785e-01	
   4.0920000e+01	   6.4475708e-01	   5.2973501e-01	
   4.0975000e+01	   9.1689439e-01	   5.9035398e-01	
   4.1030000e+01	   1.0225652e+00	   6.5836393e-01	
   4.1085000e+01	   9.6933719e-01	   6.1517282e-01	
   4.1140000e+01	   1.1536179e+00	   1.0262285e+00	
   4.1195000e+01	   9.9926949e-01	   7.5827454e-01	
   4.1250000e+01	   1.1835877e+00	   8.6603719e-01	
   4.1305000e+01	   6.9921293e-01	   7.5927731e-01	
   4.1360000e+01	   1.0971665e+00	   9.1131870e-01	
   4.1415000e+01	   8.0641022e-01	   7.8076712e-01	
   4.1470000e+01	   7.8918438e-01	   6.4003242e-01	
   4.1525000e+01	   8.0876984e-01	   6.2406987e-01	
   4.1580000e+01	   6.8982378e-01	   5.4867025e-01	
   4.1635000e+01	   5.6276133e-01	   6.0945448e-01	
   4.1690000e+01	   6.1904301e-01	   3.7005915e-01	
   4.1745000e+01	   5.5853603e-01	   4.8313424e-01	
   4.1800000e+01	   8.5248185e-01	   7.5033684e-01	
   4.1855000e+01	   1.1045182e+00	   8.2296884e-01	
   4.1910000e+01	   1.0212844e+00	   7.7107237e-01	
   4.1965000e+01	   7.9607276e-01	   7.5044905e-01	
   4.2020000e+01	   1.0144756e+00	   7.8666305e-01	
   4.2075000e+01	   8.1509458e-01	   9.5154471e-01	
   4.2130000e+01	   6.1643616e-01	   6.6325892e-01	
   4.2185000e+01	   7.0545377e-01	   6.9075818e-01	
   4.2240000e+01	   6.5876732e-01	   7.7485997e-01	
   4.2295000e+01	   9.4573802e-01	   8.1046566e-01	
   4.2350000e+01	   6.9883490e-01	   5.8676914e-01	
   4.2405000e+01	   3.8411254e-01	   3.2852160e-01	
   4.2460000e+01	   4.0294101e-01	   5.4608981e-01	
   4.2515000e+01	   4.5168933e-01	   5.8761980e-01	
   4.2570000e+01	   6.0180572e-01	   7.8721648e-01	
   4.2625000e+01	   8.6137053e-01	   6.3566928e-01	
   4.2680000e+01	   9.4163897e-01	   8.9946938e-01	
   4.2735000e+01	   9.3464050e-01	   8.1500654e-01	
   4.2790000e+01	   9.5285139e-01	   8.6919573e-01	
   4.2845000e+01	   7.3536652e-01	   8.5673056e-01	
   4.2900000e+01	   7.0455295e-01	   9.1578874e-01	
   4.2955000e+01	   8.7322276e-01	   9.3455187e-01	
   4.3010000e+01	   7.2385704e-01	   7.3789341e-01	
   4.3065000e+01	   5.2627077e-01	   7.8379133e-01	
   4.3120000e+01	   5.4717829e-01	   6.6566526e-01	
   4.3175000e+01	   6.8029246e-01	   6.8069661e-01	
   4.3230000e+01	   4.6072066e-01	   4.8691136e-01	
   4.3285000e+01	   3.6132409e-01	   4.3834410e-01	
   4.3340000e+01	   6.6507397e-01	   7.8623813e-01	
   4.3395000e+01	   7.2068758e-01	   8.9504736e-01	
   4.3450000e+01	   6.8738994e-01	   7.4663745e-01	
   4.3505000e+01	   8.1913646e-01	   8.1271220e-01	
   4.3560000e+01	   9.2541749e-01	   9.7530511e-01	
   4.3615000e+01	   1.0206531e+00	   1.0118593e+00	
   4.3670000e+01	   8.2899068e-01	   8.9134179e-01	
   4.3725000e+01	   7.0605797e-01	   8.1094648e-01	
   4.3780000e+01	   7.5454124e-01	   1.0467598e+00	
   4.3835000e+01	   4.0805801e-01	   8.6224285e-01	
   4.3890000e+01	   6.4512393e-01	   8.5445296e-01	
   4.3945000e+01	   5.3603220e-01	   6.7035904e-01	
   4.4000000e+01	   4.2449550e-01	   6.9109718e-01	
   4.4055000e+01	   3.8651400e-01	   5.8082678e-01	
   4.4110000e+01	   7.8921284e-01	   6.9888442e-01	
   4.4165000e+01	   8.3646535e-01	   9.4159746e-01	
   4.4220000e+01	   7.9792394e-01	   1.1819245e+00	
   4.4275000e+01	   8.5368126e-01	   9.3850361e-01	
   4.4330000e+01	   7.4192196e-01	   9.1640591e-01	
   4.4385000e+01	   8.5180057e-01	   1.0281166e+00	
   4.4440000e+01	   8.8425582e-01	   9.9901914e-01	
   4.4495000e+01	   8.1601245e-01	   9.4113894e-01	
   4.4550000e+01	   4.7126171e-01	   8.5266097e-01	
   4.4605000e+01	   5.1807142e-01	   7.8499672e-01	
   4.4660000e+01	   6.9188897e-01	   7.4348747e-01	
   4.4715000e+01	   6.8245659e-01	   8.5117398e-01	
   4.4770000e+01	   2.7240851e-01	   5.9110608e-01	
   4.4825000e+01	   5.2791266e-01	   6.6528801e-01	
   4.4880000e+01	   1.0417252e+00	   1.0764673e+00	
   4.4935000e+01	   8.0321353e-01	   1.0660856e+00	
   4.4990000e+01	   6.2574598e-01	   9.5907383e-01	
   4.5045000e+01	   5.6257971e-01	   8.9371933e-01	
   4.5100000e+01	   8.4913137e-01	   1.0355279e+00	
   4.5155000e+01	   7.8208836e-01	   9.9451594e-01	
   4.5210000e+01	   7.3420183e-01	   8.1851504e-01	
   4.5265000e+01	   5.7020802e-01	   7.6610409e-01	
   4.5320000e+01	   4.9555456e-01	   9.4765767e-01	
   4.5375000e+01	   5.8602270e-01	   8.4950310e-01	
   4.5430000e+01	   3.4517152e-01	   6.7459843e-01	
   4.5485000e+01	   5.5366770e-01	   7.2471808e-01	
   4.5540000e+01	   4.8747926e-01	   7.4321419e-01	
   4.5595000e+01	   8.8884696e-01	   9.4920369e-01	
   4.5650000e+01	   7.4205026e-01	   9.3011168e-01	
   4.5705000e+01	   8.5091526e-01	   7.7884529e-01	
   4.5760000e+01	   7.3845308e-01	   1.0192502e+00	
   4.5815000e+01	   1.0309852e+00	   1.0620161e+00	
   4.5870000e+01	   8.6993919e-01	   1.1422057e+00	
   4.5925000e+01	   8.2496483e-01	   9.8603306e-01	
   4.5980000e+01	   7.3554335e-01	   1.0306087e+00	
   4.6035000e+01	   1.0563201e+00	   1.2014894e+00	
   4.6090000e+01	   5.0798274e-01	   6.5530198e-01	
   4.6145000e+01	   4.3796258e-01	   8.3480248e-01	
   4.6200000e+01	   3.3499305e-01	   7.4865140e-01	
   4.6255000e+01	   8.1497048e-01	   8.2914565e-01	
   4.6310000e+01	   4.5745808e-01	   7.3161553e-01	
   4.6365000e+01	   9.0483995e-01	   1.0259486e+00	
   4.6420000e+01	   1.0619888e+00	   1.1083479e+00	
   4.6475000e+01	   1.0207467e+00	   1.2798518e+00	
   4.6530000e+01	   1.1254033e+00	   1.1133411e+00	
   4.6585000e+01	   1.1349239e+00	   1.2273591e+00	
   4.6640000e+01	   8.9197470e-01	   1.1240253e+00	
   4.6695000e+01	   7.8687748e-01	   1.2630089e+00	
   4.6750000e+01	   8.7530191e-01	   1.0040125e+00	
   4.6805000e+01	   7.1434752e-01	   9.3621082e-01	
   4.6860000e+01	   9.2710301e-01	   1.0695787e+00	
   4.6915000e+01	   8.8771730e-01	   1.0325952e+00	
   4.6970000e+01	   8.7081963e-01	   9.6203983e-01	
   4.7025000e+01	   7.1178255e-01	   7.0961989e-01	
   4.7080000e+01	   6.2779247e-01	   8.5773476e-01	
   4.7135000e+01	   9.0170863e-01	   1.0514762e+00	
   4.7190000e+01	   1.1683000e+00	   1.0458939e+00	
   4.7245000e+01	   1.1898156e+00	   1.1357319e+00	
   4.7300000e+01	   1.1871611e+00	   1.2078098e+00	
   4.7355000e+01	   1.2801712e+00	   1.2825703e+00	
   4.7410000e+01	   9.2516285e-01	   1.1579646e+00	
   4.7465000e+01	   9.7955637e-01	   1.0730413e+00	
   4.7520000e+01	   1.0900743e+00	   1.1531161e+00	
   4.7575000e+01	   9.8215270e-01	   1.0067678e+00	
   4.7630000e+01	   9.2701229e-01	   9.6416470e-01	
   4.7685000e+01	   8.2683147e-01	   8.6031311e-01	
   4.7740000e+01	   7.8993235e-01	   9.6907989e-01	
   4.7795000e+01	   7.2701737e-01	   8.7992024e-01	
   4.7850000e+01	   6.7291902e-01	   7.1340056e-01	
   4.7905000e+01	   8.8876542e-01	   1.0331583e+00	
   4.7960000e+01	   9.8187980e-01	   9.6155311e-01	
   4.8015000e+01	   1.0338190e+00	   1.1232341e+00	
   4.8070000e+01	   1.1654409e+00	   1.0691940e+00	
   4.8125000e+01	   1.1183762e+00	   1.1633616e+00	
   4.8180000e+01	   1.2205221e+00	   1.2843875e+00	
   4.8235000e+01	   1.2231022e+00	   1.2717696e+00	
   4.8290000e+01	   1.1199400e+00	   1.0907967e+00	
   4.8345000e+01	   8.4210606e-01	   9.1629794e-01	
   4.8400000e+01	   8.3789188e-01	   7.7039752e-01	
   4.8455000e+01	   1.0729360e+00	   1.0122431e+00	
   4.8510000e+01	   8.5676142e-01	   9.5999996e-01	
   4.8565000e+01	   9.3508211e-01	   8.2880081e-01	
   4.8620000e+01	   8.6723934e-01	   1.0090063e+00	
   4.8675000e+01	   1.3785896e+00	   1.2230437e+00	
   4.8730000e+01	   1.2143413e+00	   1.0672214e+00	
   4.8785000e+01	   1.2399101e+00	   1.0613024e+00	
   4.8840000e+01	   1.0771843e+00	   1.1130941e+00	
   4.8895000e+01	   1.2267137e+00	   1.1647691e+00	
   4.8950000e+01	   1.1344159e+00	   1.0800450e+00	
   4.9005000e+01	   8.7313877e-01	   9.3035820e-01	
   4.9060000e+01	   7.6311748e-01	   9.0812597e-01	
   4.9115000e+01	   1.1250808e+00	   1.1176856e+00	
   4.9170000e+01	   7.5691896e-01	   7.5556647e-01	
   4.9225000e+01	   8.6624851e-01	   7.1821152e-01	
   4.9280000e+01	   7.7719689e-01	   8.6022963e-01	
   4.9335000e+01	   6.6109472e-01	   7.6697289e-01	
   4.9390000e+01	   8.9779898e-01	   7.5477518e-01	
   4.9445000e+01	   8.3941739e-01	   8.6315744e-01	
   4.9500000e+01	   1.2757094e+00	   1.0387913e+00	
   4.9555000e+01	   1.4434878e+00	   1.2045261e+00	
   4.9610000e+01	   1.3799183e+00	   1.1550151e+00	
   4.9665000e+01	   1.0185468e+00	   9.3606525e-01	
   4.9720000e+01	   1.3394307e+00	   1.2581340e+00	
   4.9775000e+01	   1.1637822e+00	   1.2554080e+00	
   4.9830000e+01	   1.1547881e+00	   9.7377520e-01	
   4.9885000e+01	   7.0955062e-01	   8.4675959e-01	
   4.9940000e+01	   1.1296563e+00	   1.0275006e+00	
   4.9995000e+01	   9.9286881e-01	   9.3773786e-01	
   5.0050000e+01	   5.3497619e-01	   7.3038171e-01	
   5.0105000e+01	   3.8075540e-01	   5.6203167e-01	
   5.0160000e+01	   8.2171006e-01	   6.8631159e-01	
   5.0215000e+01	   9.8758714e-01	   9.7020785e-01	
   5.0270000e+01	   1.0312206e+00	   8.7247280e-01	
   5.0325000e+01	   1.0992160e+00	   9.8676538e-01	
   5.0380000e+01	   1.2416143e+00	   1.3183946e+00	
   5.0435000e+01	   1.1895564e+00	   1.0331180e+00	
   5.0490000e+01	   1.3322693e+00	   1.1235167e+00	
   5.0545000e+01	   1.1052206e+00	   1.0860287e+00	
   5.0600000e+01	   1.4354130e+00	   1.2029534e+00	
   5.0655000e+01	   1.0097164e+00	   1.0021352e+00	
   5.0710000e+01	   1.0764199e+00	   8.9561730e-01	
   5.0765000e+01	   8.7105761e-01	   8.0030852e-01	
   5.0820000e+01	   8.7614711e-01	   8.6522882e-01	
   5.0875000e+01	   6.9670728e-01	   8.9004566e-01	
   5.0930000e+01	   8.1437106e-01	   6.8308419e-01	
   5.0985000e+01	   5.9302963e-01	   6.4460273e-01	
   5.1040000e+01	   8.0640494e-01	   6.5412153e-01	
   5.1095000e+01	   1.0441062e+00	   9.1441922e-01	
   5.1150000e+01	   1.0598637e+00	   9.3955860e-01	
   5.1205000e+01	   1.0032373e+00	   9.4234609e-01	
   5.1260000e+01	   1.1639717e+00	   1.0794801e+00	
   5.1315000e+01	   1.0762517e+00	   1.0506185e+00	
   5.1370000e+01	   9.8864816e-01	   1.1152368e+00	
   5.1425000e+01	   1.0117777e+00	   7.8459838e-01	
   5.1480000e+01	   1.0194970e+00	   1.0282361e+00	
   5.1535000e+01	   9.5241506e-01	   9.8800911e-01	
   5.1590000e+01	   8.3092692e-01	   8.0675466e-01	
   5.1645000e+01	   7.2141292e-01	   8.8446742e-01	
   5.1700000e+01	   4.4434906e-01	   5.9918612e-01	
   5.1755000e+01	   8.5376533e-01	   6.9422598e-01	
   5.1810000e+01	   7.2975231e-01	   5.1787386e-01	
   5.1865000e+01	   6.4207027e-01	   7.7253663e-01	
   5.1920000e+01	   1.1490336e+00	   9.3648180e-01	
   5.1975000e+01	   1.0669110e+00	   1.0839118e+00	
   5.2030000e+01	   1.0312301e+00	   1.0390868e+00	
   5.2085000e+01	   6.6757483e-01	   7.2150400e-01	
   5.2140000e+01	   9.5289183e-01	   9.3619821e-01	
   5.2195000e+01	   8.1055461e-01	   9.3407122e-01	
   5.2250000e+01	   8.0351291e-01	   7.6046345e-01	
   5.2305000e+01	   7.3289197e-01	   6.4770145e-01	
   5.2360000e+01	   6.1963688e-01	   7.6620242e-01	
   5.2415000e+01	   5.9446389e-01	   7.5574094e-01	
   5.2470000e+01	   4.5696153e-01	   5.6658100e-01	
   5.2525000e+01	   1.7132277e-01	   3.7631493e-01	
   5.2580000e+01	   5.5304700e-01	   5.4336451e-01	
   5.2635000e+01	   9.2743051e-01	   9.0116645e-01	
   5.2690000e+01	   8.8637694e-01	   9.0245082e-01	
   5.2745000e+01	   7.8767378e-01	   8.6140753e-01	
   5.2800000e+01	   1.2018644e+00	   1.1290475e+00	
   5.2855000e+01	   1.0434138e+00	   1.1267894e+00	
   5.2910000e+01	   7.7199079e-01	   9.1853459e-01	
   5.2965000e+01	   7.6171537e-01	   9.4999090e-01	
   5.3020000e+01	   7.9140366e-01	   8.8891705e-01	
   5.3075000e+01	   4.7505143e-01	   7.7689970e-01	
   5.3130000e+01	   5.1574226e-01	   8.2944791e-01	
   5.3185000e+01	   5.5078257e-01	   7.0789374e-01	
   5.3240000e+01	   4.5566326e-01	   7.3663547e-01	
   5.3295000e+01	   4.3083231e-01	   6.6332566e-01	
   5.3350000e+01	   4.6446462e-01	   5.2016020e-01	
   5.3405000e+01	   5.7294874e-01	   8.0276076e-01	
   5.3460000e+01	   6.9034640e-01	   8.7028563e-01	
   5.3515000e+01	   9.0170477e-01	   9.7134817e-01	
   5.3570000e+01	   7.5760745e-01	   9.9220600e-01	
   5.3625000e+01	   9.4091634e-01	   8.9892383e-01	
   5.3680000e+01	   7.9946708e-01	   1.0406537e+00	
   5.3735000e+01	   7.9673601e-01	   1.0059485e+00	
   5.3790000e+01	   7.8916868e-01	   9.7280042e-01	
   5.3845000e+01	   4.1457299e-01	   7.3734135e-01	
   5.3900000e+01	   7.0010101e-01	   8.5496155e-01	
   5.3955000e+01	   3.1568471e-01	   7.0073528e-01	
   5.4010000e+01	   5.0290968e-01	   6.9455163e-01	
   5.4065000e+01	   1.6993643e-01	   5.2284789e-01	
   5.4120000e+01	   5.1251858e-01	   7.1819668e-01	
   5.4175000e+01	   3.0774930e-01	   6.6511952e-01	
   5.4230000e+01	   5.3227908e-01	   6.1220453e-01	
   5.4285000e+01	   8.2128386e-01	   9.0941084e-01	
   5.4340000e+01	   1.0567831e+00	   1.0403666e+00	
   5.4395000e+01	   6.8131122e-01	   9.0199672e-01	
   5.4450000e+01	   9.0214618e-01	   9.7822767e-01	
   5.4505000e+01	   5.4669472e-01	   9.7692807e-01	
   5.4560000e+01	   7.4892801e-01	   9.7935467e-01	
   5.4615000e+01	   6.9344171e-01	   9.4337867e-01	
   5.4670000e+01	   5.9815564e-01	   9.3978025e-01	
   5.4725000e+01	   4.8032721e-01	   7.0540072e-01	
   5.4780000e+01	   3.2805687e-01	   7.2375152e-01	
   5.4835000e+01	   3.5189598e-01	   7.8451170e-01	
   5.4890000e+01	   4.1653389e-01	   7.2961540e-01	
   5.4945000e+01	   1.6959477e-01	   5.4979540e-01	
   5.5000000e+01	   3.1868045e-01	   6.0602703e-01	
   5.5055000e+01	   4.2099357e-01	   9.0353797e-01	
   5.5110000e+01	   8.1289595e-01	   9.0911026e-01	
   5.5165000e+01	   6.2551147e-01	   7.8608598e-01	
   5.5220000e+01	   7.4436983e-01	   1.0000409e+00	
   5.5275000e+01	   6.6604367e-01	   1.0246128e+00	
   5.5330000e+01	   7.3186861e-01	   9.8152350e-01	
   5.5385000e+01	   7.0319136e-01	   9.4896903e-01	
   5.5440000e+01	   5.2687670e-01	   7.3116899e-01	
   5.5495000e+01	   5.2699682e-01	   8.8493125e-01	
   5.5550000e+01	   5.2872618e-01	   8.0699931e-01	
   5.5605000e+01	   2.2687220e-01	   4.9755196e-01	
   5.5660000e+01	   2.4684570e-01	   5.4702671e-01	
   5.5715000e+01	   2.4046614e-01	   5.5536057e-01	
   5.5770000e+01	   1.5998910e-01	   5.4726858e-01	
   5.5825000e+01	  -5.5819914e-02	   4.1402711e-01	
   5.5880000e+01	   4.2107175e-01	   7.4272260e-01	
   5.5935000e+01	   7.6983367e-01	   8.9153828e-01	
   5.5990000e+01	   6.5102047e-01	   8.0462717e-01	
   5.6045000e+01	   5.7996330e-01	   7.7036541e-01	
   5.6100000e+01	   5.2044510e-01	   7.5921294e-01	
   5.6155000e+01	   5.3422457e-01	   8.8623218e-01	
   5.6210000e+01	   5.1307547e-01	   7.6034803e-01	
   5.6265000e+01	   2.9135751e-01	   7.2038209e-01	
   5.6320000e+01	   3.5672795e-01	   6.5571834e-01	
   5.6375000e+01	   3.2852051e-01	   7.7631929e-01	
   5.6430000e+01	   3.1070186e-01	   6.4843937e-01	
   5.6485000e+01	   8.1731231e-02	   4.3482276e-01	
   5.6540000e+01	  -1.2419169e-01	   3.9635516e-01	
   5.6595000e+01	   2.2452473e-01	   5.2957002e-01	
   5.6650000e+01	   4.4454095e-01	   6.3497838e-01	
   5.6705000e+01	   4.4845392e-01	   6.3395557e-01	
   5.6760000e+01	   5.0858466e-01	   7.5879248e-01	
   5.6815000e+01	   4.6424452e-01	   8.7991246e-01	
   5.6870000e+01	   4.6134432e-01	   7.8401112e-01	
   5.6925000e+01	   2.4187971e-01	   7.0906114e-01	
   5.6980000e+01	   2.4529856e-01	   7.3793080e-01	
   5.7035000e+01	   1.3442045e-01	   6.2615406e-01	
   5.7090000e+01	   5.7626644e-01	   7.3705121e-01	
   5.7145000e+01	   1.3901313e-01	   4.2906583e-01	
   5.7200000e+01	  -2.6897659e-02	   5.2674974e-01	
   5.7255000e+01	   1.1308113e-01	   5.7057008e-01	
   5.7310000e+01	   1.9786536e-01	   5.8817249e-01	
   5.7365000e+01	   4.3803390e-01	   7.0514635e-01	
   5.7420000e+01	   2.6818775e-01	   6.8233095e-01	
   5.7475000e+01	   4.5304519e-01	   8.9655127e-01	
   5.7530000e+01	   6.3331918e-01	   8.0622100e-01	
   5.7585000e+01	   3.2435955e-01	   7.4600398e-01	
   5.7640000e+01	   3.6627295e-01	   8.9770130e-01	
   5.7695000e+01	   7.4522204e-01	   9.7820709e-01	
   5.7750000e+01	   3.1582413e-01	   7.8298252e-01	
   5.7805000e+01	   3.7015048e-01	   6.9563421e-01	
   5.7860000e+01	   1.8685445e-01	   7.3091664e-01	
   5.7915000e+01	   3.3362699e-01	   5.9062602e-01	
   5.7970000e+01	   2.1611762e-01	   5.9284650e-01	
   5.8025000e+01	   6.0697215e-01	   8.3934496e-01	
   5.8080000e+01	   5.5838175e-01	   9.1737537e-01	
   5.8135000e+01	   9.7069000e-01	   9.6175871e-01	
   5.8190000e+01	   1.0201625e+00	   9.8832979e-01	
   5.8245000e+01	   5.2828993e-01	   1.0508733e+00	
   5.8300000e+01	   6.9852500e-01	   1.0911180e+00	
   5.8355000e+01	   9.6763795e-01	   1.1185314e+00	
   5.8410000e+01	   9.6393398e-01	   1.1308845e+00	
   5.8465000e+01	   6.9884998e-01	   1.0861258e+00	
   5.8520000e+01	   6.7592901e-01	   8.3300550e-01	
   5.8575000e+01	   7.0299055e-01	   1.0893512e+00	
   5.8630000e+01	   5.8810116e-01	   9.4584589e-01	
   5.8685000e+01	   5.3011168e-01	   8.6341697e-01	
   5.8740000e+01	   4.9975167e-01	   7.5958519e-01	
   5.8795000e+01	   8.8282325e-01	   1.1249001e+00	
   5.8850000e+01	   1.2364552e+00	   1.2074405e+00	
   5.8905000e+01	   1.2046627e+00	   1.0167417e+00	
   5.8960000e+01	   1.2161289e+00	   1.3566504e+00	
   5.9015000e+01	   1.3319890e+00	   1.2905803e+00	
   5.9070000e+01	   1.6042301e+00	   1.4951230e+00	
   5.9125000e+01	   1.4211650e+00	   1.3869236e+00	
   5.9180000e+01	   1.2488570e+00	   1.3224305e+00	
   5.9235000e+01	   1.2703189e+00	   1.3121356e+00	
   5.9290000e+01	   1.1914077e+00	   1.2168449e+00	
   5.9345000e+01	   1.2953485e+00	   1.1722823e+00	
   5.9400000e+01	   1.0527008e+00	   1.2465787e+00	
   5.9455000e+01	   1.1622119e+00	   1.2813072e+00	
   5.9510000e+01	   1.1853108e+00	   1.2046241e+00	
   5.9565000e+01	   9.2345137e-01	   9.8252674e-01	
   5.9620000e+01	   1.1497762e+00	   1.0798826e+00	
   5.9675000e+01	   1.3332657e+00	   1.2733486e+00	
   5.9730000e+01	   1.5713336e+00	   1.4372043e+00	
   5.9785000e+01	   1.4436718e+00	   1.2478433e+00	
   5.9840000e+01	   1.5013479e+00	   1.4469718e+00	
   5.9895000e+01	   1.4527116e+00	   1.3728635e+00	
   5.9950000e+01	   1.7203255e+00	   1.5074912e+00	
   6.0005000e+01	   1.3976268e+00	   1.3803437e+00	
   6.0060000e+01	   1.3771113e+00	   1.4558535e+00	
   6.0115000e+01	   1.3575767e+00	   1.3862848e+00	
   6.0170000e+01	   1.5015945e+00	   1.4541601e+00	
   6.0225000e+01	   1.2228278e+00	   1.1994997e+00	
   6.0280000e+01	   1.6560827e+00	   1.3980118e+00	
   6.0335000e+01	   1.7704748e+00	   1.4290027e+00	
   6.0390000e+01	   1.2503766e+00	   1.1772473e+00	
   6.0445000e+01	   8.4076700e-01	   9.5228164e-01	
   6.0500000e+01	   1.3185004e+00	   1.1845048e+00	
   6.0555000e+01	   1.4250560e+00	   1.4379047e+00	
   6.0610000e+01	   1.6862405e+00	   1.2954325e+00	
   6.0665000e+01	   1.3627863e+00	   1.3346384e+00	
   6.0720000e+01	   1.5082472e+00	   1.3799454e+00	
   6.0775000e+01	   1.6669479e+00	   1.4368478e+00	
   6.0830000e+01	   1.8803683e+00	   1.4353895e+00	
   6.0885000e+01	   1.4544349e+00	   1.2109881e+00	
   6.0940000e+01	   1.4977497e+00	   1.4385773e+00	
   6.0995000e+01	   1.3986434e+00	   1.3265367e+00	
   6.1050000e+01	   1.5774909e+00	   1.2644259e+00	
   6.1105000e+01	   1.1118021e+00	   1.0059881e+00	
   6.1160000e+01	   1.1649914e+00	   1.1404248e+00	
   6.1215000e+01	   1.5687013e+00	   1.2829906e+00	
   6.1270000e+01	   1.1079002e+00	   9.8016681e-01	
   6.1325000e+01	   1.2073347e+00	   1.1421424e+00	
   6.1380000e+01	   1.3995525e+00	   1.2381135e+00	
   6.1435000e+01	   1.7556395e+00	   1.3448951e+00	
   6.1490000e+01	   1.7248313e+00	   1.3339529e+00	
   6.1545000e+01	   1.3647173e+00	   1.2563454e+00	
   6.1600000e+01	   1.6116409e+00	   1.2602907e+00	
   6.1655000e+01	   1.4790644e+00	   1.2891549e+00	
   6.1710000e+01	   1.7127993e+00	   1.2466115e+00	
   6.1765000e+01	   1.3397779e+00	   1.1152291e+00	
   6.1820000e+01	   1.1814819e+00	   1.1787124e+00	
   6.1875000e+01	   1.1577371e+00	   1.0665291e+00	
   6.1930000e+01	   1.0754398e+00	   1.0105678e+00	
   6.1985000e+01	   1.0005839e+00	   9.3148381e-01	
   6.2040000e+01	   8.7792444e-01	   8.9446622e-01	
   6.2095000e+01	   1.1287111e+00	   8.3442347e-01	
   6.2150000e+01	   1.2658284e+00	   1.0856165e+00	
   6.2205000e+01	   1.3679591e+00	   1.1175885e+00	
   6.2260000e+01	   1.2667624e+00	   1.1412862e+00	
   6.2315000e+01	   1.6908888e+00	   1.3362079e+00	
   6.2370000e+01	   1.6353467e+00	   1.3494087e+00	
   6.2425000e+01	   1.4231585e+00	   1.1230194e+00	
   6.2480000e+01	   1.6095354e+00	   1.1942673e+00	
   6.2535000e+01	   1.7434511e+00	   1.3208378e+00	
   6.2590000e+01	   1.3644496e+00	   1.0318804e+00	
   6.2645000e+01	   1.0088483e+00	   8.2015076e-01	
   6.2700000e+01	   1.3165875e+00	   9.0536219e-01	
   6.2755000e+01	   1.2700797e+00	   9.7093167e-01	
   6.2810000e+01	   1.1267786e+00	   8.7741227e-01	
   6.2865000e+01	   9.0015396e-01	   7.2876404e-01	
   6.2920000e+01	   9.4579597e-01	   7.3550266e-01	
   6.2975000e+01	   1.2481519e+00	   9.0011035e-01	
   6.3030000e+01	   1.0506609e+00	   8.4487575e-01	
   6.3085000e+01	   1.6318359e+00	   1.0342864e+00	
   6.3140000e+01	   1.4293967e+00	   1.0877853e+00	
   6.3195000e+01	   1.5824687e+00	   1.2297139e+00	
   6.3250000e+01	   1.5003885e+00	   1.1500502e+00	
   6.3305000e+01	   1.5516232e+00	   1.1025195e+00	
   6.3360000e+01	   1.2666753e+00	   1.0227958e+00	
   6.3415000e+01	   1.2186668e+00	   1.0857836e+00	
   6.3470000e+01	   1.0103124e+00	   9.4276615e-01	
   6.3525000e+01	   8.2468445e-01	   7.3854076e-01	
   6.3580000e+01	   1.2014440e+00	   7.4525670e-01	
   6.3635000e+01	   1.2070752e+00	   8.6066744e-01	
   6.3690000e+01	   8.8640302e-01	   6.7175942e-01	
   6.3745000e+01	   6.8367654e-01	   5.5139024e-01	
   6.3800000e+01	   6.6410578e-01	   6.4546794e-01	
   6.3855000e+01	   9.2224714e-01	   6.2012003e-01	
   6.3910000e+01	   9.5239865e-01	   7.2995081e-01	
   6.3965000e+01	   1.2929896e+00	   6.6452225e-01	
   6.4020000e+01	   1.1808822e+00	   9.0462956e-01	
   6.4075000e+01	   1.2942629e+00	   9.2321060e-01	
   6.4130000e+01	   1.2977418e+00	   8.3107388e-01	
   6.4185000e+01	   1.0863796e+00	   7.4910357e-01	
   6.4240000e+01	   1.0727210e+00	   1.0078116e+00	
   6.4295000e+01	   1.1273542e+00	   8.1699990e-01	
   6.4350000e+01	   7.3583456e-01	   6.3418538e-01	
   6.4405000e+01	   8.7299870e-01	   6.8926937e-01	
   6.4460000e+01	   5.5924150e-01	   5.2053131e-01	
   6.4515000e+01	   6.6314732e-01	   5.4572373e-01	
   6.4570000e+01	   4.0968991e-01	   4.3021966e-01	
   6.4625000e+01	   6.4225751e-01	   3.7518974e-01	
   6.4680000e+01	   8.3730392e-01	   6.1710512e-01	
   6.4735000e+01	   8.6631438e-01	   7.8257611e-01	
   6.4790000e+01	   8.7025097e-01	   7.6044235e-01	
   6.4845000e+01	   8.7098985e-01	   6.7647352e-01	
   6.4900000e+01	   9.6630431e-01	   6.8525170e-01	
   6.4955000e+01	   7.8683346e-01	   7.5524918e-01	
   6.5010000e+01	   6.0086963e-01	   6.4531619e-01	
   6.5065000e+01	   4.7449606e-01	   5.0281408e-01	
   6.5120000e+01	   6.5449497e-01	   6.0454849e-01	
   6.5175000e+01	   7.2146289e-01	   6.7201792e-01	
   6.5230000e+01	   6.1485904e-01	   5.4386871e-01	
   6.5285000e+01	   2.5107721e-01	   2.4807293e-01	
   6.5340000e+01	   2.9522080e-01	   3.2887254e-01	
   6.5395000e+01	   2.6649688e-01	   2.1901329e-01	
   6.5450000e+01	   3.4196218e-01	   3.5197597e-01	
   6.5505000e+01	   6.4605839e-01	   3.9444109e-01	
   6.5560000e+01	   8.1287218e-01	   6.9103650e-01	
   6.5615000e+01	   1.1575709e+00	   8.1701441e-01	
   6.5670000e+01	   7.6275729e-01	   6.6589356e-01	
   6.5725000e+01	   5.6152513e-01	   6.0175641e-01	
   6.5780000e+01	   6.4532572e-01	   4.7123592e-01	
   6.5835000e+01	   6.3626258e-01	   6.4309045e-01	
   6.5890000e+01	   7.0365544e-01	   5.1006317e-01	
   6.5945000e+01	   1.5158463e-01	   3.3138406e-01	
   6.6000000e+01	   2.6135541e-01	   3.1583520e-01	
   6.6055000e+01	   3.1998236e-01	   5.3561059e-01	
   6.6110000e+01	   3.9238987e-01	   3.4048122e-01	
   6.6165000e+01	   3.0723537e-02	   1.5790016e-01	
   6.6220000e+01	   1.6385888e-01	   2.5517640e-01	
   6.6275000e+01	   2.5925790e-01	   2.2020769e-01	
   6.6330000e+01	   2.3202638e-01	   2.5498177e-01	
   6.6385000e+01	   6.1367063e-01	   4.4324784e-01	
   6.6440000e+01	   7.2745556e-01	   5.5934184e-01	
   6.6495000e+01	   7.7236473e-01	   7.1928248e-01	
   6.6550000e+01	   7.6320087e-01	   6.3815079e-01	
   6.6605000e+01	   5.9168544e-01	   6.2447321e-01	
   6.6660000e+01	   5.9328410e-01	   7.3806259e-01	
   6.6715000e+01	   4.9204484e-01	   5.5012493e-01	
   6.6770000e+01	   3.9032317e-01	   5.1828154e-01	
   6.6825000e+01	   3.0605557e-01	   4.3674460e-01	
   6.6880000e+01	   2.5236655e-01	   4.7530190e-01	
   6.6935000e+01	   6.6208368e-01	   5.1846367e-01	
   6.6990000e+01	  -1.4552722e-01	   1.9704068e-01	
   6.7045000e+01	  -1.8790468e-02	   2.3575932e-01	
   6.7100000e+01	   1.0202713e-01	   2.7600119e-01	
   6.7155000e+01	   1.9192315e-01	   8.8465189e-02	
   6.7210000e+01	   3.1305041e-01	   3.4036023e-01	
   6.7265000e+01	   3.8164793e-01	   2.5496250e-01	
   6.7320000e+01	   6.0421063e-01	   6.2378185e-01	
   6.7375000e+01	   8.5470004e-01	   7.5672891e-01	
   6.7430000e+01	   3.7677895e-01	   4.9312809e-01	
   6.7485000e+01	   3.8846926e-01	   4.4990373e-01	
   6.7540000e+01	   2.2631497e-01	   5.2989212e-01	
   6.7595000e+01	   5.8616767e-01	   6.7366133e-01	
   6.7650000e+01	   1.7156369e-01	   4.5724874e-01	
   6.7705000e+01	   2.8521027e-01	   4.3613000e-01	
   6.7760000e+01	   2.2731754e-01	   4.7487843e-01	
   6.7815000e+01	   8.3729571e-02	   4.2777997e-01	
   6.7870000e+01	   1.5583967e-01	   3.3910416e-01	
   6.7925000e+01	  -5.2979743e-03	   1.5829302e-01	
   6.7980000e+01	   1.6927086e-01	   4.1504037e-01	
   6.8035000e+01	   2.8257926e-01	   4.3265850e-01	
   6.8090000e+01	   5.5059567e-01	   4.2216111e-01	
   6.8145000e+01	   8.0021231e-01	   6.4334130e-01	
   6.8200000e+01	   2.9442573e-01	   4.8214788e-01	
   6.8255000e+01	   4.8831808e-01	   6.5142925e-01	
   6.8310000e+01	   5.9656266e-01	   5.4619438e-01	
   6.8365000e+01	   3.9885942e-01	   5.4296661e-01	
   6.8420000e+01	   3.5048178e-01	   5.5557209e-01	
   6.8475000e+01	   2.4586023e-01	   4.5962692e-01	
   6.8530000e+01	   6.0395241e-01	   3.6089980e-01	
   6.8585000e+01	  -1.7778815e-01	   8.0631418e-02	
   6.8640000e+01	  -2.7867315e-02	   2.7051395e-01	
   6.8695000e+01	   2.3210012e-01	   4.6751272e-01	
   6.8750000e+01	  -7.0700469e-03	   1.0405952e-01	
   6.8805000e+01	   2.0497472e-01	   3.2802266e-01	
   6.8860000e+01	   4.3613857e-01	   5.3557264e-01	
   6.8915000e+01	   7.8274488e-01	   7.1871438e-01	
   6.8970000e+01	   7.2387553e-01	   6.6665381e-01	
   6.9025000e+01	   4.1212192e-01	   4.5525422e-01	
   6.9080000e+01	   7.6129044e-01	   7.6450407e-01	
   6.9135000e+01	   4.7277562e-01	   6.4215253e-01	
   6.9190000e+01	   7.4078595e-01	   7.4975860e-01	
   6.9245000e+01	   3.9900968e-01	   5.6079934e-01	
   6.9300000e+01	   5.8846848e-01	   7.2869889e-01	
   6.9355000e+01	   5.6237629e-01	   5.1355041e-01	
   6.9410000e+01	   1.1461079e-01	   3.9986795e-01	
   6.9465000e+01	   2.6967860e-01	   4.5552197e-01	
   6.9520000e+01	   1.2319705e-01	   3.1805984e-01	
   6.9575000e+01	   4.7991881e-01	   3.0604425e-01	
   6.9630000e+01	   6.8794115e-01	   4.8280352e-01	
   6.9685000e+01	   9.0945548e-01	   6.8599372e-01	
   6.9740000e+01	   8.9563142e-01	   8.4517620e-01	
   6.9795000e+01	   1.1021350e+00	   8.4196576e-01	
   6.9850000e+01	   9.7518371e-01	   7.3243002e-01	
   6.9905000e+01	   6.7182086e-01	   8.2169908e-01	
   6.9960000e+01	   1.0198346e+00	   8.5782319e-01	
   7.0015000e+01	   1.0598479e+00	   8.0739771e-01	
   7.0070000e+01	   9.0953173e-01	   7.2699396e-01	
   7.0125000e+01	   5.0442384e-01	   6.0233532e-01	
   7.0180000e+01	   9.3049765e-01	   7.5288580e-01	
   7.0235000e+01	   8.3034379e-01	   7.2121147e-01	
   7.0290000e+01	   5.4416620e-01	   4.7479257e-01	
   7.0345000e+01	   3.4949456e-01	   4.5556249e-01	
   7.0400000e+01	   5.9236125e-01	   6.4724059e-01	
   7.0455000e+01	   1.5374552e-01	   2.8630505e-01	
   7.0510000e+01	   5.3863900e-01	   5.1329261e-01	
   7.0565000e+01	   7.9904284e-01	   7.9384852e-01	
   7.0620000e+01	   9.5213256e-01	   7.7853661e-01	
   7.0675000e+01	   1.0163028e+00	   9.0616544e-01	
   7.0730000e+01	   6.2773285e-01	   6.5153545e-01	
   7.0785000e+01	   1.0362443e+00	   9.8009169e-01	
   7.0840000e+01	   9.0376827e-01	   8.3773027e-01	
   7.0895000e+01	   8.3613134e-01	   7.7347053e-01	
   7.0950000e+01	   9.9855988e-01	   8.0084207e-01	
   7.1005000e+01	   5.0335598e-01	   5.9966873e-01	
   7.1060000e+01	   8.1035728e-01	   9.4238300e-01	
   7.1115000e+01	   8.5116489e-01	   6.4763386e-01	
   7.1170000e+01	   5.7343612e-01	   4.4937078e-01	
   7.1225000e+01	   5.0233539e-01	   6.0509272e-01	
   7.1280000e+01	   2.5979001e-01	   4.4621342e-01	
   7.1335000e+01	   6.9773076e-01	   6.8413224e-01	
   7.1390000e+01	   9.0390579e-01	   7.4027358e-01	
   7.1445000e+01	   8.9379453e-01	   8.7316918e-01	
   7.1500000e+01	   1.0919106e+00	   9.7705087e-01	
   7.1555000e+01	   9.2816458e-01	   9.1674408e-01	
   7.1610000e+01	   5.1363014e-01	   7.3585371e-01	
   7.1665000e+01	   7.9436613e-01	   8.5141829e-01	
   7.1720000e+01	   8.2639186e-01	   7.7308172e-01	
   7.1775000e+01	   9.2578164e-01	   7.9149377e-01	
   7.1830000e+01	   7.7161667e-01	   7.1866688e-01	
   7.1885000e+01	   7.4469038e-01	   6.8881695e-01	
   7.1940000e+01	   1.0324952e+00	   7.6593993e-01	
   7.1995000e+01	   6.1215309e-01	   5.1828154e-01	
   7.2050000e+01	   2.5543543e-01	   3.6110531e-01	
   7.2105000e+01	   4.6162902e-01	   4.3682987e-01	
   7.2160000e+01	   6.3315535e-01	   7.6451474e-01	
   7.2215000e+01	   1.0096830e+00	   8.4678021e-01	
   7.2270000e+01	   7.9196198e-01	   8.8732964e-01	
   7.2325000e+01	   9.4628766e-01	   9.3932001e-01	
   7.2380000e+01	   1.2785893e+00	   1.1146949e+00	
   7.2435000e+01	   1.1010222e+00	   1.0440004e+00	
   7.2490000e+01	   9.2673389e-01	   9.4221699e-01	
   7.2545000e+01	   1.1185992e+00	   9.7247904e-01	
   7.2600000e+01	   1.2672693e+00	   8.7805290e-01	
   7.2655000e+01	   7.6461188e-01	   7.8826383e-01	
   7.2710000e+01	   8.8928221e-01	   6.7323377e-01	
   7.2765000e+01	   7.4831436e-01	   7.2054749e-01	
   7.2820000e+01	   9.9258260e-01	   8.3645104e-01	
   7.2875000e+01	   8.4491237e-01	   7.6431720e-01	
   7.2930000e+01	   4.3703833e-01	   4.4480610e-01	
   7.2985000e+01	   4.6404681e-01	   4.1810958e-01	
   7.3040000e+01	   5.7057701e-01	   5.6898052e-01	
   7.3095000e+01	   1.0333493e+00	   6.6464761e-01	
   7.3150000e+01	   9.6453758e-01	   6.3625883e-01	
   7.3205000e+01	   1.0368638e+00	   1.0301477e+00	
   7.3260000e+01	   1.0488414e+00	   9.4771589e-01	
   7.3315000e+01	   1.3416658e+00	   9.4168262e-01	
   7.3370000e+01	   1.0138642e+00	   8.7153450e-01	
   7.3425000e+01	   1.3133588e+00	   1.2280111e+00	
   7.3480000e+01	   1.1507711e+00	   9.1669797e-01	
   7.3535000e+01	   9.4715993e-01	   7.4859390e-01	
   7.3590000e+01	   7.5265070e-01	   7.2576944e-01	
   7.3645000e+01	   8.9588415e-01	   6.4713345e-01	
   7.3700000e+01	   1.0128014e+00	   8.5151681e-01	
   7.3755000e+01	   6.3355233e-01	   5.9753839e-01	
   7.3810000e+01	   7.1616041e-01	   5.7305532e-01	
   7.3865000e+01	   7.0718061e-01	   7.3201215e-01	
   7.3920000e+01	   6.0056671e-01	   5.3510936e-01	
   7.3975000e+01	   7.0206875e-01	   5.3550828e-01	
   7.4030000e+01	   8.7392111e-01	   7.4867181e-01	
   7.4085000e+01	   9.3143174e-01	   9.2993509e-01	
   7.4140000e+01	   1.1168700e+00	   1.0788325e+00	
   7.4195000e+01	   1.2021111e+00	   8.1366692e-01	
   7.4250000e+01	   9.9998858e-01	   8.4678025e-01	
   7.4305000e+01	   1.0480923e+00	   9.4468751e-01	
   7.4360000e+01	   1.0020726e+00	   9.3375155e-01	
   7.4415000e+01	   8.6358104e-01	   7.7648295e-01	
   7.4470000e+01	   7.5396943e-01	   7.6938444e-01	
   7.4525000e+01	   6.2453039e-01	   8.0769086e-01	
   7.4580000e+01	   5.5773989e-01	   6.2923481e-01	
   7.4635000e+01	   2.8696371e-01	   4.4462153e-01	
   7.4690000e+01	   3.4381429e-01	   4.7973082e-01	
   7.4745000e+01	   5.6810393e-01	   6.4775197e-01	
   7.4800000e+01	   9.1527839e-01	   7.5695052e-01	
   7.4855000e+01	   7.2529145e-01	   8.0747049e-01	
   7.4910000e+01	   1.0674726e+00	   1.0214620e+00	
   7.4965000e+01	   1.1930966e+00	   8.1830504e-01	
   7.5020000e+01	   9.4298102e-01	   8.3172967e-01	
   7.5075000e+01	   8.0284365e-01	   8.5741863e-01	
   7.5130000e+01	   6.7797874e-01	   7.7042912e-01	
   7.5185000e+01	   9.3007251e-01	   7.6062640e-01	
   7.5240000e+01	   7.8845235e-01	   8.6238194e-01	
   7.5295000e+01	   7.3356535e-01	   6.4147058e-01	
   7.5350000e+01	   6.3425320e-01	   6.7023460e-01	
   7.5405000e+01	   7.3014280e-01	   7.3845875e-01	
   7.5460000e+01	   5.4510683e-01	   5.4055913e-01	
   7.5515000e+01	   6.8325657e-01	   5.9912190e-01	
   7.5570000e+01	   8.8226845e-01	   8.3650038e-01	
   7.5625000e+01	   1.0598452e+00	   1.0203396e+00	
   7.5680000e+01	   1.1753485e+00	   1.1251570e+00	
   7.5735000e+01	   1.1859644e+00	   9.2001566e-01	
   7.5790000e+01	   1.2885980e+00	   9.0065459e-01	
   7.5845000e+01	   1.1204099e+00	   9.4745990e-01	
   7.5900000e+01	   1.2012922e+00	   8.8704224e-01	
   7.5955000e+01	   8.9275053e-01	   9.1416413e-01	
   7.6010000e+01	   9.1626309e-01	   8.9063412e-01	
   7.6065000e+01	   9.4148947e-01	   8.8684857e-01	
   7.6120000e+01	   1.1618137e+00	   8.1892359e-01	
   7.6175000e+01	   9.1458245e-01	   7.5269193e-01	
   7.6230000e+01	   6.6525522e-01	   7.5738869e-01	
   7.6285000e+01	   8.0095170e-01	   7.0125502e-01	
   7.6340000e+01	   6.4102754e-01	   5.9237485e-01	
   7.6395000e+01	   1.0255086e+00	   7.3469873e-01	
   7.6450000e+01	   9.5332680e-01	   8.6568396e-01	
   7.6505000e+01	   1.3293277e+00	   1.0965232e+00	
   7.6560000e+01	   1.4915984e+00	   1.0924582e+00	
   7.6615000e+01	   1.3449041e+00	   1.0151478e+00	
   7.6670000e+01	   1.2552454e+00	   1.1013785e+00	
   7.6725000e+01	   1.4345031e+00	   1.1485531e+00	
   7.6780000e+01	   1.3802105e+00	   1.0264619e+00	
   7.6835000e+01	   1.5491326e+00	   9.6927523e-01	
   7.6890000e+01	   1.0760992e+00	   9.9553359e-01	
   7.6945000e+01	   1.1143841e+00	   1.0512420e+00	
   7.7000000e+01	   1.2728674e+00	   9.1208962e-01	
   7.7055000e+01	   1.0325026e+00	   8.1704332e-01	
   7.7110000e+01	   9.8169115e-01	   7.8707786e-01	
   7.7165000e+01	   1.0780457e+00	   9.0569516e-01	
   7.7220000e+01	   9.8400910e-01	   8.3651871e-01	
   7.7275000e+01	   1.1138386e+00	   8.4684510e-01	
   7.7330000e+01	   1.2018183e+00	   1.1054552e+00	
   7.7385000e+01	   1.7029790e+00	   1.3482512e+00	
   7.7440000e+01	   1.5667819e+00	   1.1555083e+00	
   7.7495000e+01	   1.4814253e+00	   1.2516564e+00	
   7.7550000e+01	   1.6473334e+00	   1.2737366e+00	
   7.7605000e+01	   1.4869678e+00	   1.1608570e+00	
   7.7660000e+01	   1.7158637e+00	   1.1332058e+00	
   7.7715000e+01	   1.2450743e+00	   8.5230747e-01	
   7.7770000e+01	   1.2557000e+00	   9.8953419e-01	
   7.7825000e+01	   1.2170498e+00	   1.0245830e+00	
   7.7880000e+01	   1.1665406e+00	   8.4248369e-01	
   7.7935000e+01	   9.5009893e-01	   8.9859615e-01	
   7.7990000e+01	   1.0242445e+00	   8.6314868e-01	
   7.8045000e+01	   1.2284733e+00	   8.7642871e-01	
   7.8100000e+01	   1.5072358e+00	   1.0941531e+00	
   7.8155000e+01	   1.4693879e+00	   1.0079345e+00	
   7.8210000e+01	   1.2782162e+00	   1.1751413e+00	
   7.8265000e+01	   1.6376095e+00	   1.2247271e+00	
   7.8320000e+01	   1.5207965e+00	   1.1610441e+00	
   7.8375000e+01	   1.4296266e+00	   9.8462533e-01	
   7.8430000e+01	   1.7066321e+00	   1.2342477e+00	
   7.8485000e+01	   1.3389324e+00	   1.1782452e+00	
   7.8540000e+01	   1.3472740e+00	   1.0143172e+00	
   7.8595000e+01	   1.2377063e+00	   8.9989878e-01	
   7.8650000e+01	   1.5624542e+00	   1.1411997e+00	
   7.8705000e+01	   1.3610864e+00	   1.0635315e+00	
   7.8760000e+01	   8.4772519e-01	   7.0347102e-01	
   7.8815000e+01	   1.1070326e+00	   9.4440556e-01	
   7.8870000e+01	   1.2033666e+00	   1.1783482e+00	
   7.8925000e+01	   1.4843500e+00	   1.1414225e+00	
   7.8980000e+01	   1.2787010e+00	   1.0732108e+00	
   7.9035000e+01	   1.6439705e+00	   1.3480498e+00	
   7.9090000e+01	   1.5562143e+00	   1.2739531e+00	
   7.9145000e+01	   1.4824104e+00	   1.1255863e+00	
   7.9200000e+01	   1.1453968e+00	   1.0805548e+00	
   7.9255000e+01	   1.2566100e+00	   9.6461497e-01	
   7.9310000e+01	   1.2689343e+00	   1.1261375e+00	
   7.9365000e+01	   1.2355953e+00	   1.0250847e+00	
   7.9420000e+01	   1.1525265e+00	   9.7143523e-01	
   7.9475000e+01	   1.0956927e+00	   8.8042822e-01	
   7.9530000e+01	   7.7519351e-01	   7.8902704e-01	
   7.9585000e+01	   8.6299993e-01	   7.7644571e-01	
   7.9640000e+01	   1.2276183e+00	   9.4327532e-01	
   7.9695000e+01	   1.3712542e+00	   1.0853723e+00	
   7.9750000e+01	   1.9068677e+00	   1.3396876e+00	
   7.9805000e+01	   1.6471443e+00	   1.1971635e+00	
   7.9860000e+01	   1.4942334e+00	   1.1686348e+00	
   7.9915000e+01	   1.3827218e+00	   1.0308615e+00	
   7.9970000e+01	   1.3433590e+00	   1.2131214e+00	
   8.0025000e+01	   1.3390443e+00	   1.0748664e+00	
   8.0080000e+01	   1.1864419e+00	   1.0184694e+00	
   8.0135000e+01	   1.3215921e+00	   1.0423654e+00	
   8.0190000e+01	   1.3719995e+00	   1.1322772e+00	
   8.0245000e+01	   1.2313929e+00	   1.0421572e+00	
   8.0300000e+01	   9.4931023e-01	   9.0148142e-01	
   8.0355000e+01	   1.0244159e+00	   9.1649480e-01	
   8.0410000e+01	   9.9386504e-01	   9.6522288e-01	
   8.0465000e+01	   1.4005834e+00	   1.0199743e+00	
   8.0520000e+01	   1.3595293e+00	   1.0853577e+00	
   8.0575000e+01	   1.4755247e+00	   1.0462209e+00	
   8.0630000e+01	   1.4310607e+00	   1.2448554e+00	
   8.0685000e+01	   1.3265406e+00	   1.1061640e+00	
   8.0740000e+01	   1.1062848e+00	   1.1171800e+00	
   8.0795000e+01	   1.4512273e+00	   1.1902286e+00	
   8.0850000e+01	   1.3596719e+00	   1.2909507e+00	
   8.0905000e+01	   1.3931330e+00	   1.1172799e+00	
   8.0960000e+01	   9.1643702e-01	   7.8576066e-01	
   8.1015000e+01	   1.1053495e+00	   1.0399700e+00	
   8.1070000e+01	   1.0786868e+00	   9.5461762e-01	
   8.1125000e+01	   1.2767415e+00	   9.1309191e-01	
   8.1180000e+01	   7.2328397e-01	   6.1256773e-01	
   8.1235000e+01	   7.0192863e-01	   7.8890497e-01	
   8.1290000e+01	   1.2534145e+00	   9.6417598e-01	
   8.1345000e+01	   1.1676657e+00	   8.9060291e-01	
   8.1400000e+01	   1.0829708e+00	   8.6780008e-01	
   8.1455000e+01	   1.5006735e+00	   1.1724485e+00	
   8.1510000e+01	   1.4940085e+00	   1.2486684e+00	
   8.1565000e+01	   1.4260752e+00	   1.0071626e+00	
   8.1620000e+01	   1.2127564e+00	   1.1235695e+00	
   8.1675000e+01	   1.2647423e+00	   1.2377332e+00	
   8.1730000e+01	   1.3612061e+00	   1.1577061e+00	
   8.1785000e+01	   9.6392537e-01	   8.8711729e-01	
   8.1840000e+01	   1.1359699e+00	   1.0040945e+00	
   8.1895000e+01	   1.2686159e+00	   9.7086468e-01	
   8.1950000e+01	   1.0398310e+00	   8.8982524e-01	
   8.2005000e+01	   9.8574320e-01	   7.0998286e-01	
   8.2060000e+01	   9.2095806e-01	   7.3871440e-01	
   8.2115000e+01	   7.6383314e-01	   6.4215516e-01	
   8.2170000e+01	   1.1538409e+00	   8.2862631e-01	
   8.2225000e+01	   1.1861097e+00	   9.8505992e-01	
   8.2280000e+01	   1.2890023e+00	   1.0293446e+00	
   8.2335000e+01	   1.3505939e+00	   1.0300203e+00	
   8.2390000e+01	   1.4821868e+00	   1.2461008e+00	
   8.2445000e+01	   1.2755134e+00	   1.0583023e+00	
   8.2500000e+01	   1.0627612e+00	   9.1370667e-01	
   8.2555000e+01	   1.2312818e+00	   1.0001135e+00	
   8.2610000e+01	   9.9577746e-01	   1.0068566e+00	
   8.2665000e+01	   1.1513276e+00	   8.7789295e-01	
   8.2720000e+01	   9.4390067e-01	   7.8550731e-01	
   8.2775000e+01	   1.0914518e+00	   7.6168327e-01	
   8.2830000e+01	   7.8442965e-01	   7.2500956e-01	
   8.2885000e+01	   9.3262254e-01	   5.8659372e-01	
   8.2940000e+01	   1.1029529e+00	   7.1177414e-01	
   8.2995000e+01	   1.1666054e+00	   9.8745053e-01	
   8.3050000e+01	   1.2433230e+00	   1.0349885e+00	
   8.3105000e+01	   1.3215608e+00	   1.1276785e+00	
   8.3160000e+01	   1.1371899e+00	   1.0637174e+00	
   8.3215000e+01	   1.3114862e+00	   1.0793011e+00	
   8.3270000e+01	   1.3430874e+00	   9.8021621e-01	
   8.3325000e+01	   1.3017398e+00	   9.1323993e-01	
   8.3380000e+01	   1.2469272e+00	   8.6929799e-01	
   8.3435000e+01	   1.1237807e+00	   9.2200805e-01	
   8.3490000e+01	   8.9210402e-01	   8.7998443e-01	
   8.3545000e+01	   1.1983073e+00	   8.7480489e-01	
   8.3600000e+01	   8.4662096e-01	   6.8868916e-01	
   8.3655000e+01	   5.6916237e-01	   6.0115768e-01	
   8.3710000e+01	   9.2631330e-01	   6.3430880e-01	
   8.3765000e+01	   1.0558577e+00	   8.5205682e-01	
   8.3820000e+01	   1.2103573e+00	   9.8752476e-01	
   8.3875000e+01	   1.3772629e+00	   1.0197078e+00	
   8.3930000e+01	   1.4611099e+00	   1.2407245e+00	
   8.3985000e+01	   1.2809194e+00	   9.0295606e-01	
   8.4040000e+01	   1.2642133e+00	   1.0601959e+00	
   8.4095000e+01	   1.4431515e+00	   1.0509190e+00	
   8.4150000e+01	   1.0758568e+00	   9.7767664e-01	
   8.4205000e+01	   1.2633028e+00	   9.5303404e-01	
   8.4260000e+01	   1.0743233e+00	   8.6848986e-01	
   8.4315000e+01	   1.2518416e+00	   9.1293794e-01	
   8.4370000e+01	   1.2231378e+00	   9.2183353e-01	
   8.4425000e+01	   9.2900698e-01	   7.6906911e-01	
   8.4480000e+01	   3.9594992e-01	   5.9407214e-01	
   8.4535000e+01	   8.9771329e-01	   6.2354048e-01	
   8.4590000e+01	   1.0375678e+00	   7.1896006e-01	
   8.4645000e+01	   8.6573938e-01	   7.2813252e-01	
   8.4700000e+01	   1.2329566e+00	   9.2260481e-01	
   8.4755000e+01	   1.4715871e+00	   1.0895776e+00	
   8.4810000e+01	   1.6216736e+00	   1.0173325e+00	
   8.4865000e+01	   1.2231490e+00	   9.0867712e-01	
   8.4920000e+01	   1.4259985e+00	   9.4977093e-01	
   8.4975000e+01	   1.4694837e+00	   1.0660219e+00	
   8.5030000e+01	   1.2403788e+00	   1.0024204e+00	
   8.5085000e+01	   1.0177776e+00	   7.9270653e-01	
   8.5140000e+01	   1.0647211e+00	   6.6987025e-01	
   8.5195000e+01	   1.0359756e+00	   7.6259276e-01	
   8.5250000e+01	   9.1049380e-01	   7.0335768e-01	
   8.5305000e+01	   6.5471553e-01	   5.5567171e-01	
   8.5360000e+01	   7.7551757e-01	   6.3042579e-01	
   8.5415000e+01	   6.6267843e-01	   6.2685763e-01	
   8.5470000e+01	   5.7109748e-01	   3.2480858e-01	
   8.5525000e+01	   8.4223626e-01	   6.7205616e-01	
   8.5580000e+01	   1.2283473e+00	   9.0528495e-01	
   8.5635000e+01	   1.1810641e+00	   8.2123466e-01	
   8.5690000e+01	   1.3320908e+00	   8.1249762e-01	
   8.5745000e+01	   8.7544098e-01	   7.2609501e-01	
   8.5800000e+01	   1.1005844e+00	   7.6913236e-01	
   8.5855000e+01	   1.0532422e+00	   7.9835283e-01	
   8.5910000e+01	   8.2900344e-01	   6.2807451e-01	
   8.5965000e+01	   1.0187828e+00	   6.1240607e-01	
   8.6020000e+01	   6.5686601e-01	   5.8670243e-01	
   8.6075000e+01	   6.7954311e-01	   4.6045508e-01	
   8.6130000e+01	   7.2345963e-01	   4.6198566e-01	
   8.6185000e+01	   7.2505271e-01	   4.2876850e-01	
   8.6240000e+01	   5.2307845e-01	   4.2398738e-01	
   8.6295000e+01	   6.8558957e-01	   5.6229270e-01	
   8.6350000e+01	   8.2510949e-01	   6.2857825e-01	
   8.6405000e+01	   9.3519140e-01	   6.4779788e-01	
   8.6460000e+01	   1.0299826e+00	   7.8943979e-01	
   8.6515000e+01	   1.1075898e+00	   8.1656619e-01	
   8.6570000e+01	   8.1782978e-01	   6.0457723e-01	
   8.6625000e+01	   7.5626777e-01	   6.0784169e-01	
   8.6680000e+01	   8.1267619e-01	   7.1917368e-01	
   8.6735000e+01	   8.5546082e-01	   6.4042424e-01	
   8.6790000e+01	   4.8711638e-01	   2.4715589e-01	
   8.6845000e+01	   6.3631091e-01	   4.4781209e-01	
   8.6900000e+01	   6.1142838e-01	   5.2383604e-01	
   8.6955000e+01	   3.6401142e-01	   2.6301706e-01	
   8.7010000e+01	   1.2470464e-01	   1.4936688e-01	
   8.7065000e+01	   2.0391601e-01	   2.3254614e-01	
   8.7120000e+01	   7.9078083e-01	   6.2083835e-01	
   8.7175000e+01	   5.9485298e-01	   6.5535675e-01	
   8.7230000e+01	   6.6037725e-01	   6.0193210e-01	
   8.7285000e+01	   9.5279798e-01	   8.6766560e-01	
   8.7340000e+01	   7.6280209e-01	   7.1098761e-01	
   8.7395000e+01	   8.8159862e-01	   6.7565432e-01	
   8.7450000e+01	   8.1040692e-01	   7.1512111e-01	
   8.7505000e+01	   7.2197689e-01	   5.8948481e-01	
   8.7560000e+01	   5.2086902e-01	   6.2718911e-01	
   8.7615000e+01	   4.7131581e-01	   5.4494195e-01	
   8.7670000e+01	   6.3842930e-01	   4.7086645e-01	
   8.7725000e+01	   9.1383416e-02	   2.9324367e-01	
   8.7780000e+01	   1.7889678e-01	   4.1692224e-01	
   8.7835000e+01	   2.4930876e-01	   3.7799060e-01	
   8.7890000e+01	  -7.2509951e-02	   1.0043967e-01	
   8.7945000e+01	   3.5318104e-01	   3.9388610e-01	
   8.8000000e+01	   4.1167810e-01	   4.1097424e-01	
   8.8055000e+01	   8.1962628e-01	   7.1015599e-01	
   8.8110000e+01	   7.3371348e-01	   5.9332651e-01	
   8.8165000e+01	   7.3269141e-01	   6.4615549e-01	
   8.8220000e+01	   7.5384406e-01	   7.2110586e-01	
   8.8275000e+01	   8.3701671e-01	   7.6535795e-01	
   8.8330000e+01	   7.5316221e-01	   6.8102252e-01	
   8.8385000e+01	   6.1329202e-01	   5.6090983e-01	
   8.8440000e+01	   6.3170955e-01	   6.8083408e-01	
   8.8495000e+01	   7.0890260e-01	   7.5970555e-01	
   8.8550000e+01	   2.1543297e-01	   3.4440356e-01	
   8.8605000e+01	   4.5363423e-01	   4.5000145e-01	
   8.8660000e+01	   5.0145928e-01	   4.9877601e-01	
   8.8715000e+01	   2.0556637e-01	   3.7181253e-01	
   8.8770000e+01	   3.5334462e-01	   3.4110474e-01	
   8.8825000e+01	   4.0337388e-01	   3.9941572e-01	
   8.8880000e+01	   7.4032391e-01	   7.2137808e-01	
   8.8935000e+01	   7.4587598e-01	   7.0598945e-01	
   8.8990000e+01	   6.8192173e-01	   6.2948458e-01	
   8.9045000e+01	   9.2053368e-01	   8.5127340e-01	
   8.9100000e+01	   8.3874465e-01	   8.1024383e-01	
   8.9155000e+01	   7.5849552e-01	   8.2116935e-01	
   8.9210000e+01	   4.2512596e-01	   5.1852398e-01	
   8.9265000e+01	   4.9544535e-01	   5.9946288e-01	
   8.9320000e+01	   7.3291585e-01	   7.4608000e-01	
   8.9375000e+01	   6.4283479e-01	   6.5535675e-01	
   8.9430000e+01	   3.8721935e-01	   5.1980940e-01	
   8.9485000e+01	   3.6895604e-01	   4.6370320e-01	
   8.9540000e+01	   6.0097992e-01	   5.6423862e-01	
   8.9595000e+01	   2.9915464e-01	   4.1223252e-01	
   8.9650000e+01	   7.7859394e-01	   6.4967543e-01	
   8.9705000e+01	   7.4536149e-01	   8.1051968e-01	
   8.9760000e+01	   9.8741505e-01	   9.9253304e-01	
   8.9815000e+01	   7.6283277e-01	   7.5329941e-01	
   8.9870000e+01	   6.6178272e-01	   6.3350221e-01	
   8.9925000e+01	   9.0054554e-01	   9.3920163e-01	
   8.9980000e+01	   6.4503898e-01	   7.3068501e-01	
   9.0035000e+01	   5.9559375e-01	   6.0442932e-01	
   9.0090000e+01	   6.4099556e-01	   5.6898333e-01	
   9.0145000e+01	   3.7798535e-01	   7.0468726e-01	
   9.0200000e+01	   8.6083817e-01	   8.0712792e-01	
   9.0255000e+01	   4.2849286e-01	   5.9206023e-01	
   9.0310000e+01	   4.4812832e-01	   4.9818401e-01	
   9.0365000e+01	   4.2102760e-01	   5.5791689e-01	
   9.0420000e+01	   5.2659545e-01	   6.3773398e-01	
   9.0475000e+01	   8.1875095e-01	   7.6845597e-01	
   9.0530000e+01	   7.0663376e-01	   6.4189984e-01	
   9.0585000e+01	   9.2038370e-01	   1.0541847e+00	
   9.0640000e+01	   1.0647341e+00	   1.0391018e+00	
   9.0695000e+01	   9.5797090e-01	   9.1581619e-01	
   9.0750000e+01	   8.3536776e-01	   9.8517974e-01	
   9.0805000e+01	   8.9642817e-01	   9.2794061e-01	
   9.0860000e+01	   7.8772526e-01	   9.2306968e-01	
   9.0915000e+01	   5.6323297e-01	   7.2128426e-01	
   9.0970000e+01	   6.6103612e-01	   7.8137106e-01	
   9.1025000e+01	   8.3100538e-01	   8.9705107e-01	
   9.1080000e+01	   7.0961553e-01	   7.8598611e-01	
   9.1135000e+01	   4.2282370e-01	   5.5701802e-01	
   9.1190000e+01	   4.0966015e-01	   5.0194062e-01	
   9.1245000e+01	   4.6831361e-01	   6.6819509e-01	
   9.1300000e+01	   7.6898208e-01	   7.7680371e-01	
   9.1355000e+01	   7.2407140e-01	   8.0872740e-01	
   9.1410000e+01	   8.2104448e-01	   9.1874688e-01	
   9.1465000e+01	   1.1192830e+00	   1.1606853e+00	
   9.1520000e+01	   9.9113482e-01	   8.9748668e-01	
   9.1575000e+01	   9.8754271e-01	   9.0708146e-01	
   9.1630000e+01	   1.2525125e+00	   1.0192569e+00	
   9.1685000e+01	   8.9743960e-01	   1.0432516e+00	
   9.1740000e+01	   1.1764764e+00	   1.0772984e+00	
   9.1795000e+01	   8.1956426e-01	   9.4370313e-01	
   9.1850000e+01	   6.7502695e-01	   6.5611404e-01	
   9.1905000e+01	   6.3746601e-01	   9.0031405e-01	
   9.1960000e+01	   5.6383301e-01	   7.6182923e-01	
   9.2015000e+01	   4.8544827e-01	   6.4676698e-01	
   9.2070000e+01	   2.5123275e-01	   6.6977670e-01	
   9.2125000e+01	   4.8434542e-01	   6.1101178e-01	
   9.2180000e+01	   5.5015355e-01	   7.9721804e-01	
   9.2235000e+01	   9.7687651e-01	   8.5769355e-01	
   9.2290000e+01	   8.2492957e-01	   8.6462232e-01	
   9.2345000e+01	   1.1638923e+00	   1.2045351e+00	
   9.2400000e+01	   1.0830864e+00	   1.0495352e+00	
   9.2455000e+01	   9.0686802e-01	   9.8453074e-01	
   9.2510000e+01	   1.0415009e+00	   1.0153646e+00	
   9.2565000e+01	   1.2984413e+00	   1.1709610e+00	
   9.2620000e+01	   1.0697136e+00	   1.0677355e+00	
   9.2675000e+01	   8.5195131e-01	   7.7997654e-01	
   9.2730000e+01	   9.1232437e-01	   8.2060621e-01	
   9.2785000e+01	   8.1459915e-01	   9.6297999e-01	
   9.2840000e+01	   8.2818464e-01	   8.0173045e-01	
   9.2895000e+01	   5.3876330e-01	   5.8752830e-01	
   9.2950000e+01	   3.7415224e-01	   5.6272610e-01	
   9.3005000e+01	   4.2998988e-01	   6.7106471e-01	
   9.3060000e+01	   7.6196596e-01	   7.5531186e-01	
   9.3115000e+01	   7.3249850e-01	   7.2637967e-01	
   9.3170000e+01	   7.3132762e-01	   9.3245198e-01	
   9.3225000e+01	   1.0602253e+00	   9.4715973e-01	
   9.3280000e+01	   1.1542174e+00	   9.8074822e-01	
   9.3335000e+01	   8.4675953e-01	   8.1831742e-01	
   9.3390000e+01	   8.1758145e-01	   8.9744023e-01	
   9.3445000e+01	   9.2937181e-01	   9.8689985e-01	
   9.3500000e+01	   7.5389843e-01	   7.7796490e-01	
   9.3555000e+01	   5.8432686e-01	   5.9384959e-01	
   9.3610000e+01	   3.2022131e-01	   5.9941022e-01	
   9.3665000e+01	   7.6261029e-01	   8.9697971e-01	
   9.3720000e+01	   5.0388203e-01	   5.2721130e-01	
   9.3775000e+01	   3.8327929e-01	   3.1848853e-01	
   9.3830000e+01	   5.6399313e-01	   7.1857519e-01	
   9.3885000e+01	   8.2997758e-01	   8.2637186e-01	
   9.3940000e+01	   9.6793933e-01	   9.5055731e-01	
   9.3995000e+01	   7.2901474e-01	   7.9467781e-01	
   9.4050000e+01	   9.9430807e-01	   9.9941767e-01	
   9.4105000e+01	   9.4616126e-01	   9.8708358e-01	
   9.4160000e+01	   6.1112025e-01	   6.3959326e-01	
   9.4215000e+01	   4.4368777e-01	   6.9824482e-01	
   9.4270000e+01	   6.3008675e-01	   7.5880580e-01	
   9.4325000e+01	   3.9761416e-01	   6.0221159e-01	
   9.4380000e+01	   9.3710342e-01	   8.1761117e-01	
   9.4435000e+01	   4.3490739e-01	   4.4567063e-01	
   9.4490000e+01	   1.8144107e-01	   4.8863159e-01	
   9.4545000e+01	   4.3886399e-01	   4.8282445e-01	
   9.4600000e+01	   6.6950440e-01	   6.7036855e-01	
   9.4655000e+01	   6.3127565e-01	   7.4582109e-01	
   9.4710000e+01	   1.0670055e+00	   7.7650153e-01	
   9.4765000e+01	   9.9950916e-01	   9.6072855e-01	
   9.4820000e+01	   8.1405487e-01	   8.2119673e-01	
   9.4875000e+01	   8.9200277e-01	   9.5938338e-01	
   9.4930000e+01	   9.1647278e-01	   9.1766920e-01	
   9.4985000e+01	   1.1794774e+00	   9.5815864e-01	
   9.5040000e+01	   6.5936595e-01	   7.1011658e-01	
   9.5095000e+01	   6.5834918e-01	   6.5592323e-01	
   9.5150000e+01	   6.3443607e-01	   7.4834177e-01	
   9.5205000e+01	   6.8462517e-01	   8.0512158e-01	
   9.5260000e+01	   4.7518186e-01	   4.1174978e-01	
   9.5315000e+01	   4.1943213e-01	   5.5059072e-01	
   9.5370000e+01	   4.4761540e-01	   5.2670945e-01	
   9.5425000e+01	   5.1746460e-01	   6.2359128e-01	
   9.5480000e+01	   7.5939818e-01	   7.6621460e-01	
   9.5535000e+01	   1.1039157e+00	   9.0099000e-01	
   9.5590000e+01	   1.0225738e+00	   8.6057176e-01	
   9.5645000e+01	   1.1570551e+00	   1.0683800e+00	
   9.5700000e+01	   8.2510392e-01	   9.3740979e-01	
   9.5755000e+01	   8.6190628e-01	   9.2610269e-01	
   9.5810000e+01	   8.5232172e-01	   9.3945916e-01	
   9.5865000e+01	   1.2024729e+00	   9.8633845e-01	
   9.5920000e+01	   1.0111138e+00	   8.1275689e-01	
   9.5975000e+01	   8.6148845e-01	   8.0768261e-01	
   9.6030000e+01	   7.1540503e-01	   6.6199389e-01	
   9.6085000e+01	   9.6847384e-01	   8.1197350e-01	
   9.6140000e+01	   6.8157257e-01	   6.8640556e-01	
   9.6195000e+01	   4.9029323e-01	   5.5634025e-01	
   9.6250000e+01	   7.3657095e-01	   5.2399755e-01	
   9.6305000e+01	   6.4354850e-01	   6.7302961e-01	
   9.6360000e+01	   9.0919428e-01	   7.1343448e-01	
   9.6415000e+01	   7.9987931e-01	   6.1120507e-01	
   9.6470000e+01	   9.7868032e-01	   9.9013728e-01	
   9.6525000e+01	   1.2644634e+00	   9.4835631e-01	
   9.6580000e+01	   1.0561739e+00	   9.5610134e-01	
   9.6635000e+01	   1.0146996e+00	   9.6721527e-01	
   9.6690000e+01	   1.1932946e+00	   1.0623950e+00	
   9.6745000e+01	   1.0950764e+00	   9.8292519e-01	
   9.6800000e+01	   8.3097146e-01	   7.8592711e-01	
   9.6855000e+01	   8.3398691e-01	   6.9397137e-01	
   9.6910000e+01	   7.8269345e-01	   7.6627614e-01	
   9.6965000e+01	   8.6455841e-01	   6.3082504e-01	
   9.7020000e+01	   4.7911282e-01	   5.7320236e-01	
   9.7075000e+01	   5.3823493e-01	   5.4376655e-01	
   9.7130000e+01	   6.6441568e-01	   7.6149279e-01	
   9.7185000e+01	   9.7827437e-01	   7.5537535e-01	
   9.7240000e+01	   7.8075723e-01	   7.5377373e-01	
   9.7295000e+01	   9.1076125e-01	   8.6697711e-01	
   9.7350000e+01	   9.7686610e-01	   1.0023229e+00	
   9.7405000e+01	   1.2689718e+00	   1.0754691e+00	
   9.7460000e+01	   8.0146995e-01	   7.5580916e-01	
   9.7515000e+01	   7.8552305e-01	   7.8649216e-01	
   9.7570000e+01	   1.0637958e+00	   9.1204586e-01	
   9.7625000e+01	   7.7747080e-01	   6.9862989e-01	
   9.7680000e+01	   5.8072649e-01	   6.6676747e-01	
   9.7735000e+01	   7.3627910e-01	   7.3881370e-01	
   9.7790000e+01	   8.0913900e-01	   6.7281882e-01	
   9.7845000e+01	   6.6378490e-01	   4.3612942e-01	
   9.7900000e+01	   4.8972075e-01	   5.0729001e-01	
   9.7955000e+01	   8.1065283e-01	   6.6173149e-01	
   9.8010000e+01	   1.0253228e+00	   9.4684124e-01	
   9.8065000e+01	   1.1894570e+00	   8.9808858e-01	
   9.8120000e+01	   9.7612506e-01	   8.6075885e-01	
   9.8175000e+01	   1.1144526e+00	   1.0173321e+00	
   9.8230000e+01	   1.1832072e+00	   9.2302551e-01	
   9.8285000e+01	   8.3034558e-01	   8.3141404e-01	
   9.8340000e+01	   9.1137933e-01	   7.3875806e-01	
   9.8395000e+01	   9.5140764e-01	   8.5448915e-01	
   9.8450000e+01	   7.5890467e-01	   7.5239449e-01	
   9.8505000e+01	   9.3967610e-01	   7.9110625e-01	
   9.8560000e+01	   5.1504849e-01	   6.4701740e-01	
   9.8615000e+01	   4.6959717e-01	   4.5923932e-01	
   9.8670000e+01	   9.4820615e-01	   7.2104887e-01	
   9.8725000e+01	   9.0651327e-01	   8.3437735e-01	
   9.8780000e+01	   1.1277664e+00	   8.5955675e-01	
   9.8835000e+01	   1.4208470e+00	   1.1044424e+00	
   9.8890000e+01	   1.4268638e+00	   1.1364298e+00	
   9.8945000e+01	   1.1132689e+00	   9.4665787e-01	
   9.9000000e+01	   1.3764432e+00	   1.0276983e+00	
   9.9055000e+01	   1.0500498e+00	   9.6013038e-01	
   9.9110000e+01	   1.3202476e+00	   9.4022480e-01	
   9.9165000e+01	   1.1387766e+00	   1.0684098e+00	
   9.9220000e+01	   1.0488252e+00	   8.6443322e-01	
   9.9275000e+01	   1.3697459e+00	   9.0417602e-01	
   9.9330000e+01	   1.2324228e+00	   9.2420819e-01	
   9.9385000e+01	   8.9325165e-01	   7.1745626e-01	
   9.9440000e+01	   8.7749929e-01	   5.8563665e-01	
   9.9495000e+01	   1.4412270e+00	   8.7895187e-01	
   9.9550000e+01	   1.4875631e+00	   1.0797052e+00	
   9.9605000e+01	   1.3344615e+00	   9.6125116e-01	
   9.9660000e+01	   1.6816627e+00	   1.2027858e+00	
   9.9715000e+01	   1.6860895e+00	   1.2170561e+00	
   9.9770000e+01	   1.6022810e+00	   1.2522284e+00	
   9.9825000e+01	   1.6040971e+00	   1.2178047e+00	
   9.9880000e+01	   1.6048701e+00	   1.2079990e+00	
   9.9935000e+01	   1.3995381e+00	   1.0878767e+00	
   9.9990000e+01	   1.4368012e+00	   1.1537460e+00	
   1.0004500e+02	   1.5320099e+00	   1.0952660e+00	
   1.0010000e+02	   1.0388981e+00	   8.6888638e-01	
   1.0015500e+02	   1.2138770e+00	   8.2751029e-01	
   1.0021000e+02	   1.2879286e+00	   8.7392971e-01	
   1.0026500e+02	   1.2428190e+00	   7.7722005e-01	
   1.0032000e+02	   1.4249045e+00	   1.0292841e+00	
   1.0037500e+02	   1.7090289e+00	   1.1588921e+00	
   1.0043000e+02	   1.8704739e+00	   1.3460994e+00	
   1.0048500e+02	   1.6624788e+00	   1.1365591e+00	
   1.0054000e+02	   1.5512766e+00	   1.1878301e+00	
   1.0059500e+02	   1.8919228e+00	   1.2835352e+00	
   1.0065000e+02	   1.4713742e+00	   1.2407672e+00	
   1.0070500e+02	   1.6276907e+00	   1.1912844e+00	
   1.0076000e+02	   1.4854285e+00	   1.1061593e+00	
   1.0081500e+02	   1.6260725e+00	   1.2584135e+00	
   1.0087000e+02	   1.6118050e+00	   1.1796354e+00	
   1.0092500e+02	   1.1770135e+00	   8.0087937e-01	
   1.0098000e+02	   1.1779093e+00	   1.0759919e+00	
   1.0103500e+02	   1.6143983e+00	   1.1104111e+00	
   1.0109000e+02	   1.8787735e+00	   1.2354853e+00	
   1.0114500e+02	   1.9890644e+00	   1.2932933e+00	
   1.0120000e+02	   1.8509206e+00	   1.2783054e+00	
   1.0125500e+02	   2.0136019e+00	   1.4533951e+00	
   1.0131000e+02	   2.0590469e+00	   1.2545693e+00	
   1.0136500e+02	   1.8404628e+00	   1.3588727e+00	
   1.0142000e+02	   1.6664696e+00	   1.3630017e+00	
   1.0147500e+02	   1.8483344e+00	   1.2315193e+00	
   1.0153000e+02	   1.5842907e+00	   1.1581325e+00	
   1.0158500e+02	   1.3063182e+00	   9.3083871e-01	
   1.0164000e+02	   1.6134956e+00	   1.1523100e+00	
   1.0169500e+02	   1.4759846e+00	   1.0098456e+00	
   1.0175000e+02	   1.5263890e+00	   9.1828251e-01	
   1.0180500e+02	   1.6329937e+00	   1.0420386e+00	
   1.0186000e+02	   1.9509468e+00	   1.3598105e+00	
   1.0191500e+02	   2.2937672e+00	   1.4696767e+00	
   1.0197000e+02	   2.0162462e+00	   1.2302059e+00	
   1.0202500e+02	   1.9198554e+00	   1.2944165e+00	
   1.0208000e+02	   2.1575536e+00	   1.4064379e+00	
   1.0213500e+02	   2.2537263e+00	   1.5172983e+00	
   1.0219000e+02	   2.0301747e+00	   1.3742292e+00	
   1.0224500e+02	   1.8286988e+00	   1.2781970e+00	
   1.0230000e+02	   2.1622642e+00	   1.3727390e+00	
   1.0235500e+02	   2.1941769e+00	   1.3920034e+00	
   1.0241000e+02	   1.7496576e+00	   1.1753022e+00	
   1.0246500e+02	   1.7129805e+00	   1.1201584e+00	
   1.0252000e+02	   1.7671874e+00	   1.2058251e+00	
   1.0257500e+02	   1.4938139e+00	   1.0383058e+00	
   1.0263000e+02	   1.5800041e+00	   1.0669038e+00	
   1.0268500e+02	   2.0812894e+00	   1.3826281e+00	
   1.0274000e+02	   2.2061480e+00	   1.4615298e+00	
   1.0279500e+02	   2.1459351e+00	   1.3801814e+00	
   1.0285000e+02	   1.9734857e+00	   1.3887319e+00	
   1.0290500e+02	   1.9064132e+00	   1.3504728e+00	
   1.0296000e+02	   2.3997256e+00	   1.4883322e+00	
   1.0301500e+02	   2.2658606e+00	   1.5052084e+00	
   1.0307000e+02	   1.7944571e+00	   1.2253877e+00	
   1.0312500e+02	   2.1167710e+00	   1.3628940e+00	
   1.0318000e+02	   1.7539956e+00	   1.1804911e+00	
   1.0323500e+02	   1.8520092e+00	   1.2015860e+00	
   1.0329000e+02	   1.6463795e+00	   1.0606747e+00	
   1.0334500e+02	   1.6587537e+00	   1.0339566e+00	
   1.0340000e+02	   1.6693381e+00	   1.0221165e+00	
   1.0345500e+02	   1.5775312e+00	   9.2728900e-01	
   1.0351000e+02	   1.8582761e+00	   1.2106667e+00	
   1.0356500e+02	   1.7019640e+00	   1.2516090e+00	
   1.0362000e+02	   1.8695463e+00	   1.3066785e+00	
   1.0367500e+02	   2.0457159e+00	   1.4152344e+00	
   1.0373000e+02	   1.9172818e+00	   1.1955235e+00	
   1.0378500e+02	   2.0000982e+00	   1.3009881e+00	
   1.0384000e+02	   2.1373997e+00	   1.3614459e+00	
   1.0389500e+02	   1.7213928e+00	   1.2852735e+00	
   1.0395000e+02	   1.9171063e+00	   1.2151722e+00	
   1.0400500e+02	   1.7381653e+00	   1.2086414e+00	
   1.0406000e+02	   1.5516257e+00	   1.0923180e+00	
   1.0411500e+02	   1.8380770e+00	   1.0447592e+00	
   1.0417000e+02	   1.4989070e+00	   1.0437825e+00	
   1.0422500e+02	   1.4174023e+00	   9.3915501e-01	
   1.0428000e+02	   1.9023885e+00	   1.3188462e+00	
   1.0433500e+02	   2.2950236e+00	   1.3301198e+00	
   1.0439000e+02	   2.1799215e+00	   1.2397148e+00	
   1.0444500e+02	   1.9062606e+00	   1.2927685e+00	
   1.0450000e+02	   2.0696482e+00	   1.3076579e+00	
   1.0455500e+02	   1.9212960e+00	   1.3333178e+00	
   1.0461000e+02	   1.7677202e+00	   1.0707990e+00	
   1.0466500e+02	   1.4657221e+00	   1.0032973e+00	
   1.0472000e+02	   1.6926656e+00	   1.2557381e+00	
   1.0477500e+02	   1.7835624e+00	   9.7869275e-01	
   1.0483000e+02	   1.7509714e+00	   9.2850519e-01	
   1.0488500e+02	   1.5542190e+00	   9.6269110e-01	
   1.0494000e+02	   1.5504069e+00	   9.9094461e-01	
   1.0499500e+02	   1.5255291e+00	   8.6279066e-01	
   1.0505000e+02	   2.0143936e+00	   1.0996439e+00	
   1.0510500e+02	   2.0018124e+00	   1.2678790e+00	
   1.0516000e+02	   2.1107617e+00	   1.4190049e+00	
   1.0521500e+02	   2.0868417e+00	   1.3108048e+00	
   1.0527000e+02	   1.7823024e+00	   1.2240286e+00	
   1.0532500e+02	   1.9258114e+00	   1.1997692e+00	
   1.0538000e+02	   1.9150957e+00	   1.3194691e+00	
   1.0543500e+02	   1.6719924e+00	   1.1646459e+00	
   1.0549000e+02	   1.6034049e+00	   1.1151423e+00	
   1.0554500e+02	   1.5263890e+00	   1.1661247e+00	
   1.0560000e+02	   1.6779833e+00	   1.1035234e+00	
   1.0565500e+02	   1.7618603e+00	   1.0465334e+00	
   1.0571000e+02	   1.5527851e+00	   8.6113678e-01	
   1.0576500e+02	   1.2678946e+00	   9.8693927e-01	
   1.0582000e+02	   1.4097215e+00	   8.7076664e-01	
   1.0587500e+02	   1.7280193e+00	   1.1301537e+00	
   1.0593000e+02	   1.8533639e+00	   1.1075639e+00	
   1.0598500e+02	   1.9754022e+00	   1.2380999e+00	
   1.0604000e+02	   2.0961377e+00	   1.3465945e+00	
   1.0609500e+02	   2.1059620e+00	   1.2628651e+00	
   1.0615000e+02	   1.8163360e+00	   1.2269799e+00	
   1.0620500e+02	   1.9131707e+00	   1.3662785e+00	
   1.0626000e+02	   2.1447147e+00	   1.3332556e+00	
   1.0631500e+02	   1.8822556e+00	   1.1594331e+00	
   1.0637000e+02	   1.7048513e+00	   1.0953755e+00	
   1.0642500e+02	   1.5604947e+00	   1.1815285e+00	
   1.0648000e+02	   1.5410746e+00	   1.0789234e+00	
   1.0653500e+02	   1.2839971e+00	   7.5861139e-01	
   1.0659000e+02	   1.2669433e+00	   8.5215514e-01	
   1.0664500e+02	   1.5309514e+00	   9.8450414e-01	
   1.0670000e+02	   1.4032860e+00	   7.8684992e-01	
   1.0675500e+02	   1.4754303e+00	   9.1956884e-01	
   1.0681000e+02	   1.7968842e+00	   1.1808353e+00	
   1.0686500e+02	   1.9905044e+00	   1.2244680e+00	
   1.0692000e+02	   1.9720153e+00	   1.2559015e+00	
   1.0697500e+02	   1.9168558e+00	   1.2162042e+00	
   1.0703000e+02	   2.0373639e+00	   1.2148032e+00	
   1.0708500e+02	   1.9486821e+00	   1.3435163e+00	
   1.0714000e+02	   1.8290089e+00	   1.2791620e+00	
   1.0719500e+02	   2.0521162e+00	   1.0985932e+00	
   1.0725000e+02	   1.8512680e+00	   1.0707733e+00	
   1.0730500e+02	   1.4259742e+00	   9.5637729e-01	
   1.0736000e+02	   1.8092154e+00	   1.0957561e+00	
   1.0741500e+02	   1.2740202e+00	   8.8683356e-01	
   1.0747000e+02	   1.3935981e+00	   7.8640094e-01	
   1.0752500e+02	   1.3508069e+00	   8.2290946e-01	
   1.0758000e+02	   1.1964248e+00	   6.6407270e-01	
   1.0763500e+02	   1.2195608e+00	   6.2305747e-01	
   1.0769000e+02	   1.1626721e+00	   8.0217248e-01	
   1.0774500e+02	   1.6989902e+00	   1.0242071e+00	
   1.0780000e+02	   1.4574935e+00	   8.8655036e-01	
   1.0785500e+02	   1.4681288e+00	   9.6298078e-01	
   1.0791000e+02	   1.5371433e+00	   1.0467774e+00	
   1.0796500e+02	   1.6418873e+00	   1.1461468e+00	
   1.0802000e+02	   1.6630804e+00	   1.0273958e+00	
   1.0807500e+02	   1.1112180e+00	   7.9696705e-01	
   1.0813000e+02	   1.2225033e+00	   7.4747468e-01	
   1.0818500e+02	   1.3026210e+00	   7.9462168e-01	
   1.0824000e+02	   1.0677480e+00	   7.3757317e-01	
   1.0829500e+02	   1.1546856e+00	   6.4909402e-01	
   1.0835000e+02	   7.6821145e-01	   4.4180244e-01	
   1.0840500e+02	   7.5761271e-01	   6.5329678e-01	
   1.0846000e+02	   9.2440679e-01	   4.0705334e-01	
   1.0851500e+02	   1.0606360e+00	   5.9979208e-01	
   1.0857000e+02	   1.2084197e+00	   7.7617070e-01	
   1.0862500e+02	   1.4236063e+00	   1.0351333e+00	
   1.0868000e+02	   1.4355724e+00	   9.8430785e-01	
   1.0873500e+02	   1.0421888e+00	   7.5849868e-01	
   1.0879000e+02	   9.0730161e-01	   6.3506047e-01	
   1.0884500e+02	   1.1849956e+00	   8.7621482e-01	
   1.0890000e+02	   8.8640985e-01	   6.1962966e-01	
   1.0895500e+02	   8.6848666e-01	   5.8387722e-01	
   1.0901000e+02	   6.5904204e-01	   5.6875732e-01	
   1.0906500e+02	   1.0531158e+00	   7.0253526e-01	
   1.0912000e+02	   5.3702458e-01	   3.5513462e-01	
   1.0917500e+02	   4.7598834e-01	   3.4480854e-01	
   1.0923000e+02	   7.1032729e-01	   4.2976291e-01	
   1.0928500e+02	   6.8675423e-01	   4.5301776e-01	
   1.0934000e+02	   8.1858864e-01	   6.3234638e-01	
   1.0939500e+02	   9.3077292e-01	   5.6452850e-01	
   1.0945000e+02	   1.2000385e+00	   9.2742106e-01	
   1.0950500e+02	   1.1771698e+00	   9.1871598e-01	
   1.0956000e+02	   8.7625528e-01	   6.7798419e-01	
   1.0961500e+02	   7.9936003e-01	   7.5440557e-01	
   1.0967000e+02	   1.0244442e+00	   8.3357418e-01	
   1.0972500e+02	   8.6211878e-01	   7.9493481e-01	
   1.0978000e+02	   6.6335360e-01	   6.1380630e-01	
   1.0983500e+02	   5.7334394e-01	   5.6552117e-01	
   1.0989000e+02	   5.9112795e-01	   5.8215739e-01	
   1.0994500e+02	   6.4226446e-01	   5.4196048e-01	
   1.1000000e+02	   5.7907939e-01	   4.8386745e-01	
   1.1005500e+02	   4.5955379e-02	   1.9136131e-01	
   1.1011000e+02	   5.1007875e-01	   4.9288783e-01	
   1.1016500e+02	   8.1981089e-01	   8.6759718e-01	
   1.1022000e+02	   7.8792009e-01	   4.9008732e-01	
   1.1027500e+02	   9.6236882e-01	   6.9087187e-01	
   1.1033000e+02	   1.0714343e+00	   7.5144848e-01	
   1.1038500e+02	   1.0440799e+00	   9.4168674e-01	
   1.1044000e+02	   8.1991315e-01	   5.9714207e-01	
   1.1049500e+02	   9.5326403e-01	   7.0274821e-01	
   1.1055000e+02	   9.5856965e-01	   8.7852122e-01	
   1.1060500e+02	   1.1066077e+00	   8.7095421e-01	
   1.1066000e+02	   6.6579200e-01	   7.1096780e-01	
   1.1071500e+02	   5.9673648e-01	   5.1599983e-01	
   1.1077000e+02	   8.0912069e-01	   6.3145020e-01	
   1.1082500e+02	   6.2308663e-01	   5.3594371e-01	
   1.1088000e+02	   3.9223073e-01	   3.9246461e-01	
   1.1093500e+02	   5.0682249e-01	   4.9960027e-01	
   1.1099000e+02	   7.5586135e-01	   4.8579972e-01	
   1.1104500e+02	   6.9955518e-01	   6.0602057e-01	
   1.1110000e+02	   8.9605436e-01	   7.4323294e-01	
   1.1115500e+02	   7.9841469e-01	   8.5958991e-01	
   1.1121000e+02	   9.5052234e-01	   8.7696413e-01	
   1.1126500e+02	   1.0272310e+00	   8.7582089e-01	
   1.1132000e+02	   9.5656486e-01	   7.4518025e-01	
   1.1137500e+02	   8.2333301e-01	   8.0167941e-01	
   1.1143000e+02	   8.4302669e-01	   7.6503548e-01	
   1.1148500e+02	   6.6800742e-01	   6.7588214e-01	
   1.1154000e+02	   7.4795157e-01	   6.9939241e-01	
   1.1159500e+02	   5.7092619e-01	   5.1222626e-01	
   1.1165000e+02	   6.1727368e-01	   7.1566311e-01	
   1.1170500e+02	   4.4043791e-01	   3.8887668e-01	
   1.1176000e+02	   4.0577845e-01	   4.9321909e-01	
   1.1181500e+02	   7.7671482e-01	   4.6575839e-01	
   1.1187000e+02	   1.0525558e+00	   8.5530025e-01	
   1.1192500e+02	   9.0568644e-01	   8.3288585e-01	
   1.1198000e+02	   8.1026023e-01	   6.8009433e-01	
   1.1203500e+02	   6.8618770e-01	   6.8149821e-01	
   1.1209000e+02	   6.7072119e-01	   6.8662462e-01	
   1.1214500e+02	   7.1715808e-01	   8.5880352e-01	
   1.1220000e+02	   5.7979971e-01	   5.6015242e-01	
   1.1225500e+02	   5.5136906e-01	   6.0592090e-01	
   1.1231000e+02	   6.5961222e-01	   7.0623500e-01	
   1.1236500e+02	   6.3034450e-01	   5.3460624e-01	
   1.1242000e+02	   6.0124474e-02	   3.0690282e-01	
   1.1247500e+02	  -4.7188950e-03	   2.8972884e-01	
   1.1253000e+02	   2.1901223e-01	   3.8062368e-01	
   1.1258500e+02	   3.9090674e-01	   5.7443779e-01	
   1.1264000e+02	   5.9815081e-01	   7.1157599e-01	
   1.1269500e+02	   4.9389089e-01	   7.7824498e-01	
   1.1275000e+02	   8.3624103e-01	   8.2111266e-01	
   1.1280500e+02	   9.3834986e-01	   8.7766284e-01	
   1.1286000e+02	   5.3638367e-01	   6.9588423e-01	
   1.1291500e+02	   3.5358832e-01	   5.5246241e-01	
   1.1297000e+02	   3.5501388e-01	   7.2988743e-01	
   1.1302500e+02	   4.5532329e-01	   6.5770997e-01	
   1.1308000e+02	   4.3424460e-01	   5.9571771e-01	
   1.1313500e+02	   3.6530297e-01	   4.5162959e-01	
   1.1319000e+02	   2.2301826e-01	   6.1171553e-01	
   1.1324500e+02	   1.8825265e-01	   5.0533085e-01	
   1.1330000e+02	   1.5220135e-01	   3.4745176e-01	
   1.1335500e+02	   5.5055771e-01	   5.9276826e-01	
   1.1341000e+02	   8.2260754e-01	   7.7035917e-01	
   1.1346500e+02	   7.3478053e-01	   7.0376000e-01	
   1.1352000e+02	   6.9705292e-01	   7.4470831e-01	
   1.1357500e+02	   8.1144881e-01	   9.4408720e-01	
   1.1363000e+02	   1.0459678e+00	   1.0277211e+00	
   1.1368500e+02	   8.8015683e-01	   9.1761320e-01	
   1.1374000e+02	   5.7433616e-01	   7.7733462e-01	
   1.1379500e+02	   2.6651841e-01	   6.8841637e-01	
   1.1385000e+02	   6.9742846e-01	   7.5391056e-01	
   1.1390500e+02	   4.1377345e-01	   5.8737098e-01	
   1.1396000e+02	   4.0583411e-01	   5.3472746e-01	
   1.1401500e+02	   2.0364470e-01	   3.5494987e-01	
   1.1407000e+02	   2.2702051e-01	   5.6447170e-01	
   1.1412500e+02	   4.6728087e-01	   4.1407704e-01	
   1.1418000e+02	   6.1545059e-01	   6.3745898e-01	
   1.1423500e+02	   8.3870461e-01	   8.3652484e-01	
   1.1429000e+02	   9.9576388e-01	   9.7560039e-01	
   1.1434500e+02	   6.4051934e-01	   8.4204530e-01	
   1.1440000e+02	   8.7704151e-01	   8.4448678e-01	
   1.1445500e+02	   6.2897068e-01	   8.1154643e-01	
   1.1451000e+02	   8.9156100e-01	   9.7292663e-01	
   1.1456500e+02	   7.1775738e-01	   7.2460030e-01	
   1.1462000e+02	   9.0389685e-01	   7.7424292e-01	
   1.1467500e+02	   8.6373246e-01	   7.6262534e-01	
   1.1473000e+02	   5.7247483e-01	   7.2854522e-01	
   1.1478500e+02	   5.5245240e-01	   6.9089480e-01	
   1.1484000e+02	   5.1517862e-01	   5.6406776e-01	
   1.1489500e+02	   5.0414968e-01	   6.0680515e-01	
   1.1495000e+02	   4.7445803e-01	   5.4551293e-01	
   1.1500500e+02	   2.1530131e-01	   3.1475994e-01	
   1.1506000e+02	   5.6852002e-01	   5.8691771e-01	
   1.1511500e+02	   1.0000276e+00	   7.9104592e-01	
   1.1517000e+02	   7.8023111e-01	   8.1563179e-01	
   1.1522500e+02	   8.9161770e-01	   7.1688149e-01	
   1.1528000e+02	   5.9597383e-01	   7.8101135e-01	
   1.1533500e+02	   8.5511214e-01	   8.3932147e-01	
   1.1539000e+02	   7.8819189e-01	   9.4091923e-01	
   1.1544500e+02	   9.5159428e-01	   8.6090571e-01	
   1.1550000e+02	   6.1849750e-01	   7.5593417e-01	
   1.1555500e+02	   6.9044813e-01	   7.5153150e-01	
   1.1561000e+02	   6.4990212e-01	   9.2444313e-01	
   1.1566500e+02	   5.4158374e-01	   7.0633225e-01	
   1.1572000e+02	   4.3188035e-01	   6.1267317e-01	
   1.1577500e+02	   4.0523764e-01	   7.2975680e-01	
   1.1583000e+02	   3.6088410e-01	   5.6620833e-01	
   1.1588500e+02	   3.0736217e-01	   4.0976557e-01	
   1.1594000e+02	   4.3088314e-01	   3.9098590e-01	
   1.1599500e+02	   7.3539774e-01	   8.6412638e-01	
   1.1605000e+02	   1.0636503e+00	   8.6101336e-01	
   1.1610500e+02	   7.8954428e-01	   8.4860974e-01	
   1.1616000e+02	   8.1641733e-01	   7.6399176e-01	
   1.1621500e+02	   9.2934730e-01	   9.2604138e-01	
   1.1627000e+02	   9.5568591e-01	   9.9936399e-01	
   1.1632500e+02	   8.3986509e-01	   7.8360070e-01	
   1.1638000e+02	   5.2079587e-01	   6.9794960e-01	
   1.1643500e+02	   5.2890945e-01	   5.7591907e-01	
   1.1649000e+02	   6.4181097e-01	   6.7670509e-01	
   1.1654500e+02	   5.4668285e-01	   7.0684797e-01	
   1.1660000e+02	   2.9354809e-01	   4.2605914e-01	
   1.1665500e+02	   5.2724234e-01	   5.0774787e-01	
   1.1671000e+02	   3.9489463e-01	   4.5928791e-01	
   1.1676500e+02	   3.9384474e-02	   3.8358378e-01	
   1.1682000e+02	   4.1944637e-01	   5.4662312e-01	
   1.1687500e+02	   6.2360318e-01	   7.7511067e-01	
   1.1693000e+02	   5.7624756e-01	   8.0399728e-01	
   1.1698500e+02	   3.4879519e-01	   6.2396179e-01	
   1.1704000e+02	   4.8265169e-01	   6.6439022e-01	
   1.1709500e+02	   5.8000672e-01	   7.0552567e-01	
   1.1715000e+02	   5.6728358e-01	   8.3433193e-01	
   1.1720500e+02	   3.2176308e-01	   5.3727252e-01	
   1.1726000e+02	   4.9439473e-01	   6.1846031e-01	
   1.1731500e+02	   1.0195285e-01	   5.2849991e-01	
   1.1737000e+02	   2.4520218e-01	   4.6734095e-01	
   1.1742500e+02	  -4.9411581e-02	   1.7919394e-01	
   1.1748000e+02	  -5.0489262e-02	   2.8002160e-01	
   1.1753500e+02	   5.3690824e-01	   7.0428437e-01	
   1.1759000e+02	   5.0157646e-01	   6.9658873e-01	
   1.1764500e+02	   4.4842161e-01	   6.5226492e-01	
   1.1770000e+02	   5.4873717e-01	   7.8792758e-01	
   1.1775500e+02	   7.2848730e-01	   8.9850586e-01	
   1.1781000e+02	   6.0759434e-01	   7.4195551e-01	
   1.1786500e+02	   3.7347292e-01	   5.9870233e-01	
   1.1792000e+02	   5.3209530e-01	   6.9638751e-01	
   1.1797500e+02	   5.0978846e-01	   6.4634385e-01	
   1.1803000e+02	   4.1457387e-01	   7.0835241e-01	
   1.1808500e+02	   1.4293381e-01	   4.6807369e-01	
   1.1814000e+02	   1.9147340e-01	   5.6809795e-01	
   1.1819500e+02	  -3.5247976e-04	   5.1346983e-01	
   1.1825000e+02	   1.1305734e-01	   2.7074135e-01	
   1.1830500e+02	   2.0313590e-01	   4.9036325e-01	
   1.1836000e+02	   5.8053767e-01	   6.8966986e-01	
   1.1841500e+02	   7.9809465e-01	   7.3959052e-01	
   1.1847000e+02	   8.5181730e-01	   9.8258014e-01	
   1.1852500e+02	   5.3153150e-01	   7.5732835e-01	
   1.1858000e+02	   4.8593363e-01	   8.0200176e-01	
   1.1863500e+02	   7.1358468e-01	   1.0058516e+00	
   1.1869000e+02	   4.6010315e-01	   8.5238500e-01	
   1.1874500e+02	   2.8003083e-01	   7.3264367e-01	
   1.1880000e+02	   3.6256017e-01	   4.7628179e-01	
   1.1885500e+02	   4.3789899e-01	   6.0317114e-01	
   1.1891000e+02	   3.5241601e-01	   7.0265767e-01	
   1.1896500e+02	   2.1894979e-01	   4.8620323e-01	
   1.1902000e+02	   2.5918130e-01	   4.9182882e-01	
   1.1907500e+02	   3.0908682e-01	   5.7648304e-01	
   1.1913000e+02	   7.7082163e-01	   8.2962166e-01	
   1.1918500e+02	   6.5754605e-01	   8.5469782e-01	
   1.1924000e+02	   7.5067078e-01	   8.7182851e-01	
   1.1929500e+02	   9.3094795e-01	   1.0297685e+00	
   1.1935000e+02	   1.1486495e+00	   8.6029367e-01	
   1.1940500e+02	   5.8756525e-01	   8.0057309e-01	
   1.1946000e+02	   6.0115796e-01	   8.3956593e-01	
   1.1951500e+02	   6.9898489e-01	   8.6075885e-01	
   1.1957000e+02	   6.8475310e-01	   9.7917830e-01	
   1.1962500e+02	   3.8777557e-01	   6.0381827e-01	
   1.1968000e+02	   5.4324139e-01	   5.8336664e-01	
   1.1973500e+02	   4.8901605e-01	   7.8842120e-01	
   1.1979000e+02	   5.5982139e-01	   6.0004498e-01	
   1.1984500e+02	   2.3097638e-01	   5.3040682e-01	
   1.1990000e+02	   3.5549645e-01	   5.4350051e-01	
   1.1995500e+02	   4.8980208e-01	   6.4877175e-01	
   1.2001000e+02	   6.5037420e-01	   6.3364867e-01	
   1.2006500e+02	   6.4402482e-01	   8.7656291e-01	
   1.2012000e+02	   8.9623576e-01	   9.2332442e-01	
   1.2017500e+02	   9.7443310e-01	   1.0270547e+00	
   1.2023000e+02	   8.7993838e-01	   9.6061369e-01	
   1.2028500e+02	   8.7032410e-01	   8.7738653e-01	
   1.2034000e+02	   1.0015696e+00	   1.0161112e+00	
   1.2039500e+02	   7.8419165e-01	   8.4357498e-01	
   1.2045000e+02	   7.0278042e-01	   6.9828243e-01	
   1.2050500e+02	   6.1719151e-01	   6.9932987e-01	
   1.2056000e+02	   5.1767701e-01	   6.3275068e-01	
   1.2061500e+02	   6.2129866e-01	   7.1440779e-01	
   1.2067000e+02	   3.9347224e-01	   6.5483021e-01	
   1.2072500e+02	   3.3748190e-01	   4.3864725e-01	
   1.2078000e+02	   5.1973819e-01	   5.7286118e-01	
   1.2083500e+02	   5.9150496e-01	   8.2210225e-01	
   1.2089000e+02	   9.6377584e-01	   7.9362547e-01	
   1.2094500e+02	   9.3054134e-01	   7.5014212e-01	
   1.2100000e+02	   1.0057620e+00	   9.0509594e-01	
   1.2105500e+02	   9.0037608e-01	   1.0185410e+00	
   1.2111000e+02	   7.1112857e-01	   7.3393561e-01	
   1.2116500e+02	   7.5271840e-01	   8.0134722e-01	
   1.2122000e+02	   6.1848459e-01	   6.8472714e-01	
   1.2127500e+02	   7.9567901e-01	   7.9064065e-01	
   1.2133000e+02	   6.7961272e-01	   5.7812009e-01	
   1.2138500e+02	   4.9304666e-01	   5.6113026e-01	
   1.2144000e+02	   4.6791650e-01	   7.1004523e-01	
   1.2149500e+02	   4.9128237e-01	   4.0991705e-01	
   1.2155000e+02	   2.2555542e-01	   3.7030122e-01	
   1.2160500e+02	   2.8190382e-01	   3.8820252e-01	
   1.2166000e+02	   7.6610943e-01	   7.2681101e-01	
   1.2171500e+02	   9.6268290e-01	   7.9475323e-01	
   1.2177000e+02	   8.1406401e-01	   8.7112879e-01	
   1.2182500e+02	   8.3938878e-01	   7.5137620e-01	
   1.2188000e+02	   6.8083446e-01	   6.5452291e-01	
   1.2193500e+02	   6.6925585e-01	   8.6963309e-01	
   1.2199000e+02	   5.6695957e-01	   6.9142989e-01	
   1.2204500e+02	   5.9929786e-01	   5.2539609e-01	
   1.2210000e+02	   6.2892532e-01	   6.5764541e-01	
   1.2215500e+02	   5.2118553e-01	   6.1054749e-01	
   1.2221000e+02	   2.4363574e-01	   4.2651199e-01	
   1.2226500e+02	   4.3311164e-01	   4.8727781e-01	
   1.2232000e+02	   2.2008973e-01	   3.0372843e-01	
   1.2237500e+02	   6.5200410e-01	   6.6355715e-01	
   1.2243000e+02	   8.5302472e-01	   6.3995663e-01	
   1.2248500e+02	   8.0222734e-01	   6.6882782e-01	
   1.2254000e+02	   9.3176118e-01	   8.9177682e-01	
   1.2259500e+02	   7.7473795e-01	   8.6617321e-01	
   1.2265000e+02	   7.6954963e-01	   6.8437141e-01	
   1.2270500e+02	   6.4791695e-01	   7.1827410e-01	
   1.2276000e+02	   5.1471940e-01	   7.0054197e-01	
   1.2281500e+02	   7.1088443e-01	   7.0586308e-01	
   1.2287000e+02	   6.0045424e-01	   6.1497498e-01	
   1.2292500e+02	   5.1314895e-01	   6.3114869e-01	
   1.2298000e+02	   3.1387847e-01	   4.4674137e-01	
   1.2303500e+02	   4.3661946e-01	   5.0950890e-01	
   1.2309000e+02	   5.7995742e-01	   4.0361246e-01	
   1.2314500e+02	   7.8467350e-01	   5.7766220e-01	
   1.2320000e+02	   1.1714204e+00	   7.2543805e-01	
   1.2325500e+02	   1.2285170e+00	   9.3531463e-01	
   1.2331000e+02	   1.1140146e+00	   9.2336179e-01	
   1.2336500e+02	   8.9206836e-01	   7.2865041e-01	
   1.2342000e+02	   7.6515497e-01	   7.6358908e-01	
   1.2347500e+02	   1.0294821e+00	   9.3480492e-01	
   1.2353000e+02	   1.0678247e+00	   9.5364825e-01	
   1.2358500e+02	   8.4076460e-01	   7.0939581e-01	
   1.2364000e+02	   8.2628701e-01	   7.9735119e-01	
   1.2369500e+02	   7.3111700e-01	   6.1741100e-01	
   1.2375000e+02	   5.1250259e-01	   5.8917339e-01	
   1.2380500e+02	   5.3791985e-01	   5.1673164e-01	
   1.2386000e+02	   4.6678108e-01	   4.2518996e-01	
   1.2391500e+02	   5.7276633e-01	   3.5711708e-01	
   1.2397000e+02	   9.2231491e-01	   6.4784419e-01	
   1.2402500e+02	   1.0402253e+00	   7.9765077e-01	
   1.2408000e+02	   9.4339123e-01	   7.4547364e-01	
   1.2413500e+02	   1.3662154e+00	   1.0647691e+00	
   1.2419000e+02	   1.2679874e+00	   8.7355871e-01	
   1.2424500e+02	   1.2022667e+00	   9.5892225e-01	
   1.2430000e+02	   9.9131917e-01	   9.5302842e-01	
   1.2435500e+02	   1.2391482e+00	   9.8412823e-01	
   1.2441000e+02	   1.0824761e+00	   7.2987927e-01	
   1.2446500e+02	   9.4683390e-01	   8.8006607e-01	
   1.2452000e+02	   1.0966836e+00	   9.5006406e-01	
   1.2457500e+02	   1.0923793e+00	   6.5956931e-01	
   1.2463000e+02	   7.7769435e-01	   6.6154876e-01	
   1.2468500e+02	   6.4006408e-01	   4.8061330e-01	
   1.2474000e+02	   7.2779145e-01	   5.2776185e-01	
   1.2479500e+02	   1.0255363e+00	   6.8982780e-01	
   1.2485000e+02	   1.1159032e+00	   6.6876483e-01	
   1.2490500e+02	   9.9905744e-01	   8.1886273e-01	
   1.2496000e+02	   1.3524263e+00	   9.0649144e-01	
   1.2501500e+02	   1.4064301e+00	   9.1647515e-01	
   1.2507000e+02	   9.6276710e-01	   7.6904626e-01	
   1.2512500e+02	   1.1006268e+00	   7.9735118e-01	
   1.2518000e+02	   1.2873163e+00	   1.0824714e+00	
   1.2523500e+02	   1.0431590e+00	   7.4635361e-01	
   1.2529000e+02	   8.8944465e-01	   7.1900577e-01	
   1.2534500e+02	   8.5872549e-01	   6.5829637e-01	
   1.2540000e+02	   7.4355520e-01	   6.9255026e-01	
   1.2545500e+02	   8.5220229e-01	   6.5342367e-01	
   1.2551000e+02	   6.7981805e-01	   4.2416989e-01	
   1.2556500e+02	   7.9777861e-01	   4.9207991e-01	
   1.2562000e+02	   9.6062781e-01	   7.4566654e-01	
   1.2567500e+02	   1.0950378e+00	   8.1067713e-01	
   1.2573000e+02	   1.1405457e+00	   7.0706670e-01	
   1.2578500e+02	   1.0154679e+00	   6.8018748e-01	
   1.2584000e+02	   1.1176763e+00	   7.7594585e-01	
   1.2589500e+02	   1.2616394e+00	   8.8670068e-01	
   1.2595000e+02	   8.8021766e-01	   7.5389519e-01	
   1.2600500e+02	   7.5868641e-01	   6.9798545e-01	
   1.2606000e+02	   7.6704708e-01	   6.0021368e-01	
   1.2611500e+02	   1.0954883e+00	   6.7779629e-01	
   1.2617000e+02	   7.5428085e-01	   5.9411827e-01	
   1.2622500e+02	   6.7320727e-01	   5.3629427e-01	
   1.2628000e+02	   7.6961370e-01	   5.1974693e-01	
   1.2633500e+02	   1.0140374e+00	   7.0362542e-01	
   1.2639000e+02	   1.2641446e+00	   8.0736357e-01	
   1.2644500e+02	   1.1608549e+00	   7.3396559e-01	
   1.2650000e+02	   1.4403951e+00	   9.1159837e-01	
   1.2655500e+02	   1.1175722e+00	   8.8905493e-01	
   1.2661000e+02	   1.1943909e+00	   7.3939715e-01	
   1.2666500e+02	   1.0574311e+00	   7.8183895e-01	
   1.2672000e+02	   1.1039568e+00	   7.2658528e-01	
   1.2677500e+02	   1.1080579e+00	   7.3188464e-01	
   1.2683000e+02	   8.0905251e-01	   5.9391040e-01	
