	
0   2   1   4
   0.0000000e+00	   1.7468818e+00	   1.1597020e+00	   1.7794695e+00	
   5.5000000e-02	   1.6629252e+00	   1.2971644e+00	   1.7521195e+00	
   1.1000000e-01	   1.7424944e+00	   1.2257081e+00	   2.0790735e+00	
   1.6500000e-01	   1.8356396e+00	   1.5602576e+00	   1.8378768e+00	
   2.2000000e-01	   1.5858607e+00	   1.3547702e+00	   1.7695424e+00	
   2.7500000e-01	   1.5092000e+00	   1.4277779e+00	   1.4981229e+00	
   3.3000000e-01	   1.5948703e+00	   1.2537077e+00	   1.8577292e+00	
   3.8500000e-01	   1.6098011e+00	   1.6433440e+00	   1.3359276e+00	
   4.4000000e-01	   1.2298023e+00	   1.0736095e+00	   1.1741523e+00	
   4.9500000e-01	   1.0341609e+00	   8.4957448e-01	   1.4265580e+00	
   5.5000000e-01	   1.3170407e+00	   1.1997045e+00	   1.7122257e+00	
   6.0500000e-01	   1.5146176e+00	   1.3355672e+00	   1.9773315e+00	
   6.6000000e-01	   1.6919630e+00	   1.7438460e+00	   1.9093054e+00	
   7.1500000e-01	   1.6604353e+00	   1.4022092e+00	   1.6664778e+00	
   7.7000000e-01	   1.7600448e+00	   1.5407093e+00	   2.3050782e+00	
   8.2500000e-01	   1.6880832e+00	   1.5841691e+00	   1.7794695e+00	
   8.8000000e-01	   1.3250663e+00	   1.3100949e+00	   1.5018910e+00	
   9.3500000e-01	   1.3607142e+00	   1.1421568e+00	   1.7192166e+00	
   9.9000000e-01	   1.3907941e+00	   1.2955773e+00	   1.6109625e+00	
   1.0450000e+00	   1.3028450e+00	   7.8326876e-01	   1.7327394e+00	
   1.1000000e+00	   1.2179265e+00	   1.0856662e+00	   1.5433782e+00	
   1.1550000e+00	   1.2367790e+00	   1.1758986e+00	   1.0500716e+00	
   1.2100000e+00	   1.4157970e+00	   1.6253703e+00	   1.7899590e+00	
   1.2650000e+00	   1.5863223e+00	   8.5740821e-01	   2.3050099e+00	
   1.3200000e+00	   1.6797741e+00	   1.4331382e+00	   2.0665365e+00	
   1.3750000e+00	   1.8803557e+00	   1.1076256e+00	   1.5001197e+00	
   1.4300000e+00	   1.8688972e+00	   2.0087006e+00	   1.6538543e+00	
   1.4850000e+00	   1.6443840e+00	   1.4727773e+00	   1.7427551e+00	
   1.5400000e+00	   1.6065998e+00	   1.5901258e+00	   2.0144592e+00	
   1.5950000e+00	   1.5888787e+00	   1.1187214e+00	   2.1098195e+00	
   1.6500000e+00	   1.5036631e+00	   1.1534120e+00	   2.0314115e+00	
   1.7050000e+00	   1.2613892e+00	   1.3832881e+00	   1.6205132e+00	
   1.7600000e+00	   1.2548140e+00	   8.9960734e-01	   1.7899590e+00	
   1.8150000e+00	   1.2511223e+00	   9.2189027e-01	   1.5677703e+00	
   1.8700000e+00	   1.5256193e+00	   1.2850479e+00	   1.9436360e+00	
   1.9250000e+00	   1.3714028e+00	   1.2684003e+00	   1.4095517e+00	
   1.9800000e+00	   1.5472899e+00	   9.0294262e-01	   1.8987712e+00	
   2.0350000e+00	   1.5854448e+00	   1.3147195e+00	   1.8243176e+00	
   2.0900000e+00	   1.9859046e+00	   1.7632085e+00	   2.4383389e+00	
   2.1450000e+00	   1.9591588e+00	   1.2996837e+00	   2.1037841e+00	
   2.2000000e+00	   1.6915612e+00	   1.3529395e+00	   1.6938278e+00	
   2.2550000e+00	   1.7965622e+00	   1.3795941e+00	   2.2258159e+00	
   2.3100000e+00	   1.6787014e+00	   1.1870184e+00	   1.9400057e+00	
   2.3650000e+00	   1.6430981e+00	   1.7270376e+00	   1.6205132e+00	
   2.4200000e+00	   1.4568081e+00	   1.3235373e+00	   1.8373825e+00	
   2.4750000e+00	   1.4646946e+00	   1.1928642e+00	   2.0207936e+00	
   2.5300000e+00	   1.5868249e+00	   1.0179645e+00	   2.0059106e+00	
   2.5850000e+00	   1.2493533e+00	   1.2670953e+00	   1.6347525e+00	
   2.6400000e+00	   1.1416959e+00	   1.3531367e+00	   1.1987411e+00	
   2.6950000e+00	   1.3903530e+00	   1.1511770e+00	   1.6922318e+00	
   2.7500000e+00	   1.6577528e+00	   1.7072890e+00	   2.3633800e+00	
   2.8050000e+00	   1.8450629e+00	   1.7029913e+00	   2.2572963e+00	
   2.8600000e+00	   1.9193333e+00	   1.4844132e+00	   2.0907724e+00	
   2.9150000e+00	   1.7728474e+00	   1.3765426e+00	   2.1828428e+00	
   2.9700000e+00	   1.9658940e+00	   1.4555587e+00	   2.2679930e+00	
   3.0250000e+00	   1.9803466e+00	   1.7028723e+00	   2.1409899e+00	
   3.0800000e+00	   1.7123090e+00	   1.0891389e+00	   1.7594953e+00	
   3.1350000e+00	   1.6423514e+00	   1.0943584e+00	   1.8783722e+00	
   3.1900000e+00	   1.7086447e+00	   1.6038738e+00	   1.7568549e+00	
   3.2450000e+00	   1.5737967e+00	   1.0140971e+00	   1.7226106e+00	
   3.3000000e+00	   1.4122199e+00	   9.6245661e-01	   9.0772120e-01	
   3.3550000e+00	   1.3635914e+00	   1.2057437e+00	   1.6751872e+00	
   3.4100000e+00	   1.4718729e+00	   1.1971153e+00	   1.7392235e+00	
   3.4650000e+00	   1.2883182e+00	   1.0442806e+00	   2.0173700e+00	
   3.5200000e+00	   1.5238709e+00	   1.1599436e+00	   1.7634710e+00	
   3.5750000e+00	   1.7817875e+00	   1.1174868e+00	   2.3794024e+00	
   3.6300000e+00	   1.8389224e+00	   1.7357577e+00	   2.4064425e+00	
   3.6850000e+00	   1.7696007e+00	   1.4756178e+00	   2.3050782e+00	
   3.7400000e+00	   1.8856478e+00	   1.2114192e+00	   2.1947616e+00	
   3.7950000e+00	   1.7355109e+00	   1.6528965e+00	   1.9296333e+00	
   3.8500000e+00	   1.8815571e+00	   1.7520265e+00	   2.2524781e+00	
   3.9050000e+00	   1.7155526e+00	   1.6824810e+00	   1.8679541e+00	
   3.9600000e+00	   1.6623716e+00	   1.4065773e+00	   2.0735626e+00	
   4.0150000e+00	   1.7584374e+00	   1.6138103e+00	   1.9277410e+00	
   4.0700000e+00	   1.7020604e+00	   1.5996605e+00	   1.5505681e+00	
   4.1250000e+00	   1.5408869e+00	   1.1204314e+00	   1.8560126e+00	
   4.1800000e+00	   1.3989765e+00	   1.1639325e+00	   1.6477439e+00	
   4.2350000e+00	   1.5986057e+00	   1.0276176e+00	   1.5308911e+00	
   4.2900000e+00	   1.9684327e+00	   1.4316011e+00	   2.2414558e+00	
   4.3450000e+00	   1.7798823e+00	   1.2403387e+00	   2.4162079e+00	
   4.4000000e+00	   1.9090682e+00	   1.1155030e+00	   2.3262523e+00	
   4.4550000e+00	   1.8627100e+00	   1.5371082e+00	   2.1947616e+00	
   4.5100000e+00	   2.0496367e+00	   1.5176558e+00	   2.4162079e+00	
   4.5650000e+00	   1.7564641e+00	   1.2276034e+00	   1.9524578e+00	
   4.6200000e+00	   1.5636737e+00	   1.1912206e+00	   1.9420729e+00	
   4.6750000e+00	   1.7131046e+00	   1.4302750e+00	   2.0262574e+00	
   4.7300000e+00	   1.6509442e+00	   1.4613015e+00	   2.0590320e+00	
   4.7850000e+00	   1.4865196e+00	   1.1011135e+00	   1.5078466e+00	
   4.8400000e+00	   1.3531628e+00	   1.1547391e+00	   1.3493481e+00	
   4.8950000e+00	   1.4403378e+00	   9.4593879e-01	   1.6374258e+00	
   4.9500000e+00	   1.3414990e+00	   7.3814411e-01	   1.7369009e+00	
   5.0050000e+00	   1.7084393e+00	   1.2933526e+00	   1.8070037e+00	
   5.0600000e+00	   1.7738019e+00	   8.9225054e-01	   1.8679541e+00	
   5.1150000e+00	   1.9116676e+00	   1.6084582e+00	   2.2258159e+00	
   5.1700000e+00	   2.0604600e+00	   1.6348981e+00	   2.5161280e+00	
   5.2250000e+00	   1.9546088e+00	   1.6487606e+00	   2.5959119e+00	
   5.2800000e+00	   1.9182712e+00	   1.7134770e+00	   2.4162079e+00	
   5.3350000e+00	   1.8735048e+00	   1.3175434e+00	   2.4046384e+00	
   5.3900000e+00	   1.9060319e+00	   1.5333880e+00	   2.0844998e+00	
   5.4450000e+00	   1.8948826e+00	   1.3034577e+00	   1.6483956e+00	
   5.5000000e+00	   1.7660365e+00	   1.3530622e+00	   1.6247534e+00	
   5.5550000e+00	   1.5437655e+00	   1.1102718e+00	   1.9540293e+00	
   5.6100000e+00	   1.6192487e+00	   1.2852303e+00	   1.5811251e+00	
   5.6650000e+00	   1.5502737e+00	   1.0792522e+00	   1.1970190e+00	
   5.7200000e+00	   1.3096897e+00	   4.9765864e-01	   1.4105755e+00	
   5.7750000e+00	   1.3826842e+00	   9.1119813e-01	   1.6497775e+00	
   5.8300000e+00	   1.9401512e+00	   1.4764385e+00	   1.5641914e+00	
   5.8850000e+00	   1.9637153e+00	   1.8876588e+00	   1.7426538e+00	
   5.9400000e+00	   2.0266279e+00	   1.5465069e+00	   2.2479210e+00	
   5.9950000e+00	   2.1663869e+00	   1.6269649e+00	   2.3952617e+00	
   6.0500000e+00	   1.9644696e+00	   1.4833827e+00	   2.2889265e+00	
   6.1050000e+00	   1.9466686e+00	   1.2218573e+00	   2.3321054e+00	
   6.1600000e+00	   1.9095346e+00	   1.2247151e+00	   1.9734884e+00	
   6.2150000e+00	   1.7720216e+00	   1.3305544e+00	   1.8546526e+00	
   6.2700000e+00	   1.9449759e+00	   1.4647951e+00	   1.9848170e+00	
   6.3250000e+00	   1.8555279e+00	   1.1982864e+00	   2.0482875e+00	
   6.3800000e+00	   1.7169051e+00	   9.4460206e-01	   1.8089420e+00	
   6.4350000e+00	   1.7504070e+00	   1.3780837e+00	   1.7369009e+00	
   6.4900000e+00	   1.5882315e+00	   1.2014932e+00	   1.8192316e+00	
   6.5450000e+00	   1.4367755e+00	   8.8861487e-01	   1.8037513e+00	
   6.6000000e+00	   1.4461344e+00	   9.1993809e-01	   1.4173098e+00	
   6.6550000e+00	   1.4973026e+00	   1.1490553e+00	   1.1457255e+00	
   6.7100000e+00	   1.9481418e+00	   1.8062030e+00	   2.0065079e+00	
   6.7650000e+00	   1.9950143e+00	   1.3235060e+00	   2.0998924e+00	
   6.8200000e+00	   1.9598009e+00	   1.6972535e+00	   1.9050344e+00	
   6.8750000e+00	   1.8419787e+00	   1.3227153e+00	   2.0368016e+00	
   6.9300000e+00	   1.8445605e+00	   1.3798102e+00	   2.2050117e+00	
   6.9850000e+00	   1.9623350e+00	   1.7559117e+00	   1.7899590e+00	
   7.0400000e+00	   1.7279341e+00	   8.7217557e-01	   1.9277410e+00	
   7.0950000e+00	   1.8051687e+00	   1.4525396e+00	   1.7724601e+00	
   7.1500000e+00	   1.6847187e+00	   1.2198055e+00	   1.8395593e+00	
   7.2050000e+00	   1.4315088e+00	   9.1514975e-01	   1.7926051e+00	
   7.2600000e+00	   1.4467643e+00	   1.2691195e+00	   1.7008074e+00	
   7.3150000e+00	   1.6513432e+00	   1.3098970e+00	   1.7477616e+00	
   7.3700000e+00	   1.5311974e+00	   1.5457756e+00	   1.9543178e+00	
   7.4250000e+00	   1.5768913e+00	   9.2632163e-01	   1.3581973e+00	
   7.4800000e+00	   1.4379215e+00	   1.1744275e+00	   2.1391232e+00	
   7.5350000e+00	   1.8175408e+00	   1.3701530e+00	   2.0482875e+00	
   7.5900000e+00	   1.9650214e+00	   1.5463344e+00	   2.3254400e+00	
   7.6450000e+00	   1.7571466e+00	   1.3659925e+00	   1.7861776e+00	
   7.7000000e+00	   1.7799509e+00	   1.5421644e+00	   1.8639944e+00	
   7.7550000e+00	   1.8705397e+00	   1.5046233e+00	   1.9263008e+00	
   7.8100000e+00	   1.7478740e+00	   1.7757999e+00	   1.6582162e+00	
   7.8650000e+00	   1.7480897e+00	   1.3862064e+00	   1.7149962e+00	
   7.9200000e+00	   1.3930612e+00	   1.4335682e+00	   1.4871793e+00	
   7.9750000e+00	   1.6518759e+00	   1.1263528e+00	   2.0535334e+00	
   8.0300000e+00	   1.5739117e+00	   1.3238692e+00	   1.7731088e+00	
   8.0850000e+00	   1.4156409e+00	   1.0525690e+00	   1.6465500e+00	
   8.1400000e+00	   1.1048137e+00	   1.1288098e+00	   1.1890501e+00	
   8.1950000e+00	   1.5259075e+00	   1.1721778e+00	   1.6132236e+00	
   8.2500000e+00	   1.9447788e+00	   1.7167464e+00	   1.6784354e+00	
   8.3050000e+00	   1.5861907e+00	   1.5447145e+00	   1.4735121e+00	
   8.3600000e+00	   1.5562697e+00	   1.2290703e+00	   1.3123140e+00	
   8.4150000e+00	   1.6407431e+00	   9.5749264e-01	   1.8089420e+00	
   8.4700000e+00	   1.8725836e+00	   1.2903493e+00	   2.2674291e+00	
   8.5250000e+00	   1.6259196e+00	   1.5488617e+00	   1.4802073e+00	
   8.5800000e+00	   1.2453977e+00	   1.0510572e+00	   1.2681417e+00	
   8.6350000e+00	   1.5419693e+00	   1.2050341e+00	   1.7369009e+00	
   8.6900000e+00	   1.5113345e+00	   1.0877397e+00	   1.6033974e+00	
   8.7450000e+00	   1.1743155e+00	   9.0444631e-01	   1.6555061e+00	
   8.8000000e+00	   1.1933446e+00	   8.7978986e-01	   1.2482571e+00	
   8.8550000e+00	   1.3113244e+00	   1.1112068e+00	   1.7180063e+00	
   8.9100000e+00	   1.5246822e+00	   1.1012961e+00	   1.8453840e+00	
   8.9650000e+00	   1.8632209e+00	   1.4024030e+00	   1.8600835e+00	
   9.0200000e+00	   1.7694118e+00	   1.0598474e+00	   1.5575378e+00	
   9.0750000e+00	   1.6293208e+00	   1.3773389e+00	   1.9952077e+00	
   9.1300000e+00	   1.4708458e+00	   1.6648274e+00	   1.8804358e+00	
   9.1850000e+00	   1.7864126e+00	   1.2426061e+00	   2.0065079e+00	
   9.2400000e+00	   1.5236152e+00	   1.4439496e+00	   1.9231118e+00	
   9.2950000e+00	   1.6335196e+00	   1.3084801e+00	   1.6111456e+00	
   9.3500000e+00	   1.5526520e+00	   1.1810667e+00	   1.6901783e+00	
   9.4050000e+00	   1.2617917e+00	   1.3850292e+00	   1.7265009e+00	
   9.4600000e+00	   1.4058255e+00	   1.2178006e+00	   1.3244360e+00	
   9.5150000e+00	   1.1937923e+00	   7.1928649e-01	   1.3708160e+00	
   9.5700000e+00	   1.5186984e+00	   1.2099031e+00	   1.5067258e+00	
   9.6250000e+00	   1.3420415e+00	   1.0298109e+00	   1.8561564e+00	
   9.6800000e+00	   1.7316179e+00	   1.4091321e+00	   2.0375818e+00	
   9.7350000e+00	   1.7316921e+00	   1.4657930e+00	   2.0425129e+00	
   9.7900000e+00	   1.8096843e+00	   1.6139050e+00	   2.5524554e+00	
   9.8450000e+00	   1.8173733e+00	   1.4228727e+00	   2.3524333e+00	
   9.9000000e+00	   1.6454402e+00	   1.2531911e+00	   1.9394087e+00	
   9.9550000e+00	   1.9156906e+00	   1.5865456e+00	   2.0846524e+00	
   1.0010000e+01	   1.9104587e+00	   2.0340874e+00	   2.5283237e+00	
   1.0065000e+01	   1.7201127e+00	   1.1056896e+00	   2.0339016e+00	
   1.0120000e+01	   1.4992421e+00	   1.2144482e+00	   1.8816327e+00	
   1.0175000e+01	   1.6703554e+00	   1.3954950e+00	   1.8613345e+00	
   1.0230000e+01	   1.5861055e+00	   1.2810487e+00	   2.2042183e+00	
   1.0285000e+01	   1.6566859e+00	   1.6355055e+00	   2.0373654e+00	
   1.0340000e+01	   1.4555832e+00	   1.2065724e+00	   1.8561564e+00	
   1.0395000e+01	   1.3047612e+00	   1.2244141e+00	   1.4408198e+00	
   1.0450000e+01	   1.6017715e+00	   1.5866370e+00	   2.2557639e+00	
   1.0505000e+01	   1.9579952e+00	   1.2674970e+00	   1.9848170e+00	
   1.0560000e+01	   1.7790775e+00	   1.4310928e+00	   2.1893218e+00	
   1.0615000e+01	   1.8752744e+00	   1.2040564e+00	   2.0170865e+00	
   1.0670000e+01	   2.1396431e+00	   1.4558479e+00	   2.5459469e+00	
   1.0725000e+01	   2.0153551e+00	   1.4928374e+00	   2.4665844e+00	
   1.0780000e+01	   2.0142518e+00	   1.2222159e+00	   2.0590320e+00	
   1.0835000e+01	   1.7965695e+00	   1.2016028e+00	   2.4340655e+00	
   1.0890000e+01	   1.9039213e+00	   1.7829230e+00	   2.0375818e+00	
   1.0945000e+01	   1.6846283e+00	   1.2105573e+00	   2.3815616e+00	
   1.1000000e+01	   1.4811517e+00	   6.3339999e-01	   2.1149627e+00	
   1.1055000e+01	   1.7483450e+00	   1.1148186e+00	   1.8176347e+00	
   1.1110000e+01	   1.4654483e+00	   1.1748268e+00	   1.8668231e+00	
   1.1165000e+01	   1.4588443e+00	   1.0605860e+00	   1.7949877e+00	
   1.1220000e+01	   1.3759864e+00	   9.9948066e-01	   1.7428790e+00	
   1.1275000e+01	   1.4782552e+00	   9.5012759e-01	   2.0212484e+00	
   1.1330000e+01	   1.6866218e+00	   1.3548174e+00	   2.1886647e+00	
   1.1385000e+01	   1.9252798e+00	   8.0285341e-01	   2.4450834e+00	
   1.1440000e+01	   2.0629561e+00	   1.3853182e+00	   2.4841572e+00	
   1.1495000e+01	   1.9715504e+00	   1.5420396e+00	   2.1012709e+00	
   1.1550000e+01	   2.1305626e+00	   1.6503391e+00	   2.6404398e+00	
   1.1605000e+01	   2.0672696e+00	   1.4264541e+00	   2.4923886e+00	
   1.1660000e+01	   2.1925311e+00	   8.4551450e-01	   2.0482875e+00	
   1.1715000e+01	   1.8004565e+00	   1.3252823e+00	   2.4644921e+00	
   1.1770000e+01	   1.9594695e+00	   1.3441810e+00	   2.0476483e+00	
   1.1825000e+01	   1.6849395e+00	   1.4905385e+00	   1.9334044e+00	
   1.1880000e+01	   1.6890853e+00	   1.0217421e+00	   2.2133184e+00	
   1.1935000e+01	   1.6925463e+00	   1.1132512e+00	   2.0679710e+00	
   1.1990000e+01	   1.5166800e+00	   1.0285168e+00	   2.1972799e+00	
   1.2045000e+01	   1.4432397e+00	   1.3557180e+00	   2.1035656e+00	
   1.2100000e+01	   1.5850753e+00	   1.2316226e+00	   1.7630548e+00	
   1.2155000e+01	   1.6966890e+00	   1.3151630e+00	   2.2042183e+00	
   1.2210000e+01	   2.1478937e+00	   1.2129883e+00	   1.9171157e+00	
   1.2265000e+01	   1.8650227e+00	   1.4677804e+00	   2.7091309e+00	
   1.2320000e+01	   1.6941838e+00	   1.1176428e+00	   2.3508252e+00	
   1.2375000e+01	   1.8082902e+00	   1.4641534e+00	   2.0698367e+00	
   1.2430000e+01	   1.7245353e+00	   1.1507947e+00	   2.1053996e+00	
   1.2485000e+01	   1.7477355e+00	   1.1189405e+00	   2.0117095e+00	
   1.2540000e+01	   1.6565511e+00	   8.4499389e-01	   1.8816327e+00	
   1.2595000e+01	   1.7418248e+00	   1.4489001e+00	   1.7838926e+00	
   1.2650000e+01	   1.5783435e+00	   1.2740410e+00	   2.1103978e+00	
   1.2705000e+01	   1.5801304e+00	   1.0996776e+00	   1.9028790e+00	
   1.2760000e+01	   1.3943446e+00	   8.4138772e-01	   1.9028790e+00	
   1.2815000e+01	   1.2501454e+00	   1.0122955e+00	   1.4241034e+00	
   1.2870000e+01	   1.6370766e+00	   1.4236232e+00	   2.2246417e+00	
   1.2925000e+01	   1.7862027e+00	   1.6006643e+00	   2.2512889e+00	
   1.2980000e+01	   1.8017656e+00	   1.5868858e+00	   2.3660608e+00	
   1.3035000e+01	   1.6828863e+00	   1.4542095e+00	   2.0630954e+00	
   1.3090000e+01	   1.9412942e+00	   1.5357940e+00	   2.6230523e+00	
   1.3145000e+01	   2.1017203e+00	   1.4510178e+00	   2.1838766e+00	
   1.3200000e+01	   1.7723086e+00	   1.3371618e+00	   2.1838766e+00	
   1.3255000e+01	   1.6635857e+00	   1.2241583e+00	   2.0375818e+00	
   1.3310000e+01	   1.6810771e+00	   1.0428039e+00	   2.3343740e+00	
   1.3365000e+01	   1.7208251e+00	   1.1450723e+00	   2.0586636e+00	
   1.3420000e+01	   1.4615913e+00	   1.1653492e+00	   2.1574684e+00	
   1.3475000e+01	   1.4673778e+00	   1.0598673e+00	   1.9855015e+00	
   1.3530000e+01	   1.5914588e+00	   1.3164663e+00	   1.8531866e+00	
   1.3585000e+01	   1.6519512e+00	   1.4230155e+00	   2.0212484e+00	
   1.3640000e+01	   1.7779160e+00	   7.8314030e-01	   2.3773133e+00	
   1.3695000e+01	   1.7689918e+00	   1.2393490e+00	   2.1420166e+00	
   1.3750000e+01	   2.3049087e+00	   1.6545767e+00	   2.9976713e+00	
   1.3805000e+01	   2.0457030e+00	   1.0981034e+00	   2.8003275e+00	
   1.3860000e+01	   1.9959047e+00	   1.3800243e+00	   2.8003275e+00	
   1.3915000e+01	   2.1339612e+00	   1.4606940e+00	   2.2367452e+00	
   1.3970000e+01	   1.9189230e+00	   1.4724834e+00	   2.4523367e+00	
   1.4025000e+01	   1.8952866e+00	   1.4306720e+00	   2.3616873e+00	
   1.4080000e+01	   1.7606744e+00	   1.1762668e+00	   2.2577880e+00	
   1.4135000e+01	   1.7032608e+00	   7.9960578e-01	   2.0846524e+00	
   1.4190000e+01	   1.5437083e+00	   1.3307304e+00	   2.2873034e+00	
   1.4245000e+01	   1.4281241e+00	   1.0525367e+00	   2.0535785e+00	
   1.4300000e+01	   1.2123594e+00	   9.3532499e-01	   1.6070932e+00	
   1.4355000e+01	   1.4117810e+00	   8.6721730e-01	   1.8668231e+00	
   1.4410000e+01	   1.3614637e+00	   7.6743473e-01	   1.9953397e+00	
   1.4465000e+01	   1.7367057e+00	   1.4933551e+00	   2.0065079e+00	
   1.4520000e+01	   1.7133523e+00	   1.2842489e+00	   2.1525608e+00	
   1.4575000e+01	   1.8262804e+00	   1.0758773e+00	   2.1839051e+00	
   1.4630000e+01	   2.2812644e+00	   1.5584790e+00	   2.5959119e+00	
   1.4685000e+01	   1.9494076e+00	   1.5603662e+00	   2.5959119e+00	
   1.4740000e+01	   1.7567049e+00	   1.2529057e+00	   2.3159471e+00	
   1.4795000e+01	   1.8905629e+00	   1.4767659e+00	   2.0001561e+00	
   1.4850000e+01	   1.9561604e+00	   1.5253233e+00	   2.4364590e+00	
   1.4905000e+01	   1.8687318e+00	   1.4230487e+00	   2.4364590e+00	
   1.4960000e+01	   1.5986489e+00	   1.1818858e+00	   2.0790752e+00	
   1.5015000e+01	   1.7092209e+00	   1.2556169e+00	   2.3938940e+00	
   1.5070000e+01	   1.5212274e+00	   1.3267796e+00	   2.0897482e+00	
   1.5125000e+01	   1.5240993e+00	   1.0023802e+00	   2.0375818e+00	
   1.5180000e+01	   1.5057120e+00	   1.1879010e+00	   1.9179952e+00	
   1.5235000e+01	   1.1721614e+00	   7.9238951e-01	   1.7592408e+00	
   1.5290000e+01	   1.7174711e+00	   1.3049628e+00	   2.4368043e+00	
   1.5345000e+01	   1.8603184e+00	   1.3073549e+00	   2.3467063e+00	
   1.5400000e+01	   1.7667977e+00	   1.1734337e+00	   2.4999986e+00	
   1.5455000e+01	   1.9100106e+00	   1.3246722e+00	   2.1893218e+00	
   1.5510000e+01	   1.7460238e+00	   1.3943269e+00	   2.1575883e+00	
   1.5565000e+01	   1.8731405e+00	   1.1587394e+00	   2.4364590e+00	
   1.5620000e+01	   1.9043696e+00	   1.4421717e+00	   2.2163462e+00	
   1.5675000e+01	   1.9453190e+00	   1.3075300e+00	   2.2050117e+00	
   1.5730000e+01	   1.9003409e+00	   1.1652394e+00	   2.6619433e+00	
   1.5785000e+01	   1.8508706e+00	   1.1687029e+00	   2.1630594e+00	
   1.5840000e+01	   1.6209108e+00	   6.9968531e-01	   1.8669529e+00	
   1.5895000e+01	   1.5070760e+00	   9.4849868e-01	   2.1572641e+00	
   1.5950000e+01	   1.6767027e+00	   8.5893520e-01	   2.1102725e+00	
   1.6005000e+01	   1.6542070e+00	   9.0151289e-01	   1.8866818e+00	
   1.6060000e+01	   1.2811330e+00	   8.3631318e-01	   1.8095485e+00	
   1.6115000e+01	   1.5702790e+00	   1.0699060e+00	   2.0226491e+00	
   1.6170000e+01	   1.7815537e+00	   1.1120826e+00	   2.7388115e+00	
   1.6225000e+01	   2.0010360e+00	   1.2639842e+00	   2.4729031e+00	
   1.6280000e+01	   1.8627792e+00	   1.4759831e+00	   2.2367452e+00	
   1.6335000e+01	   1.7718829e+00	   1.0248130e+00	   1.9524578e+00	
   1.6390000e+01	   1.9020393e+00	   1.4117926e+00	   1.8804358e+00	
   1.6445000e+01	   1.9024755e+00	   1.5489795e+00	   2.0059106e+00	
   1.6500000e+01	   1.6249954e+00	   1.3183633e+00	   1.9811227e+00	
   1.6555000e+01	   3.3292206e+00	   1.1443228e+01	   5.0130357e+00	
   1.6610000e+01	   3.3935953e+00	   1.1317453e+01	   5.1544319e+00	
   1.6665000e+01	   3.3626376e+00	   1.1280992e+01	   4.9610367e+00	
   1.6720000e+01	   3.0894251e+00	   1.0792635e+01	   4.6421143e+00	
   1.6775000e+01	   3.0932913e+00	   1.0890652e+01	   4.5346115e+00	
   1.6830000e+01	   3.0493180e+00	   1.1206887e+01	   4.4335468e+00	
   1.6885000e+01	   3.4788863e+00	   1.1737297e+01	   4.6822876e+00	
   1.6940000e+01	   3.2732510e+00	   1.1373617e+01	   4.8197442e+00	
   1.6995000e+01	   3.5158189e+00	   1.1563834e+01	   5.0124806e+00	
   1.7050000e+01	   3.5640765e+00	   1.1538018e+01	   5.2139347e+00	
   1.7105000e+01	   3.5284837e+00	   1.1359339e+01	   5.2145171e+00	
   1.7160000e+01	   3.4825606e+00	   1.1475970e+01	   4.7128980e+00	
   1.7215000e+01	   3.4619453e+00	   1.1216539e+01	   4.9973613e+00	
   1.7270000e+01	   3.5266365e+00	   1.1734604e+01	   5.2145171e+00	
   1.7325000e+01	   3.1884458e+00	   1.0996420e+01	   4.8052755e+00	
   1.7380000e+01	   3.0187304e+00	   1.1311233e+01	   4.7832665e+00	
   1.7435000e+01	   3.0948386e+00	   1.1219223e+01	   4.4649882e+00	
   1.7490000e+01	   3.0004576e+00	   1.1103041e+01	   4.8365114e+00	
   1.7545000e+01	   3.0429176e+00	   1.0976346e+01	   4.7723019e+00	
   1.7600000e+01	   2.9760750e+00	   1.1261180e+01	   4.3846648e+00	
   1.7655000e+01	   3.2874018e+00	   1.0612843e+01	   4.5569313e+00	
   1.7710000e+01	   3.2379651e+00	   1.1739189e+01	   5.0879008e+00	
   1.7765000e+01	   3.4631351e+00	   1.1726360e+01	   5.0268851e+00	
   1.7820000e+01	   3.4288487e+00	   1.1945820e+01	   5.0124806e+00	
   1.7875000e+01	   3.3341562e+00	   1.1377855e+01	   5.0096005e+00	
   1.7930000e+01	   3.3840556e+00	   1.1868092e+01	   5.3186021e+00	
   1.7985000e+01	   3.3033960e+00	   1.1391025e+01	   5.3186021e+00	
   1.8040000e+01	   3.1633328e+00	   1.1188194e+01	   4.7803940e+00	
   1.8095000e+01	   3.1798632e+00	   1.1287568e+01	   4.9234308e+00	
   1.8150000e+01	   2.9367405e+00	   1.0953136e+01	   4.6936616e+00	
   1.8205000e+01	   2.8835473e+00	   1.0969295e+01	   4.4806445e+00	
   1.8260000e+01	   2.9657808e+00	   1.1117314e+01	   4.8592749e+00	
   1.8315000e+01	   2.7441356e+00	   1.1037641e+01	   4.2555905e+00	
   1.8370000e+01	   2.7831550e+00	   1.0964116e+01	   4.3092655e+00	
   1.8425000e+01	   2.5600952e+00	   1.0298102e+01	   4.0834889e+00	
   1.8480000e+01	   2.6751019e+00	   1.1096409e+01	   4.3779680e+00	
   1.8535000e+01	   2.9141691e+00	   1.0973454e+01	   4.6270038e+00	
   1.8590000e+01	   3.1642672e+00	   1.1017982e+01	   4.7033355e+00	
   1.8645000e+01	   3.4499594e+00	   1.1477300e+01	   5.1754207e+00	
   1.8700000e+01	   3.2147590e+00	   1.1696108e+01	   4.7260690e+00	
   1.8755000e+01	   2.9782950e+00	   1.1505574e+01	   4.4565517e+00	
   1.8810000e+01	   2.9872766e+00	   1.1399143e+01	   4.5833703e+00	
   1.8865000e+01	   3.0106266e+00	   1.1363016e+01	   4.6767074e+00	
   1.8920000e+01	   2.8907193e+00	   1.0876574e+01	   4.7885398e+00	
   1.8975000e+01	   2.7609115e+00	   1.0594310e+01	   4.3881910e+00	
   1.9030000e+01	   2.7266633e+00	   1.1160820e+01	   4.2278051e+00	
   1.9085000e+01	   2.7701411e+00	   1.1181095e+01	   4.8226234e+00	
   1.9140000e+01	   2.6668987e+00	   1.0418563e+01	   4.1791941e+00	
   1.9195000e+01	   2.2564017e+00	   1.0560696e+01	   4.1313092e+00	
   1.9250000e+01	   2.3763640e+00	   1.0542169e+01	   4.2809773e+00	
   1.9305000e+01	   2.4003175e+00	   1.0849822e+01	   3.9632157e+00	
   1.9360000e+01	   2.6344974e+00	   1.0923055e+01	   4.4425869e+00	
   1.9415000e+01	   2.7108034e+00	   1.1063150e+01	   4.4592154e+00	
   1.9470000e+01	   3.0754194e+00	   1.1258997e+01	   4.8185438e+00	
   1.9525000e+01	   3.1633696e+00	   1.1474195e+01	   5.0713356e+00	
   1.9580000e+01	   2.8299197e+00	   1.1257241e+01	   4.4048641e+00	
   1.9635000e+01	   2.6848145e+00	   1.1129121e+01	   4.4887906e+00	
   1.9690000e+01	   2.8386418e+00	   1.0904276e+01	   4.9824027e+00	
   1.9745000e+01	   2.6777102e+00	   1.1252741e+01	   4.2426172e+00	
   1.9800000e+01	   2.7005949e+00	   1.1000903e+01	   4.5163959e+00	
   1.9855000e+01	   1.0635616e+00	   1.2239098e+00	   1.2873972e+00	
   1.9910000e+01	   7.3357756e-01	   4.9627956e-01	   1.2638026e+00	
   1.9965000e+01	   6.8314533e-01	   5.3995871e-01	   9.7722584e-01	
   2.0020000e+01	   5.0290718e-01	   1.9890760e-01	   4.6771671e-01	
   2.0075000e+01	   4.4990969e-01	   2.2511959e-01	   1.0310746e+00	
   2.0130000e+01	   2.0469186e+00	   1.0095961e+01	   3.9632157e+00	
   2.0185000e+01	   2.4079731e+00	   1.0956205e+01	   4.2833592e+00	
   2.0240000e+01	   2.6233325e+00	   1.0441388e+01	   4.4546403e+00	
   2.0295000e+01	   2.4520718e+00	   1.0937346e+01	   4.1598798e+00	
   2.0350000e+01	   2.6179474e+00	   1.1011128e+01	   4.7283950e+00	
   2.0405000e+01	   2.7261585e+00	   1.1224293e+01	   4.4048641e+00	
   2.0460000e+01	   2.6279975e+00	   1.0807480e+01	   4.2464950e+00	
   2.0515000e+01	   2.4894713e+00	   1.0796790e+01	   4.0305108e+00	
   2.0570000e+01	   2.6386242e+00	   1.0480140e+01	   4.3528014e+00	
   2.0625000e+01	   2.6911144e+00	   1.1032169e+01	   4.4649882e+00	
   2.0680000e+01	   2.2502219e+00	   1.0743095e+01	   3.6829888e+00	
   2.0735000e+01	   2.1317605e+00	   1.0414198e+01	   4.2338761e+00	
   2.0790000e+01	   2.1574971e+00	   1.0451929e+01	   4.1826073e+00	
   2.0845000e+01	   6.1323487e-01	   1.2560504e+00	   1.6283332e+00	
   2.0900000e+01	   1.8624654e-01	   9.2933615e-02	   1.0360873e+00	
   2.0955000e+01	   5.4738998e-01	   2.3247611e+00	   1.6662609e+00	
   2.1010000e+01	   2.3120181e+00	   1.0539643e+01	   4.0766271e+00	
   2.1065000e+01	   2.3611161e+00	   1.0758984e+01	   4.5163959e+00	
   2.1120000e+01	   2.2003216e+00	   1.0263093e+01	   4.1472796e+00	
   2.1175000e+01	   2.4247342e+00	   1.0554673e+01	   4.7436786e+00	
   2.1230000e+01	   2.5262652e+00	   1.0748109e+01	   4.2628347e+00	
   2.1285000e+01	   2.4805235e+00	   1.0733355e+01	   4.3881910e+00	
   2.1340000e+01	   2.2961890e+00	   1.0527276e+01	   4.0862911e+00	
   2.1395000e+01	   2.2769438e+00	   1.0395268e+01	   4.2529717e+00	
   2.1450000e+01	   2.2445513e+00	   1.0374162e+01	   3.8627410e+00	
   2.1505000e+01	   1.9831865e+00	   1.0627796e+01	   3.7265693e+00	
   2.1560000e+01	   1.6785163e-01	   9.5605334e-01	   8.8951919e-01	
   2.1615000e+01	   5.1976940e-03	  -5.7483578e-02	   8.7504678e-01	
   2.1670000e+01	   6.9728363e-02	  -3.8737080e-01	   1.2487749e+00	
   2.1725000e+01	   6.6832485e-02	   2.8490874e-01	   8.8876634e-01	
   2.1780000e+01	   4.6482239e-01	   4.3789109e-01	   1.0968537e+00	
   2.1835000e+01	   2.2478757e+00	   1.0172977e+01	   4.2498465e+00	
   2.1890000e+01	   2.1480385e+00	   1.0172559e+01	   4.0573129e+00	
   2.1945000e+01	   2.3436861e+00	   1.0711445e+01	   4.1248502e+00	
   2.2000000e+01	   2.0939921e+00	   9.9398391e+00	   4.3239340e+00	
   2.2055000e+01	   2.1474949e+00	   1.0052675e+01	   4.1598798e+00	
   2.2110000e+01	   2.2136159e+00	   1.0682734e+01	   4.5545931e+00	
   2.2165000e+01	   2.1545858e+00	   1.0570559e+01	   4.0383204e+00	
   2.2220000e+01	   2.2482869e+00	   1.0251062e+01	   3.9360294e+00	
   2.2275000e+01	   1.8498068e+00	   9.9507188e+00	   3.5691931e+00	
   2.2330000e+01	   5.4140422e-01	   8.1689886e-01	   1.1242376e+00	
   2.2385000e+01	   3.5281051e-01	   5.4687931e-01	   1.0067727e+00	
   2.2440000e+01	   1.7867068e+00	   1.0195683e+01	   3.4560968e+00	
   2.2495000e+01	   1.7117237e+00	   9.6982126e+00	   3.5115718e+00	
   2.2550000e+01	   1.6320387e+00	   1.0079951e+01	   3.7272867e+00	
   2.2605000e+01	   2.1315821e+00	   1.0587833e+01	   4.2100170e+00	
   2.2660000e+01	   2.1621898e+00	   1.0022880e+01	   3.9360294e+00	
   2.2715000e+01	   2.3392057e+00	   1.0416647e+01	   4.0573129e+00	
   2.2770000e+01	   2.2566014e+00	   1.0358422e+01	   4.3012542e+00	
   2.2825000e+01	   2.2680943e+00	   1.0210766e+01	   4.1950874e+00	
   2.2880000e+01	   6.5086461e-01	   1.3041482e-01	   1.7355885e+00	
   2.2935000e+01	   3.7243832e-01	  -2.2925320e-01	   1.0358281e+00	
   2.2990000e+01	   3.3559839e-01	  -1.5189667e-01	   8.8736069e-01	
   2.3045000e+01	   3.1898968e-01	   1.7030169e-01	   1.3174739e+00	
   2.3100000e+01	   3.2523533e-01	  -1.0429664e-01	   1.5002403e+00	
   2.3155000e+01	   1.1414551e-01	  -3.7740440e-01	   9.4044950e-01	
   2.3210000e+01	   2.1896483e-01	  -2.7735973e-01	   1.1236473e+00	
   2.3265000e+01	   1.7070764e-01	  -3.6098450e-01	   1.1236473e+00	
   2.3320000e+01	  -1.1740211e-01	  -3.9575005e-01	   6.1607693e-01	
   2.3375000e+01	  -3.1858013e-02	  -6.8180376e-01	   3.8390288e-01	
   2.3430000e+01	   2.0894881e-01	  -7.8962765e-02	   1.1204498e+00	
   2.3485000e+01	   5.8717241e-01	   1.0975305e-01	   1.1849014e+00	
   2.3540000e+01	   5.5449917e-01	   8.8462298e-02	   1.1798185e+00	
   2.3595000e+01	   4.1407974e-01	  -1.1454932e-01	   7.7560519e-01	
   2.3650000e+01	   6.3228337e-01	   5.9288424e-01	   1.1987411e+00	
   2.3705000e+01	   5.4359541e-01	   5.1922023e-01	   1.2063653e+00	
   2.3760000e+01	   7.1529827e-01	   4.5214050e-03	   1.2533569e+00	
   2.3815000e+01	   4.2178322e-01	   3.6341857e-01	   1.0291673e+00	
   2.3870000e+01	   4.2284327e-01	   1.0587459e-01	   1.1675882e+00	
   2.3925000e+01	   5.3273702e-01	   3.6574463e-01	   1.4241034e+00	
   2.3980000e+01	   4.1969478e-01	  -2.2789015e-01	   8.2862823e-01	
   2.4035000e+01	   4.2196115e-01	  -3.7750374e-01	   9.2368755e-01	
   2.4090000e+01	   1.5393395e-01	  -2.0845400e-01	   9.9004511e-01	
   2.4145000e+01	   1.7289449e-02	  -2.5748938e-01	   9.0240995e-01	
   2.4200000e+01	  -1.2088348e-01	  -4.7265481e-02	   6.2478778e-01	
   2.4255000e+01	   6.2566685e-02	  -9.2578720e-02	   8.1606879e-01	
   2.4310000e+01	   3.9522632e-01	   2.4000773e-01	   1.0233800e+00	
   2.4365000e+01	   5.0328876e-01	   1.9864215e-01	   9.7134486e-01	
   2.4420000e+01	   7.8942304e-01	   1.2114319e-01	   1.2729200e+00	
   2.4475000e+01	   8.0572227e-01	   5.1001141e-01	   1.2095239e+00	
   2.4530000e+01	   5.1627971e-01	  -1.8175339e-01	   1.5171998e+00	
   2.4585000e+01	   9.9935188e-01	   5.9612721e-01	   1.4135884e+00	
   2.4640000e+01	   6.3945357e-01	   3.7156472e-01	   1.2903494e+00	
   2.4695000e+01	   5.5622256e-01	   9.0681934e-02	   1.3639676e+00	
   2.4750000e+01	   6.6504051e-01	  -1.3623111e-02	   9.4249760e-01	
   2.4805000e+01	   4.5657515e-01	   2.0158258e-01	   1.1922192e+00	
   2.4860000e+01	   4.4509716e-01	   1.3923469e-01	   9.4411432e-01	
   2.4915000e+01	   1.6657122e-01	  -3.5744437e-01	   7.9196164e-01	
   2.4970000e+01	   2.4895193e-01	  -8.5027402e-02	   1.0807778e+00	
   2.5025000e+01	   3.9534095e-02	  -4.3136674e-02	   4.8561200e-01	
   2.5080000e+01	   3.6898674e-01	   1.9082223e-01	   8.7349769e-01	
   2.5135000e+01	   1.9247570e-01	   1.1966512e-02	   2.6472015e-01	
   2.5190000e+01	   3.1496372e-01	   8.4282986e-02	   5.5968970e-01	
   2.5245000e+01	   7.9135285e-01	   4.1588884e-01	   1.2917985e+00	
   2.5300000e+01	   5.8301215e-01	   1.4201610e-01	   1.1482278e+00	
   2.5355000e+01	   6.0061062e-01	   3.7507735e-01	   1.3569042e+00	
   2.5410000e+01	   6.4961981e-01	   6.2357350e-01	   8.5894510e-01	
   2.5465000e+01	   4.6156197e-01	   1.8568625e-01	   1.1773661e+00	
   2.5520000e+01	   5.5272741e-01	   1.9422824e-02	   1.2609186e+00	
   2.5575000e+01	   3.3187582e-01	  -1.8382423e-01	   1.0084037e+00	
   2.5630000e+01	   4.8935804e-01	   4.1409464e-01	   8.4962380e-01	
   2.5685000e+01	   4.2736664e-01	   2.7021666e-01	   1.0233800e+00	
   2.5740000e+01	   3.5368109e-01	  -1.8052691e-01	   6.2532518e-01	
   2.5795000e+01	   2.1827967e-01	   1.7834188e-01	   8.4644256e-01	
   2.5850000e+01	  -6.7183519e-02	  -3.3634150e-01	   9.4845216e-01	
   2.5905000e+01	   3.4057349e-01	   1.6932209e-01	   6.7049735e-01	
   2.5960000e+01	   2.7041210e-01	  -3.1349196e-01	   4.8524508e-01	
   2.6015000e+01	   1.9990391e-01	   1.4769755e-02	   8.0002401e-01	
   2.6070000e+01	   4.2327024e-01	   6.2316665e-01	   6.9109339e-01	
   2.6125000e+01	   7.8340735e-01	   5.2947303e-01	   1.2729200e+00	
   2.6180000e+01	   5.2621707e-01	   3.1894831e-01	   1.3739019e+00	
   2.6235000e+01	   5.2162720e-01	   6.9844663e-02	   1.3773756e+00	
   2.6290000e+01	   6.8076346e-01	   3.4518259e-01	   1.0000515e+00	
   2.6345000e+01	   5.9424445e-01	   4.7569357e-01	   1.1876977e+00	
   2.6400000e+01	   4.7636711e-01	   4.7683948e-01	   1.1412791e+00	
   2.6455000e+01	   1.2480144e-01	   3.6099339e-01	   8.7662812e-01	
   2.6510000e+01	   4.0293027e-01	   1.2396563e-01	   7.8247406e-01	
   2.6565000e+01	   3.2978647e-01	   3.7851225e-01	   1.1528461e+00	
   2.6620000e+01	   4.1760668e-01	   1.3064810e-01	   8.1936236e-01	
   2.6675000e+01	   8.2552457e-02	  -2.0378189e-01	   3.6682096e-01	
   2.6730000e+01	  -3.9619528e-02	  -3.9581320e-01	   8.3528409e-01	
   2.6785000e+01	  -3.8459470e-02	  -4.1704663e-02	   2.5546051e-01	
   2.6840000e+01	   2.0474197e-01	  -4.1284554e-02	   7.1631726e-01	
   2.6895000e+01	   4.4620396e-01	  -1.5263964e-02	   1.0626404e+00	
   2.6950000e+01	   5.6487690e-01	   1.5261236e-01	   8.7847106e-01	
   2.7005000e+01	   8.0447615e-01	   2.5172166e-02	   1.2357751e+00	
   2.7060000e+01	   5.0133584e-01	   3.5334551e-01	   1.3893277e+00	
   2.7115000e+01	   3.7767543e-01	   4.6442586e-02	   8.5010103e-01	
   2.7170000e+01	   6.1536400e-01	   9.0513911e-02	   1.3196426e+00	
   2.7225000e+01	   5.3849139e-01	   1.7792021e-01	   1.0000515e+00	
   2.7280000e+01	   3.9846416e-01	  -2.7716823e-01	   1.3739019e+00	
   2.7335000e+01	   3.4322209e-01	  -1.0525335e-01	   1.0000515e+00	
   2.7390000e+01	   2.6500902e-01	  -1.9904378e-01	   9.7940002e-01	
   2.7445000e+01	   2.9799787e-01	  -3.5329952e-02	   9.1155873e-01	
   2.7500000e+01	   1.4839664e-01	  -1.1721357e-01	   9.0378292e-01	
   2.7555000e+01	  -1.3080329e-01	  -2.0241227e-01	   3.5675071e-01	
   2.7610000e+01	  -8.3380256e-02	  -3.0094287e-01	   7.5386984e-01	
   2.7665000e+01	   4.5159344e-02	  -7.8412031e-02	   7.2431809e-01	
   2.7720000e+01	   2.6319139e-01	   7.5917219e-02	   9.0240995e-01	
   2.7775000e+01	   3.1039752e-01	   1.0752008e-01	   9.6202357e-01	
   2.7830000e+01	   5.6166796e-01	   1.2440893e-01	   1.3795663e+00	
   2.7885000e+01	   6.7252470e-01	   4.0812508e-01	   1.4063388e+00	
   2.7940000e+01	   5.0393146e-01	   1.7796251e-01	   8.3215827e-01	
   2.7995000e+01	   4.1864619e-01	   1.8180956e-01	   8.5090635e-01	
   2.8050000e+01	   5.5755312e-01	   3.7775333e-01	   1.4168694e+00	
   2.8105000e+01	   5.5689117e-01	   3.4417673e-01	   1.1890525e+00	
   2.8160000e+01	   2.0306227e-01	   3.6455887e-02	   1.1505253e+00	
   2.8215000e+01	   3.4280102e-01	  -2.1720634e-02	   1.4238693e+00	
   2.8270000e+01	   2.3426102e-01	   5.0439212e-01	   9.2485116e-01	
   2.8325000e+01	   2.6826349e-01	   1.4981987e-01	   1.3342246e+00	
   2.8380000e+01	   1.6482843e-01	   2.0704613e-01	   6.1614859e-01	
   2.8435000e+01	   8.0058407e-02	   2.9393888e-02	   8.2862823e-01	
   2.8490000e+01	  -1.7687360e-02	   1.2373729e-01	   6.6189684e-01	
   2.8545000e+01	  -5.1671154e-02	   3.4218356e-04	   8.6540456e-01	
   2.8600000e+01	   6.9707225e-02	   4.6004425e-01	   6.7049735e-01	
   2.8655000e+01	   1.9629028e-01	   4.1434052e-01	   6.9072790e-01	
   2.8710000e+01	   4.0224522e-01	   3.8577357e-01	   1.2729200e+00	
   2.8765000e+01	   5.5791583e-01	   6.8870291e-01	   1.3592682e+00	
   2.8820000e+01	   6.7104542e-01	   6.4124136e-01	   1.0967942e+00	
   2.8875000e+01	   6.0819378e-01	   2.6504437e-01	   1.4802073e+00	
   2.8930000e+01	   3.9619931e-01	   3.4484511e-01	   9.5428764e-01	
   2.8985000e+01	   3.4215178e-01	   5.2567430e-01	   1.2085814e+00	
   2.9040000e+01	   4.2911460e-01	   8.3650397e-02	   1.2340778e+00	
   2.9095000e+01	   2.3894279e-01	   3.2046217e-01	   2.8989529e-01	
   2.9150000e+01	   1.4933345e-01	   1.3011674e-01	   9.7134486e-01	
   2.9205000e+01	   2.3231163e-01	   2.1263328e-02	   1.0162603e+00	
   2.9260000e+01	   1.8773030e-01	  -1.5701328e-01	   8.8660138e-01	
   2.9315000e+01	  -6.0710621e-02	  -2.6437783e-02	   5.1497903e-01	
   2.9370000e+01	  -4.9035698e-02	  -1.4042138e-01	   5.8785421e-01	
   2.9425000e+01	  -1.5095509e-01	  -2.5171624e-01	   4.3056237e-01	
   2.9480000e+01	   1.7708503e-01	   2.7204383e-02	   1.1890501e+00	
   2.9535000e+01	   3.5682026e-01	  -4.2485944e-02	   9.4249760e-01	
   2.9590000e+01	   3.3789480e-01	   1.5934524e-01	   1.1224977e+00	
   2.9645000e+01	   6.7338414e-01	   5.4388780e-01	   1.1987411e+00	
   2.9700000e+01	   2.1093923e-01	   2.6810111e-01	   8.7876614e-01	
   2.9755000e+01	   2.5444726e-01	   8.1752505e-02	   1.0466593e+00	
   2.9810000e+01	   5.1082046e-01	   3.0827755e-01	   1.0012793e+00	
   2.9865000e+01	   4.1830860e-01	   6.1953549e-01	   1.3569042e+00	
   2.9920000e+01	   3.4138125e-01	   5.6247695e-01	   8.3002025e-01	
   2.9975000e+01	   3.4237034e-01	   2.5021841e-01	   1.0375419e+00	
   3.0030000e+01	   1.3157494e-01	   5.0045020e-03	   9.1341638e-01	
   3.0085000e+01	   1.1555302e-01	   4.8146060e-01	   1.0162603e+00	
   3.0140000e+01	   4.0789522e-02	   2.6277097e-01	   7.9440500e-01	
   3.0195000e+01	  -3.1391197e-01	  -2.6467957e-01	   4.2121774e-01	
   3.0250000e+01	   3.5585477e-02	   2.6834746e-01	   5.7010638e-01	
   3.0305000e+01	   3.8443190e-01	   5.0639986e-01	   9.3629346e-01	
   3.0360000e+01	   4.6668865e-01	   3.1967109e-01	   1.0179527e+00	
   3.0415000e+01	   3.9170095e-01	   2.7916108e-01	   1.4802073e+00	
   3.0470000e+01	   4.0628528e-01	   3.1965178e-01	   1.1987411e+00	
   3.0525000e+01	   3.4436617e-01	   4.6140437e-01	   1.2063653e+00	
   3.0580000e+01	   4.6422919e-01	  -1.4993846e-03	   9.6279182e-01	
   3.0635000e+01	   3.4212926e-01	   9.2194394e-02	   9.2335072e-01	
   3.0690000e+01	   2.3444284e-01	   4.0449637e-01	   1.0840357e+00	
   3.0745000e+01	   3.1908372e-01	   8.6383417e-01	   1.0454197e+00	
   3.0800000e+01	   1.5799920e-01	   1.1335431e-01	   6.3566857e-01	
   3.0855000e+01	   4.2121621e-02	  -6.4175388e-02	   9.9004511e-01	
   3.0910000e+01	   8.4882655e-02	   2.5159150e-01	   6.9938893e-01	
   3.0965000e+01	  -7.2723040e-02	   3.2413108e-02	   8.1121020e-01	
   3.1020000e+01	  -1.1647270e-01	  -1.6998131e-01	   9.6569406e-01	
   3.1075000e+01	   2.2715050e-01	   2.2199266e-01	   8.1121020e-01	
   3.1130000e+01	   3.5833393e-01	   2.4049109e-01	   1.1382935e+00	
   3.1185000e+01	   7.1006240e-01	   3.5134446e-01	   1.3739019e+00	
   3.1240000e+01	   6.2481838e-01	   2.0607488e-01	   1.3864930e+00	
   3.1295000e+01	   4.0120845e-01	   3.9548417e-01	   1.1714252e+00	
   3.1350000e+01	   5.2163252e-01	   2.1877873e-01	   9.9266332e-01	
   3.1405000e+01	   5.9251302e-01	   4.6140966e-01	   1.1987411e+00	
   3.1460000e+01	   4.6439109e-01	   5.0558102e-01	   1.2436268e+00	
   3.1515000e+01	   5.0974582e-01	   5.3441222e-01	   1.1382935e+00	
   3.1570000e+01	   2.2320313e-01	  -9.0267825e-02	   8.5010103e-01	
   3.1625000e+01	   3.6217650e-01	   3.1466770e-01	   7.3714645e-01	
   3.1680000e+01	   3.1105797e-01	   7.5455943e-02	   1.2581253e+00	
   3.1735000e+01	   1.5093940e-01	   1.9651875e-01	   1.0689718e+00	
   3.1790000e+01	   1.8350809e-01	  -1.2017502e-02	   8.4825313e-01	
   3.1845000e+01	   1.8839513e-01	   3.2178484e-01	   6.1470180e-01	
   3.1900000e+01	   5.1439915e-01	   5.5173575e-01	   1.1560607e+00	
   3.1955000e+01	   4.3505926e-01	   3.4634067e-01	   1.3938488e+00	
   3.2010000e+01	   5.4421971e-01	   1.2875384e-01	   1.2164435e+00	
   3.2065000e+01	   8.5513111e-01	   2.7464936e-01	   1.4363983e+00	
   3.2120000e+01	   7.0276832e-01	   1.5328631e-01	   1.5777618e+00	
   3.2175000e+01	   4.7124119e-01	   4.7619743e-01	   1.3666343e+00	
   3.2230000e+01	   6.5763111e-01	   5.0547890e-01	   1.1694894e+00	
   3.2285000e+01	   6.5134856e-01	   3.0212718e-01	   1.4036268e+00	
   3.2340000e+01	   6.5679710e-01	   3.1716898e-01	   1.2560176e+00	
   3.2395000e+01	   4.8313923e-01	   3.1136331e-01	   1.3739019e+00	
   3.2450000e+01	   3.6938864e-01	   1.9875603e-01	   1.2609186e+00	
   3.2505000e+01	   6.0886278e-01	   6.6959031e-01	   1.5002403e+00	
   3.2560000e+01	   4.8665531e-01	   1.6996728e-01	   1.2482571e+00	
   3.2615000e+01	   1.0727049e-01	  -8.5251328e-02	   1.0822415e+00	
   3.2670000e+01	  -3.1214387e-02	  -2.1390649e-02	   8.5444443e-01	
   3.2725000e+01	   2.7828774e-01	   2.4788720e-01	   1.3281870e+00	
   3.2780000e+01	   4.6163426e-01	   1.7829889e-01	   9.3118363e-01	
   3.2835000e+01	   7.0293814e-01	   4.2790995e-01	   1.1596427e+00	
   3.2890000e+01	   7.4934774e-01	   1.9871172e-01	   1.4036268e+00	
   3.2945000e+01	   8.6887548e-01	   4.2176585e-01	   1.4063388e+00	
   3.3000000e+01	   8.1671680e-01	   5.9184487e-01	   1.6616293e+00	
   3.3055000e+01	   5.0335764e-01	   4.5920916e-01	   1.3963397e+00	
   3.3110000e+01	   5.5767338e-01	   3.0030838e-01	   1.1987411e+00	
   3.3165000e+01	   7.4127725e-01	   6.6159366e-01	   1.6682736e+00	
   3.3220000e+01	   5.7448144e-01	   6.2683108e-01	   1.3102963e+00	
   3.3275000e+01	   4.3129151e-01	   2.5448680e-01	   8.9600389e-01	
   3.3330000e+01	   4.6927481e-01	   4.1450366e-01	   1.1750401e+00	
   3.3385000e+01	   5.7104535e-01	   2.3266601e-02	   1.2710938e+00	
   3.3440000e+01	   4.2060413e-01	   6.2192057e-01	   1.1949323e+00	
   3.3495000e+01	   1.5730456e-01	  -7.8239633e-02	   9.5596723e-01	
   3.3550000e+01	   9.9957612e-02	  -1.6790313e-01	   3.6563857e-01	
   3.3605000e+01	   3.7720534e-01	   2.9884262e-01	   9.9460632e-01	
   3.3660000e+01	   6.5676970e-01	   3.7691641e-01	   1.4639176e+00	
   3.3715000e+01	   4.8441750e-01	   7.5532439e-02	   1.4238693e+00	
   3.3770000e+01	   8.5007969e-01	   4.5122894e-01	   1.3328437e+00	
   3.3825000e+01	   6.3626945e-01	   7.8494286e-01	   1.4506185e+00	
   3.3880000e+01	   6.3836079e-01	   5.1523468e-01	   1.4772450e+00	
   3.3935000e+01	   8.1332014e-01	   5.0111811e-01	   1.1130348e+00	
   3.3990000e+01	   6.5737119e-01	   3.7952712e-01	   1.4472079e+00	
   3.4045000e+01	   6.8046842e-01	   4.2219215e-01	   1.7896016e+00	
   3.4100000e+01	   6.8291594e-01	   4.9242758e-01	   1.1750401e+00	
   3.4155000e+01	   5.1552528e-01	   4.6876366e-01	   9.9900115e-01	
   3.4210000e+01	   4.6433737e-01	   3.7975492e-01	   1.0626404e+00	
   3.4265000e+01	   4.7685474e-01	   1.0747749e-01	   1.2021030e+00	
   3.4320000e+01	   5.9688499e-01	   1.7026640e-01	   1.2653235e+00	
   3.4375000e+01	   5.6968758e-01	   7.3629623e-02	   1.0142312e+00	
   3.4430000e+01	   8.2274796e-01	   5.6491925e-01	   1.4036268e+00	
   3.4485000e+01	   1.0476846e+00	   5.8279095e-01	   1.3493481e+00	
   3.4540000e+01	   1.0312209e+00	   4.4720006e-01	   1.7187782e+00	
   3.4595000e+01	   9.5451664e-01	   2.8705472e-01	   1.4396779e+00	
   3.4650000e+01	   7.7881121e-01	   3.0451189e-01	   1.1907400e+00	
   3.4705000e+01	   9.9266920e-01	   7.0832452e-01	   1.7619879e+00	
   3.4760000e+01	   1.0298546e+00	   4.4688942e-01	   1.3297209e+00	
   3.4815000e+01	   6.8847010e-01	   5.9251322e-01	   1.7311401e+00	
   3.4870000e+01	   7.6502577e-01	   6.4790221e-01	   1.2141960e+00	
   3.4925000e+01	   8.1071693e-01	   6.6312793e-01	   1.4603457e+00	
   3.4980000e+01	   9.9648368e-01	   7.3391408e-01	   1.4772450e+00	
   3.5035000e+01	   4.7348085e-01	   8.7983349e-02	   9.7940002e-01	
   3.5090000e+01	   4.3781408e-01	   3.0955965e-01	   6.4457373e-01	
   3.5145000e+01	   5.8423495e-01	   3.5515860e-01	   8.7504678e-01	
   3.5200000e+01	   1.0020843e+00	   6.2677294e-01	   1.1631438e+00	
   3.5255000e+01	   1.0315028e+00	   6.5422153e-01	   1.3893277e+00	
   3.5310000e+01	   1.0931994e+00	   7.8980335e-01	   1.9338175e+00	
   3.5365000e+01	   1.2025807e+00	   9.8615594e-01	   1.6205132e+00	
   3.5420000e+01	   1.2021697e+00	   9.5222331e-01	   1.3049839e+00	
   3.5475000e+01	   1.1000561e+00	   4.8144506e-01	   1.4112485e+00	
   3.5530000e+01	   1.0605330e+00	   1.0226179e+00	   1.3346500e+00	
   3.5585000e+01	   1.1085168e+00	   9.3642163e-01	   1.9848170e+00	
   3.5640000e+01	   1.1444521e+00	   9.5217891e-01	   1.7456135e+00	
   3.5695000e+01	   8.2448572e-01	   9.9504491e-01	   1.7149962e+00	
   3.5750000e+01	   9.1997691e-01	   6.4721360e-01	   1.4404567e+00	
   3.5805000e+01	   8.6867188e-01	   9.2021530e-01	   1.2063653e+00	
   3.5860000e+01	   8.5358012e-01	   8.7087324e-01	   1.4173098e+00	
   3.5915000e+01	   7.5608077e-01	   3.7854497e-01	   1.3244360e+00	
   3.5970000e+01	   8.3067740e-01	   4.7548977e-01	   1.1015052e+00	
   3.6025000e+01	   1.4183330e+00	   1.2466069e+00	   1.5806943e+00	
   3.6080000e+01	   1.3135976e+00	   1.2285671e+00	   1.6278819e+00	
   3.6135000e+01	   1.3108765e+00	   1.0325276e+00	   1.9524578e+00	
   3.6190000e+01	   1.1576802e+00	   1.1117181e+00	   1.7192166e+00	
   3.6245000e+01	   1.5725272e+00	   1.2853530e+00	   1.7766687e+00	
   3.6300000e+01	   1.4654721e+00	   9.4117134e-01	   1.6751872e+00	
   3.6355000e+01	   1.3587965e+00	   9.7439138e-01	   1.9643033e+00	
   3.6410000e+01	   1.3571397e+00	   9.2239493e-01	   1.3693420e+00	
   3.6465000e+01	   1.4650429e+00	   1.0371872e+00	   1.8026457e+00	
   3.6520000e+01	   1.3896167e+00	   1.0855975e+00	   1.5105837e+00	
   3.6575000e+01	   1.2344019e+00	   8.5431198e-01	   1.0095144e+00	
   3.6630000e+01	   1.0982363e+00	   7.0534599e-01	   1.4541291e+00	
   3.6685000e+01	   1.0111816e+00	   3.3384519e-01	   1.4404567e+00	
   3.6740000e+01	   1.0818469e+00	   4.6801680e-01	   1.4472079e+00	
   3.6795000e+01	   1.4373560e+00	   9.0455444e-01	   2.2720360e+00	
   3.6850000e+01	   1.5585418e+00	   1.1245426e+00	   1.7899590e+00	
   3.6905000e+01	   1.8136760e+00	   1.2988398e+00	   1.9837133e+00	
   3.6960000e+01	   1.7260285e+00	   1.4401370e+00	   2.1947616e+00	
   3.7015000e+01	   1.5534256e+00	   1.1187198e+00	   1.8205307e+00	
   3.7070000e+01	   1.3635439e+00	   1.1264850e+00	   1.8069543e+00	
   3.7125000e+01	   1.5712545e+00	   9.5308377e-01	   1.9560546e+00	
   3.7180000e+01	   1.4329561e+00	   1.0293140e+00	   2.0318876e+00	
   3.7235000e+01	   1.3735257e+00	   1.0764059e+00	   1.9643033e+00	
   3.7290000e+01	   1.1957373e+00	   8.5681575e-01	   1.3666343e+00	
   3.7345000e+01	   1.2460152e+00	   1.1597059e+00	   1.4036268e+00	
   3.7400000e+01	   1.2573342e+00	   9.8395040e-01	   1.7838926e+00	
   3.7455000e+01	   1.1193879e+00	   1.0528976e+00	   1.4307513e+00	
   3.7510000e+01	   1.0682709e+00	   9.8594031e-01	   1.6766183e+00	
   3.7565000e+01	   1.0975654e+00	   1.1242449e+00	   1.7065541e+00	
   3.7620000e+01	   1.3345017e+00	   1.0814639e+00	   2.1318400e+00	
   3.7675000e+01	   1.3517026e+00	   1.0338993e+00	   1.7021519e+00	
   3.7730000e+01	   1.4056522e+00	   1.0283485e+00	   2.1209860e+00	
   3.7785000e+01	   1.2678725e+00	   1.0129379e+00	   2.1630594e+00	
   3.7840000e+01	   1.4829075e+00	   1.1538558e+00	   1.9643033e+00	
   3.7895000e+01	   1.2715844e+00	   8.4536897e-01	   1.7054038e+00	
   3.7950000e+01	   1.0396881e+00	   7.4778012e-01	   1.5944512e+00	
   3.8005000e+01	   1.1807085e+00	   8.6438533e-01	   1.5238528e+00	
   3.8060000e+01	   1.2805021e+00	   9.0202159e-01	   1.9387789e+00	
   3.8115000e+01	   1.0218915e+00	   1.0059658e+00	   1.3410558e+00	
   3.8170000e+01	   1.0246973e+00	   1.1448110e+00	   1.4374193e+00	
   3.8225000e+01	   9.5141722e-01	   1.0057576e+00	   1.6356891e+00	
   3.8280000e+01	   1.0799532e+00	   8.3262955e-01	   1.7735701e+00	
   3.8335000e+01	   7.7647568e-01	   5.4751707e-01	   1.4963967e+00	
   3.8390000e+01	   1.0510064e+00	   6.4939515e-01	   1.6070932e+00	
   3.8445000e+01	   1.4919286e+00	   1.3183348e+00	   1.8923381e+00	
   3.8500000e+01	   1.5182582e+00	   1.5361995e+00	   2.5756289e+00	
   3.8555000e+01	   1.3278232e+00	   9.9849611e-01	   1.9505054e+00	
   3.8610000e+01	   1.5260470e+00	   1.0926467e+00	   1.8230910e+00	
   3.8665000e+01	   1.5548755e+00	   9.2086266e-01	   2.2512889e+00	
   3.8720000e+01	   1.3150034e+00	   1.0518717e+00	   2.6329099e+00	
   3.8775000e+01	   1.3502926e+00	   1.0835807e+00	   2.0476483e+00	
   3.8830000e+01	   1.3412649e+00	   5.1103525e-01	   1.6800072e+00	
   3.8885000e+01	   1.0796388e+00	   1.1201983e+00	   1.8921710e+00	
   3.8940000e+01	   1.0982287e+00	   5.6643718e-01	   1.8613632e+00	
   3.8995000e+01	   9.7688165e-01	   5.0381664e-01	   1.4663141e+00	
   3.9050000e+01	   7.5459096e-01	   5.9202987e-01	   1.4048052e+00	
   3.9105000e+01	   1.1575358e+00	   9.9016505e-01	   1.6194166e+00	
   3.9160000e+01	   7.3641169e-01	   4.5672977e-01	   9.1155873e-01	
   3.9215000e+01	   7.2936336e-01	   3.9859762e-01	   1.4721309e+00	
   3.9270000e+01	   1.0204268e+00	   3.9733882e-01	   1.8508066e+00	
   3.9325000e+01	   1.2647562e+00	   6.9938431e-01	   1.6175671e+00	
   3.9380000e+01	   1.3099420e+00	   1.0090415e+00	   1.6175671e+00	
   3.9435000e+01	   1.1948893e+00	   1.1089423e+00	   2.1158718e+00	
   3.9490000e+01	   1.2024657e+00	   1.0295391e+00	   1.6111456e+00	
   3.9545000e+01	   1.3698442e+00	   8.4048679e-01	   2.1102725e+00	
   3.9600000e+01	   1.3722390e+00	   1.0603359e+00	   1.6070932e+00	
   3.9655000e+01	   1.1234495e+00	   5.0215741e-01	   1.7428790e+00	
   3.9710000e+01	   1.0346890e+00	   6.4480293e-01	   1.4241034e+00	
   3.9765000e+01	   1.3287175e+00	   1.0024866e+00	   1.6715126e+00	
   3.9820000e+01	   9.6364506e-01	   5.2262529e-01	   1.9486516e+00	
   3.9875000e+01	   9.2539376e-01	   4.3238488e-01	   1.5325598e+00	
   3.9930000e+01	   7.2269951e-01	   2.6782095e-01	   1.2715196e+00	
   3.9985000e+01	   8.9445672e-01	   7.8488874e-01	   9.7307700e-01	
   4.0040000e+01	   7.5415867e-01	   4.4600658e-01	   1.5948981e+00	
   4.0095000e+01	   4.5553614e-01	   2.6700502e-01	   7.5296690e-01	
   4.0150000e+01	   9.8195341e-01	   4.9105547e-01	   1.7431622e+00	
   4.0205000e+01	   1.0655528e+00	   9.4745551e-01	   1.9543178e+00	
   4.0260000e+01	   1.1994204e+00	   6.8311139e-01	   2.0740238e+00	
   4.0315000e+01	   1.3024295e+00	   9.2237905e-01	   1.6682736e+00	
   4.0370000e+01	   1.1557297e+00	   1.0651371e+00	   1.8613345e+00	
   4.0425000e+01	   1.2738243e+00	   1.3090460e+00	   1.3618560e+00	
   4.0480000e+01	   1.2083481e+00	   8.2676187e-01	   1.9647178e+00	
   4.0535000e+01	   1.0442660e+00	   8.0857303e-01	   1.5468481e+00	
   4.0590000e+01	   1.1592992e+00	   9.5674230e-01	   1.4603457e+00	
   4.0645000e+01	   9.0949059e-01	   5.8119341e-01	   1.4515278e+00	
   4.0700000e+01	   9.4410410e-01	   6.9904398e-01	   1.6452505e+00	
   4.0755000e+01	   8.4803883e-01	   7.2111349e-01	   1.2354686e+00	
   4.0810000e+01	   8.8826059e-01	   5.6396817e-01	   1.1428959e+00	
   4.0865000e+01	   5.9195420e-01	   6.5344245e-01	   1.3538368e+00	
   4.0920000e+01	   8.0969972e-01	   4.2001228e-01	   1.2129211e+00	
   4.0975000e+01	   7.9103275e-01	   6.5927613e-01	   1.4201600e+00	
   4.1030000e+01	   8.9174894e-01	   6.6694263e-01	   1.4537466e+00	
   4.1085000e+01	   1.0451070e+00	   6.6135275e-01	   1.2975922e+00	
   4.1140000e+01	   1.1286090e+00	   5.9713938e-01	   2.0373654e+00	
   4.1195000e+01	   1.0878965e+00	   4.3645212e-01	   2.0373654e+00	
   4.1250000e+01	   1.1877601e+00	   6.1488492e-01	   1.4938158e+00	
   4.1305000e+01	   1.1988053e+00	   6.7639010e-01	   2.0057440e+00	
   4.1360000e+01	   1.0980369e+00	   7.0679718e-01	   1.8664516e+00	
   4.1415000e+01	   1.0200035e+00	   5.5092880e-01	   1.4502426e+00	
   4.1470000e+01	   7.6558371e-01	   5.1822412e-01	   8.7349769e-01	
   4.1525000e+01	   9.8780252e-01	   6.8648155e-01	   1.6110837e+00	
   4.1580000e+01	   7.0377460e-01	   5.1208172e-01	   1.4620209e+00	
   4.1635000e+01	   7.1342516e-01	   5.5292699e-01	   1.2745579e+00	
   4.1690000e+01	   3.9861529e-01	   1.3424077e-03	   8.8876634e-01	
   4.1745000e+01	   7.7078106e-01	   3.8239405e-01	   1.2126462e+00	
   4.1800000e+01	   1.2201311e+00	   7.4902665e-01	   1.4739312e+00	
   4.1855000e+01	   1.0014971e+00	   8.3123626e-01	   1.5506966e+00	
   4.1910000e+01	   1.2012472e+00	   5.6914433e-01	   1.7896016e+00	
   4.1965000e+01	   1.0299605e+00	   1.0798285e+00	   1.6962712e+00	
   4.2020000e+01	   1.2936548e+00	   8.4796123e-01	   1.6659103e+00	
   4.2075000e+01	   1.1843673e+00	   6.4128819e-01	   1.3410558e+00	
   4.2130000e+01	   8.6847852e-01	   4.5137636e-01	   1.1091341e+00	
   4.2185000e+01	   9.6386321e-01	   5.8953405e-01	   1.3378428e+00	
   4.2240000e+01	   1.0796187e+00	   8.8988705e-01	   1.5484796e+00	
   4.2295000e+01	   7.9004243e-01	   5.0826115e-01	   1.2225167e+00	
   4.2350000e+01	   7.3740150e-01	   1.9049314e-01	   1.1375252e+00	
   4.2405000e+01	   8.8703009e-01	   2.9448365e-01	   1.4319125e+00	
   4.2460000e+01	   8.2483629e-01	   4.7502939e-01	   9.8711591e-01	
   4.2515000e+01	   8.6378394e-01	   5.0038648e-01	   1.1109820e+00	
   4.2570000e+01	   1.2262725e+00	   8.5249935e-01	   1.4173098e+00	
   4.2625000e+01	   1.2622641e+00	   1.0872454e+00	   1.8308467e+00	
   4.2680000e+01	   1.5109039e+00	   1.4519706e+00	   1.5705754e+00	
   4.2735000e+01	   1.3077611e+00	   1.1670600e+00	   1.3739019e+00	
   4.2790000e+01	   1.4443845e+00	   7.4601300e-01	   1.7477616e+00	
   4.2845000e+01	   1.3427972e+00	   1.1843804e+00	   1.3342246e+00	
   4.2900000e+01	   1.3130100e+00	   7.1971300e-01	   1.4537466e+00	
   4.2955000e+01	   1.2220288e+00	   1.1946278e+00	   1.6033974e+00	
   4.3010000e+01	   1.1305066e+00	   4.9275532e-01	   1.4603457e+00	
   4.3065000e+01	   1.1549907e+00	   9.1330495e-01	   1.4963967e+00	
   4.3120000e+01	   1.1006946e+00	   7.3797171e-01	   1.4466354e+00	
   4.3175000e+01	   9.7552267e-01	   7.0129873e-01	   1.1596983e+00	
   4.3230000e+01	   8.1439071e-01	   6.7920194e-01	   7.9721892e-01	
   4.3285000e+01	   9.2588493e-01	   6.1223467e-01	   1.3961304e+00	
   4.3340000e+01	   1.3621905e+00	   1.4083396e+00	   1.8095485e+00	
   4.3395000e+01	   1.3555839e+00	   8.5386878e-01	   1.7206661e+00	
   4.3450000e+01	   1.4797199e+00	   1.1733317e+00	   1.4802073e+00	
   4.3505000e+01	   1.5438630e+00	   1.0206583e+00	   1.8395593e+00	
   4.3560000e+01	   1.4590777e+00	   1.1643841e+00	   1.4871793e+00	
   4.3615000e+01	   1.4572207e+00	   1.0360826e+00	   1.4639176e+00	
   4.3670000e+01	   1.3157786e+00	   7.5967398e-01	   1.5506966e+00	
   4.3725000e+01	   1.4012766e+00	   1.0760255e+00	   1.5532195e+00	
   4.3780000e+01	   1.3442638e+00	   1.1620972e+00	   1.4439955e+00	
   4.3835000e+01	   1.2107523e+00	   1.0768765e+00	   8.4757214e-01	
   4.3890000e+01	   1.1322038e+00	   8.5565105e-01	   1.2978750e+00	
   4.3945000e+01	   1.0457736e+00	   8.2998214e-01	   1.1958614e+00	
   4.4000000e+01	   1.1484386e+00	   3.1053429e-01	   1.3413476e+00	
   4.4055000e+01	   1.0547703e+00	   9.2273768e-01	   7.9878681e-01	
   4.4110000e+01	   1.3531015e+00	   7.3378878e-01	   1.0223639e+00	
   4.4165000e+01	   1.4359505e+00	   1.0793197e+00	   1.8504739e+00	
   4.4220000e+01	   1.6890059e+00	   1.1057163e+00	   1.7788936e+00	
   4.4275000e+01	   1.6228816e+00	   1.0212473e+00	   1.4704772e+00	
   4.4330000e+01	   1.2793002e+00	   7.7344844e-01	   1.3196426e+00	
   4.4385000e+01	   1.4587086e+00	   7.6697400e-01	   1.3015274e+00	
   4.4440000e+01	   1.5029296e+00	   1.1234128e+00	   1.5367941e+00	
   4.4495000e+01	   1.4915578e+00	   9.6290631e-01	   1.5532195e+00	
   4.4550000e+01	   1.2650135e+00	   6.5571524e-01	   1.4260887e+00	
   4.4605000e+01	   1.2683914e+00	   6.8162008e-01	   1.3603096e+00	
   4.4660000e+01	   1.4774110e+00	   1.5439960e+00	   1.3142674e+00	
   4.4715000e+01	   1.0130896e+00	   9.4786104e-01	   1.2000499e+00	
   4.4770000e+01	   8.9485883e-01	   5.0443032e-01	   9.4653373e-01	
   4.4825000e+01	   1.4718201e+00	   1.0845411e+00	   1.5647036e+00	
   4.4880000e+01	   1.4006207e+00	   7.3214309e-01	   1.6962712e+00	
   4.4935000e+01	   1.5816903e+00	   1.2144728e+00	   1.4275551e+00	
   4.4990000e+01	   1.3945963e+00	   1.0054696e+00	   1.3979494e+00	
   4.5045000e+01	   1.5675214e+00	   9.1475638e-01	   1.7483799e+00	
   4.5100000e+01	   1.7678305e+00	   8.0096967e-01	   1.6194166e+00	
   4.5155000e+01	   1.4601084e+00	   6.3842260e-01	   1.4739312e+00	
   4.5210000e+01	   1.3152806e+00	   6.1547485e-01	   1.5023254e+00	
   4.5265000e+01	   1.3704727e+00	   5.8887395e-01	   1.8339080e+00	
   4.5320000e+01	   1.2968719e+00	   7.8021929e-01	   1.5896646e+00	
   4.5375000e+01	   1.1430325e+00	   2.1767674e-01	   1.0358858e+00	
   4.5430000e+01	   1.0793718e+00	   5.1260701e-01	   9.8298957e-01	
   4.5485000e+01	   1.1751062e+00	   7.5068291e-01	   1.2745579e+00	
   4.5540000e+01	   1.3686074e+00	   6.6667640e-01	   1.3203778e+00	
   4.5595000e+01	   1.4576103e+00	   8.0042592e-01	   1.9079710e+00	
   4.5650000e+01	   1.7363376e+00	   8.2800477e-01	   1.6336271e+00	
   4.5705000e+01	   1.6824645e+00	   1.0389086e+00	   1.7788936e+00	
   4.5760000e+01	   1.8627884e+00	   1.3859570e+00	   1.5891954e+00	
   4.5815000e+01	   1.6055204e+00	   9.4495633e-01	   1.8508066e+00	
   4.5870000e+01	   1.5240795e+00	   8.4524535e-01	   1.1727508e+00	
   4.5925000e+01	   1.5441294e+00	   9.1181449e-01	   1.4778433e+00	
   4.5980000e+01	   1.4115860e+00	   1.1466160e+00	   1.2906915e+00	
   4.6035000e+01	   1.4847410e+00	   7.8403723e-01	   1.3160931e+00	
   4.6090000e+01	   1.2527412e+00	   4.1917801e-01	   1.1534129e+00	
   4.6145000e+01	   1.3004925e+00	   1.0514352e+00	   1.4237892e+00	
   4.6200000e+01	   1.1058083e+00	   2.4812729e-01	   1.2706030e+00	
   4.6255000e+01	   1.2247299e+00	   7.2334411e-01	   1.3021835e+00	
   4.6310000e+01	   1.4928643e+00	   4.2978897e-01	   1.4319125e+00	
   4.6365000e+01	   1.6512171e+00	   7.3798053e-01	   1.8773049e+00	
   4.6420000e+01	   1.8747210e+00	   8.7518425e-01	   1.8456773e+00	
   4.6475000e+01	   1.8018667e+00	   7.1304887e-01	   2.2680139e+00	
   4.6530000e+01	   1.7931359e+00	   7.5690567e-01	   1.7528787e+00	
   4.6585000e+01	   1.5850337e+00	   4.7836617e-01	   1.9732747e+00	
   4.6640000e+01	   1.7672091e+00	   6.5810154e-01	   1.7879773e+00	
   4.6695000e+01	   1.5695018e+00	   3.1422914e-01	   1.2865107e+00	
   4.6750000e+01	   1.5426401e+00	   4.3157885e-01	   1.2865107e+00	
   4.6805000e+01	   1.7336864e+00	   4.3194089e-01	   1.6399466e+00	
   4.6860000e+01	   1.6724036e+00	   7.6830475e-01	   1.6552607e+00	
   4.6915000e+01	   1.8487616e+00	   4.9592296e-01	   1.1167326e+00	
   4.6970000e+01	   1.5085179e+00	   5.1691292e-01	   1.1956392e+00	
   4.7025000e+01	   1.3409495e+00	   6.3320332e-01	   1.1398299e+00	
   4.7080000e+01	   1.5678917e+00	   5.7412927e-01	   1.6856957e+00	
   4.7135000e+01	   1.8163921e+00	   6.4137170e-01	   1.6771809e+00	
   4.7190000e+01	   1.8249264e+00	   7.5414449e-01	   1.5468481e+00	
   4.7245000e+01	   2.1734134e+00	   1.4420969e+00	   1.9387789e+00	
   4.7300000e+01	   2.3410162e+00	   1.2426387e+00	   1.9079710e+00	
   4.7355000e+01	   2.0113327e+00	   1.1928334e+00	   1.8519178e+00	
   4.7410000e+01	   1.7353206e+00	   5.2309230e-01	   1.4421726e+00	
   4.7465000e+01	   2.0325192e+00	   1.2044041e+00	   2.0902101e+00	
   4.7520000e+01	   1.8127684e+00	   1.0235539e+00	   1.6705195e+00	
   4.7575000e+01	   1.8333174e+00	   1.1895545e+00	   1.3674807e+00	
   4.7630000e+01	   1.8832767e+00	   1.1771154e+00	   1.7772252e+00	
   4.7685000e+01	   1.6307349e+00	   8.8577903e-01	   1.4075939e+00	
   4.7740000e+01	   1.6758057e+00	   7.8751412e-01	   1.8468758e+00	
   4.7795000e+01	   1.5804694e+00	   8.3009948e-01	   1.3322597e+00	
   4.7850000e+01	   1.6716129e+00	   9.8786454e-01	   1.8077980e+00	
   4.7905000e+01	   1.9214664e+00	   1.3657370e+00	   1.9436804e+00	
   4.7960000e+01	   1.9703405e+00	   6.9429433e-01	   1.9329720e+00	
   4.8015000e+01	   2.1449368e+00	   1.0921261e+00	   1.8001717e+00	
   4.8070000e+01	   1.9197583e+00	   8.8050059e-01	   1.9281468e+00	
   4.8125000e+01	   1.8031356e+00	   9.0401778e-01	   1.7746596e+00	
   4.8180000e+01	   2.0776005e+00	   1.2831965e+00	   1.8693609e+00	
   4.8235000e+01	   1.9584150e+00	   1.3022279e+00	   1.6964478e+00	
   4.8290000e+01	   1.6236330e+00	   9.4018120e-01	   1.4132298e+00	
   4.8345000e+01	   1.8857648e+00	   9.1907705e-01	   1.4483038e+00	
   4.8400000e+01	   1.8271462e+00	   1.1894766e+00	   1.9652635e+00	
   4.8455000e+01	   1.6038072e+00	   8.2566924e-01	   1.6050189e+00	
   4.8510000e+01	   1.5649220e+00	   9.0355115e-01	   1.3974767e+00	
   4.8565000e+01	   1.6906691e+00	   6.5779004e-01	   1.5855824e+00	
   4.8620000e+01	   2.0614434e+00	   9.8405652e-01	   1.8054240e+00	
   4.8675000e+01	   1.9762751e+00	   1.0564395e+00	   2.1434979e+00	
   4.8730000e+01	   2.1276528e+00	   1.1946342e+00	   1.8508066e+00	
   4.8785000e+01	   2.0427162e+00	   1.0791493e+00	   2.0926383e+00	
   4.8840000e+01	   2.0770536e+00	   7.3780005e-01	   2.4056811e+00	
   4.8895000e+01	   1.9750788e+00	   9.4976234e-01	   1.4721309e+00	
   4.8950000e+01	   1.8586924e+00	   6.7922044e-01	   1.5646817e+00	
   4.9005000e+01	   1.8872908e+00	   1.2109890e+00	   1.5646213e+00	
   4.9060000e+01	   1.8773795e+00	   1.0527376e+00	   1.7772252e+00	
   4.9115000e+01	   1.8455514e+00	   9.6515820e-01	   1.6050189e+00	
   4.9170000e+01	   1.8022381e+00	   6.1373911e-01	   1.7204776e+00	
   4.9225000e+01	   1.7527288e+00	   8.6080737e-01	   1.4287162e+00	
   4.9280000e+01	   1.4760815e+00	   6.7247780e-01	   1.3618421e+00	
   4.9335000e+01	   1.5984919e+00	   8.5475554e-01	   1.6303361e+00	
   4.9390000e+01	   1.8336998e+00	   9.9454863e-01	   1.6929467e+00	
   4.9445000e+01	   1.9690216e+00	   7.6310414e-01	   2.2884852e+00	
   4.9500000e+01	   2.1143361e+00	   1.0504517e+00	   2.1199879e+00	
   4.9555000e+01	   1.9485836e+00	   8.2996125e-01	   1.7630548e+00	
   4.9610000e+01	   2.0855660e+00	   8.7056062e-01	   2.1502882e+00	
   4.9665000e+01	   2.0737986e+00	   9.1630156e-01	   2.0811000e+00	
   4.9720000e+01	   2.1040809e+00	   9.5252131e-01	   2.1161343e+00	
   4.9775000e+01	   2.0103089e+00	   7.9775652e-01	   1.7575396e+00	
   4.9830000e+01	   1.7681350e+00	   8.2760470e-01	   1.4432257e+00	
   4.9885000e+01	   1.9567511e+00	   7.5041162e-01	   1.6507285e+00	
   4.9940000e+01	   1.7606394e+00	   8.2092283e-01	   1.4988249e+00	
   4.9995000e+01	   1.8661679e+00	   8.8721284e-01	   1.1565209e+00	
   5.0050000e+01	   1.4772356e+00	   5.8628232e-01	   1.3160931e+00	
   5.0105000e+01	   1.5607212e+00	   9.3363788e-01	   1.0856222e+00	
   5.0160000e+01	   1.4700600e+00	   6.7485557e-01	   1.3021835e+00	
   5.0215000e+01	   1.8854773e+00	   1.0475089e+00	   1.4979139e+00	
   5.0270000e+01	   2.0274223e+00	   8.0435626e-01	   1.7378233e+00	
   5.0325000e+01	   2.0871812e+00	   1.0870811e+00	   2.0776569e+00	
   5.0380000e+01	   2.2321170e+00	   1.0450633e+00	   1.5832878e+00	
   5.0435000e+01	   2.0305608e+00	   9.2905180e-01	   1.6132236e+00	
   5.0490000e+01	   2.0437518e+00	   9.4927536e-01	   1.6555061e+00	
   5.0545000e+01	   2.0464117e+00	   1.1444427e+00	   1.9486516e+00	
   5.0600000e+01	   2.1315250e+00	   1.4936024e+00	   1.5238855e+00	
   5.0655000e+01	   1.9494674e+00	   7.6540653e-01	   1.6660101e+00	
   5.0710000e+01	   1.7089731e+00	   8.4543192e-01	   1.3918260e+00	
   5.0765000e+01	   1.9397183e+00	   7.9304461e-01	   1.5846265e+00	
   5.0820000e+01	   1.8295469e+00	   1.1098676e+00	   1.8235409e+00	
   5.0875000e+01	   1.5343288e+00	   8.1436567e-01	   1.6562111e+00	
   5.0930000e+01	   1.4376786e+00	   5.8397151e-01	   1.0523422e+00	
   5.0985000e+01	   1.3352360e+00	   5.1829870e-01	   1.4889353e+00	
   5.1040000e+01	   1.7000826e+00	   8.7243155e-01	   1.6980216e+00	
   5.1095000e+01	   2.1737724e+00	   1.0207085e+00	   1.5730365e+00	
   5.1150000e+01	   1.9104517e+00	   1.0601292e+00	   1.6645212e+00	
   5.1205000e+01	   2.0250190e+00	   1.2321036e+00	   1.5405384e+00	
   5.1260000e+01	   2.0175735e+00	   1.0024159e+00	   1.7472001e+00	
   5.1315000e+01	   2.1291766e+00	   8.8145354e-01	   2.0882135e+00	
   5.1370000e+01	   1.9987449e+00	   7.1222967e-01	   1.4705971e+00	
   5.1425000e+01	   1.8331583e+00	   1.0024663e+00	   1.8306971e+00	
   5.1480000e+01	   1.9731064e+00	   1.0784530e+00	   1.7634243e+00	
   5.1535000e+01	   1.6969354e+00	   3.7735473e-01	   1.4926352e+00	
   5.1590000e+01	   1.8431051e+00	   7.5790037e-01	   1.6818610e+00	
   5.1645000e+01	   1.6713782e+00	   4.9268969e-01	   1.4979139e+00	
   5.1700000e+01	   1.7854181e+00	   9.8240451e-01	   1.2193883e+00	
   5.1755000e+01	   1.5431980e+00	   5.2622317e-01	   1.2153199e+00	
   5.1810000e+01	   1.3367552e+00	   6.8889039e-01	   1.0815954e+00	
   5.1865000e+01	   1.7274258e+00	   7.2021238e-01	   1.7483799e+00	
   5.1920000e+01	   2.1197751e+00	   1.2265455e+00	   1.7528787e+00	
   5.1975000e+01	   2.0593555e+00	   8.1428369e-01	   1.9608478e+00	
   5.2030000e+01	   1.8835267e+00	   7.7424454e-01	   1.6538158e+00	
   5.2085000e+01	   1.9244722e+00	   9.3537139e-01	   2.0417198e+00	
   5.2140000e+01	   2.0640224e+00	   1.0588606e+00	   2.0462494e+00	
   5.2195000e+01	   1.7989712e+00	   9.8701813e-01	   1.6251325e+00	
   5.2250000e+01	   1.6711592e+00	   8.0994190e-01	   1.6412782e+00	
   5.2305000e+01	   1.6800206e+00	   5.4664595e-01	   1.4064638e+00	
   5.2360000e+01	   1.7069909e+00	   8.4122881e-01	   1.5079517e+00	
   5.2415000e+01	   1.4717779e+00	   5.3627726e-01	   1.4123508e+00	
   5.2470000e+01	   1.2709778e+00	   2.4438337e-01	   1.4219464e+00	
   5.2525000e+01	   1.2302578e+00	   3.6381622e-01	   1.3011012e+00	
   5.2580000e+01	   1.6825355e+00	   6.5762268e-01	   1.1274153e+00	
   5.2635000e+01	   1.8282120e+00	   9.5197247e-01	   1.7788936e+00	
   5.2690000e+01	   1.8185785e+00	   7.7640643e-01	   1.7369009e+00	
   5.2745000e+01	   1.9783476e+00	   6.6167454e-01	   1.4572981e+00	
   5.2800000e+01	   1.9038299e+00	   1.3471758e+00	   1.8668231e+00	
   5.2855000e+01	   1.9022899e+00	   9.2123127e-01	   1.9387789e+00	
   5.2910000e+01	   1.9774212e+00	   7.0137401e-01	   1.5998274e+00	
   5.2965000e+01	   1.9186491e+00	   8.4232710e-01	   1.8255015e+00	
   5.3020000e+01	   1.6284519e+00	   5.3613237e-01	   1.5484796e+00	
   5.3075000e+01	   1.6963397e+00	   4.0380072e-01	   1.7072979e+00	
   5.3130000e+01	   1.4441878e+00	  -2.8333522e-01	   1.0914830e+00	
   5.3185000e+01	   1.6479233e+00	   3.6465422e-01	   1.3142674e+00	
   5.3240000e+01	   1.5372256e+00	   5.3267760e-01	   1.7746596e+00	
   5.3295000e+01	   1.4788205e+00	   2.1747645e-01	   1.2906915e+00	
   5.3350000e+01	   1.3762662e+00	  -7.1607969e-02	   1.2091282e+00	
   5.3405000e+01	   1.7221726e+00	   1.3842106e-01	   1.5629333e+00	
   5.3460000e+01	   2.2253959e+00	   7.7686212e-01	   2.0946400e+00	
   5.3515000e+01	   2.1527480e+00	   1.1533572e+00	   1.6740583e+00	
   5.3570000e+01	   2.0566318e+00	   8.4417375e-01	   1.7206661e+00	
   5.3625000e+01	   1.9972146e+00	   4.5385628e-01	   1.6435704e+00	
   5.3680000e+01	   2.0073572e+00	   7.7936675e-01	   1.8866818e+00	
   5.3735000e+01	   2.0634691e+00	   8.6606393e-01	   1.9231215e+00	
   5.3790000e+01	   1.8927888e+00	   9.0062937e-01	   1.9793521e+00	
   5.3845000e+01	   1.8090369e+00	   6.2253053e-01	   1.3839970e+00	
   5.3900000e+01	   1.9636619e+00	   5.1683994e-01	   1.4405868e+00	
   5.3955000e+01	   1.6390121e+00	   5.5486105e-01	   1.7021419e+00	
   5.4010000e+01	   1.7692404e+00	   3.9701958e-01	   1.2027327e+00	
   5.4065000e+01	   1.3268158e+00	  -1.1489883e-01	   1.1038884e+00	
   5.4120000e+01	   1.6374979e+00	   5.1166010e-01	   1.4421726e+00	
   5.4175000e+01	   1.5506633e+00	   5.9183928e-01	   9.3458625e-01	
   5.4230000e+01	   1.9235957e+00	   2.7203276e-01	   1.5232893e+00	
   5.4285000e+01	   1.8817360e+00	   3.0395835e-01	   1.5238528e+00	
   5.4340000e+01	   1.9789473e+00	   8.0018910e-01	   2.2246417e+00	
   5.4395000e+01	   2.1307891e+00	   6.9887935e-01	   1.9286243e+00	
   5.4450000e+01	   1.9352695e+00	   8.2662373e-01	   1.8504739e+00	
   5.4505000e+01	   2.0793379e+00	   6.8968489e-01	   1.5302931e+00	
   5.4560000e+01	   1.9061915e+00	   7.1109942e-01	   1.9231215e+00	
   5.4615000e+01	   1.9788038e+00	   8.2741421e-01	   2.2171386e+00	
   5.4670000e+01	   1.8064552e+00	   3.9309773e-01	   1.8467795e+00	
   5.4725000e+01	   1.6578231e+00	   5.5075627e-01	   1.5846082e+00	
   5.4780000e+01	   1.8599324e+00	   6.7100156e-01	   1.6562111e+00	
   5.4835000e+01	   1.5960298e+00	   1.7831881e-01	   1.5484796e+00	
   5.4890000e+01	   1.3665253e+00	  -3.2071028e-02	   1.4260887e+00	
   5.4945000e+01	   1.5118060e+00	   9.5770450e-02	   9.9973234e-01	
   5.5000000e+01	   1.6840065e+00	   5.5013629e-01	   1.6307624e+00	
   5.5055000e+01	   1.9260750e+00	   7.1839017e-01	   1.6435704e+00	
   5.5110000e+01	   1.8358529e+00	   5.1499647e-01	   1.9914903e+00	
   5.5165000e+01	   2.0951370e+00	   9.0313797e-01	   1.7253895e+00	
   5.5220000e+01	   2.2498309e+00	   1.0271989e+00	   1.9125621e+00	
   5.5275000e+01	   2.0028849e+00	   6.1167810e-01	   1.6800072e+00	
   5.5330000e+01	   2.0409476e+00	   7.0496022e-01	   1.5468481e+00	
   5.5385000e+01	   1.8286493e+00	   5.4809590e-01	   1.6659103e+00	
   5.5440000e+01	   1.8665705e+00	   4.1427501e-01	   1.4904140e+00	
   5.5495000e+01	   1.8455596e+00	   6.3952904e-01	   1.5325598e+00	
   5.5550000e+01	   1.6485826e+00	   3.9376323e-01	   1.7274159e+00	
   5.5605000e+01	   1.6285481e+00	   3.2328880e-01	   1.5023254e+00	
   5.5660000e+01	   1.4760087e+00	   2.2577592e-01	   1.4319125e+00	
   5.5715000e+01	   1.5932340e+00	   4.7916830e-01	   1.4064638e+00	
   5.5770000e+01	   1.3073455e+00	  -8.7552773e-02	   1.1901352e+00	
   5.5825000e+01	   1.4934575e+00	   7.9597317e-02	   1.5647036e+00	
   5.5880000e+01	   1.8865006e+00	   5.3517255e-01	   2.0990744e+00	
   5.5935000e+01	   2.0542328e+00	   7.7478668e-01	   2.0324931e+00	
   5.5990000e+01	   1.6952120e+00	   7.3199056e-01	   1.7149962e+00	
   5.6045000e+01	   1.7282476e+00	   6.0042658e-01	   1.7477616e+00	
   5.6100000e+01	   1.7103985e+00	   5.9828411e-01	   1.9968248e+00	
   5.6155000e+01	   1.9045514e+00	   4.7567426e-01	   1.7265009e+00	
   5.6210000e+01	   1.6106994e+00	   6.4560950e-01	   1.5002403e+00	
   5.6265000e+01	   1.5022607e+00	   5.5417415e-01	   1.4663141e+00	
   5.6320000e+01	   1.4021537e+00	   3.7469302e-01	   1.6050350e+00	
   5.6375000e+01	   1.5164686e+00	   4.1383037e-01	   1.1038884e+00	
   5.6430000e+01	   1.1873393e+00	   1.9063692e-01	   1.2780268e+00	
   5.6485000e+01	   1.2481204e+00	   6.3629383e-01	   1.4778433e+00	
   5.6540000e+01	   1.3266342e+00	   3.7349021e-01	   1.5033607e+00	
   5.6595000e+01	   1.7054388e+00	   5.6784943e-01	   1.4767956e+00	
   5.6650000e+01	   1.5773807e+00	   3.8050194e-01	   1.9710192e+00	
   5.6705000e+01	   1.5280279e+00	   4.7730009e-01	   1.7265009e+00	
   5.6760000e+01	   1.6537062e+00	   9.2943095e-01	   2.2957879e+00	
   5.6815000e+01	   1.5653198e+00	   7.3106590e-01	   1.8255015e+00	
   5.6870000e+01	   1.5339631e+00	   5.0940252e-01	   1.3609479e+00	
   5.6925000e+01	   1.5844267e+00	   5.5839789e-01	   1.6132236e+00	
   5.6980000e+01	   1.5544030e+00	   8.3585967e-01	   1.9329720e+00	
   5.7035000e+01	   1.4709693e+00	   4.4472631e-01	   2.0506993e+00	
   5.7090000e+01	   1.1103671e+00	   3.0742024e-01	   1.2420155e+00	
   5.7145000e+01	   1.2104363e+00	   4.0954830e-01	   1.2487749e+00	
   5.7200000e+01	   1.1340590e+00	   4.1455550e-01	   1.0815954e+00	
   5.7255000e+01	   1.3831161e+00	   8.1273268e-01	   1.4778433e+00	
   5.7310000e+01	   1.4903807e+00	   2.9172797e-01	   1.4408198e+00	
   5.7365000e+01	   1.4922038e+00	   6.2326536e-01	   1.6538158e+00	
   5.7420000e+01	   1.7663464e+00	   8.5760068e-01	   2.0321650e+00	
   5.7475000e+01	   1.7046579e+00	   8.6592443e-01	   1.7311401e+00	
   5.7530000e+01	   1.5563475e+00	   6.5959807e-01	   1.5238528e+00	
   5.7585000e+01	   1.6750452e+00	   9.0676320e-01	   1.7149962e+00	
   5.7640000e+01	   1.6514683e+00	   1.1501037e+00	   1.9697294e+00	
   5.7695000e+01	   1.6574001e+00	   7.3817300e-01	   1.7166747e+00	
   5.7750000e+01	   1.2899474e+00	   7.6773776e-01	   1.5730365e+00	
   5.7805000e+01	   1.3992893e+00	   6.2936868e-01	   1.5532195e+00	
   5.7860000e+01	   1.5605897e+00	   1.1281066e+00	   1.9176654e+00	
   5.7915000e+01	   1.1564237e+00	   5.0136933e-01	   1.6396013e+00	
   5.7970000e+01	   1.1843324e+00	   6.6626734e-01	   1.1236473e+00	
   5.8025000e+01	   1.5965997e+00	   8.8148105e-01	   1.7149962e+00	
   5.8080000e+01	   1.7747955e+00	   1.2946671e+00	   2.0010999e+00	
   5.8135000e+01	   1.9897823e+00	   1.0532256e+00	   2.7091309e+00	
   5.8190000e+01	   1.8425499e+00	   1.4466062e+00	   2.2527099e+00	
   5.8245000e+01	   1.9377412e+00	   1.2826855e+00	   2.3572150e+00	
   5.8300000e+01	   1.9462445e+00	   1.2365418e+00	   1.8639944e+00	
   5.8355000e+01	   1.7123879e+00	   1.2697576e+00	   1.6650381e+00	
   5.8410000e+01	   1.7716621e+00	   1.0846517e+00	   2.0117095e+00	
   5.8465000e+01	   1.7854693e+00	   1.0446530e+00	   1.9125621e+00	
   5.8520000e+01	   1.8176772e+00	   1.1576419e+00	   1.9595538e+00	
   5.8575000e+01	   1.6450513e+00	   1.1930627e+00	   1.9543178e+00	
   5.8630000e+01	   1.4686576e+00	   1.0073128e+00	   1.4105755e+00	
   5.8685000e+01	   1.4549891e+00	   9.1612000e-01	   1.7265009e+00	
   5.8740000e+01	   1.5741721e+00	   8.3148829e-01	   1.5604853e+00	
   5.8795000e+01	   1.9164527e+00	   1.1320466e+00	   2.0635499e+00	
   5.8850000e+01	   1.8953522e+00	   1.1620698e+00	   2.4364590e+00	
   5.8905000e+01	   2.0997048e+00	   1.2060564e+00	   2.3866154e+00	
   5.8960000e+01	   2.0853919e+00	   1.9965899e+00	   2.7238706e+00	
   5.9015000e+01	   2.2961856e+00	   2.0078999e+00	   2.6436938e+00	
   5.9070000e+01	   2.2339582e+00	   1.5701653e+00	   2.7794651e+00	
   5.9125000e+01	   2.0899316e+00	   1.5193016e+00	   2.3436055e+00	
   5.9180000e+01	   2.0878602e+00	   1.4185890e+00	   2.6878632e+00	
   5.9235000e+01	   2.1135669e+00	   1.4301486e+00	   2.3616873e+00	
   5.9290000e+01	   1.7909434e+00	   1.3269209e+00	   2.0790752e+00	
   5.9345000e+01	   1.7523776e+00	   1.4416960e+00	   2.0010999e+00	
   5.9400000e+01	   1.8610735e+00	   1.3829370e+00	   2.1529218e+00	
   5.9455000e+01	   1.7680483e+00	   1.5800408e+00	   2.5475397e+00	
   5.9510000e+01	   1.5253278e+00	   1.3746618e+00	   2.2720360e+00	
   5.9565000e+01	   1.5979433e+00	   1.1370900e+00	   2.1057342e+00	
   5.9620000e+01	   1.5544885e+00	   1.6603504e+00	   1.8308467e+00	
   5.9675000e+01	   2.0521788e+00	   1.4415192e+00	   2.7832234e+00	
   5.9730000e+01	   2.0155651e+00	   1.4508911e+00	   2.7451174e+00	
   5.9785000e+01	   2.0285513e+00	   1.9931125e+00	   2.4660961e+00	
   5.9840000e+01	   2.0878679e+00	   1.7701425e+00	   2.9335830e+00	
   5.9895000e+01	   1.9912002e+00	   1.6374400e+00	   2.7396201e+00	
   5.9950000e+01	   1.9454384e+00	   1.4206097e+00	   2.6436938e+00	
   6.0005000e+01	   1.9374345e+00	   1.4980138e+00	   2.6800963e+00	
   6.0060000e+01	   1.8652915e+00	   1.4291148e+00	   2.4684297e+00	
   6.0115000e+01	   2.0837843e+00	   1.7021049e+00	   2.7853797e+00	
   6.0170000e+01	   1.7406929e+00	   1.4352017e+00	   2.3572150e+00	
   6.0225000e+01	   1.7421042e+00	   1.3270973e+00	   2.0262574e+00	
   6.0280000e+01	   1.8282392e+00	   1.8233384e+00	   3.2175858e+00	
   6.0335000e+01	   1.6864573e+00	   1.3102511e+00	   2.3773133e+00	
   6.0390000e+01	   1.6218681e+00	   1.3118321e+00	   2.4450834e+00	
   6.0445000e+01	   1.5444123e+00	   1.3081959e+00	   1.9865963e+00	
   6.0500000e+01	   1.9355350e+00	   1.5146588e+00	   2.8218967e+00	
   6.0555000e+01	   2.0540280e+00	   1.5320668e+00	   2.7641220e+00	
   6.0610000e+01	   2.0376491e+00	   1.7061519e+00	   2.5339761e+00	
   6.0665000e+01	   2.1007515e+00	   1.5487895e+00	   2.6873906e+00	
   6.0720000e+01	   2.1309943e+00	   1.7966824e+00	   2.9731694e+00	
   6.0775000e+01	   2.3308787e+00	   1.6934144e+00	   3.1488409e+00	
   6.0830000e+01	   1.9827634e+00	   1.4811962e+00	   2.2792653e+00	
   6.0885000e+01	   1.9838917e+00	   1.8820379e+00	   2.8957715e+00	
   6.0940000e+01	   2.0855677e+00	   1.8819418e+00	   2.6520089e+00	
   6.0995000e+01	   2.0138979e+00	   1.4267006e+00	   2.5721751e+00	
   6.1050000e+01	   1.8261587e+00	   1.1791139e+00	   2.0630954e+00	
   6.1105000e+01	   1.5990168e+00	   1.5836349e+00	   2.5875103e+00	
   6.1160000e+01	   1.7907862e+00	   1.3976333e+00	   2.4811361e+00	
   6.1215000e+01	   1.3398993e+00	   1.0336835e+00	   1.9251049e+00	
   6.1270000e+01	   1.3918006e+00	   1.1200132e+00	   2.1368188e+00	
   6.1325000e+01	   1.6635380e+00	   1.5900861e+00	   2.3413405e+00	
   6.1380000e+01	   1.9951198e+00	   1.6975035e+00	   2.7113712e+00	
   6.1435000e+01	   2.0500891e+00	   1.4269906e+00	   2.6275037e+00	
   6.1490000e+01	   2.0690195e+00	   1.5077870e+00	   2.7967143e+00	
   6.1545000e+01	   1.8127167e+00	   1.6968300e+00	   2.9285219e+00	
   6.1600000e+01	   2.0173681e+00	   1.6779081e+00	   3.0815388e+00	
   6.1655000e+01	   1.7965414e+00	   1.5450985e+00	   2.8772431e+00	
   6.1710000e+01	   1.6912695e+00	   1.1249569e+00	   2.5203265e+00	
   6.1765000e+01	   1.6810527e+00	   1.3627808e+00	   2.0899363e+00	
   6.1820000e+01	   1.5262420e+00	   1.2099263e+00	   2.7238359e+00	
   6.1875000e+01	   1.4468524e+00	   1.5917299e+00	   2.3978958e+00	
   6.1930000e+01	   1.4979188e+00	   1.0689086e+00	   2.2512889e+00	
   6.1985000e+01	   1.2904554e+00	   9.0349241e-01	   2.5003521e+00	
   6.2040000e+01	   1.3580941e+00	   1.1874606e+00	   2.3108528e+00	
   6.2095000e+01	   1.4584212e+00	   9.5372181e-01	   2.3274881e+00	
   6.2150000e+01	   1.6592074e+00	   1.1854167e+00	   2.0425129e+00	
   6.2205000e+01	   1.8054734e+00	   1.3978687e+00	   2.5524554e+00	
   6.2260000e+01	   1.9801312e+00	   1.8269433e+00	   2.2682489e+00	
   6.2315000e+01	   2.0163738e+00	   1.2413329e+00	   2.5434780e+00	
   6.2370000e+01	   1.8442095e+00	   1.6151200e+00	   2.5273874e+00	
   6.2425000e+01	   1.9657142e+00	   1.6719672e+00	   2.5637899e+00	
   6.2480000e+01	   1.8989699e+00	   1.6920845e+00	   2.3524333e+00	
   6.2535000e+01	   1.8468887e+00	   1.3059881e+00	   2.6043107e+00	
   6.2590000e+01	   1.6024373e+00	   1.3803554e+00	   2.2309471e+00	
   6.2645000e+01	   1.5994392e+00	   1.4065053e+00	   1.8303922e+00	
   6.2700000e+01	   1.6366030e+00	   1.1958258e+00	   1.9436360e+00	
   6.2755000e+01	   1.5083028e+00	   1.1935397e+00	   2.1886647e+00	
   6.2810000e+01	   1.4569456e+00	   8.7917694e-01	   2.0386779e+00	
   6.2865000e+01	   1.3230855e+00	   9.8624825e-01	   2.0794473e+00	
   6.2920000e+01	   1.3796863e+00	   9.6709298e-01	   1.9697294e+00	
   6.2975000e+01	   1.4087184e+00	   1.1179024e+00	   2.2918573e+00	
   6.3030000e+01	   1.7135815e+00	   1.3101742e+00	   2.2466119e+00	
   6.3085000e+01	   1.6810972e+00	   1.2220338e+00	   2.5318192e+00	
   6.3140000e+01	   2.0284132e+00	   1.4187983e+00	   2.8119039e+00	
   6.3195000e+01	   1.9659223e+00	   1.0004537e+00	   2.5389700e+00	
   6.3250000e+01	   1.9362803e+00	   1.2885893e+00	   2.6115719e+00	
   6.3305000e+01	   1.8694064e+00	   9.9826595e-01	   2.4176134e+00	
   6.3360000e+01	   1.9087024e+00	   1.5999648e+00	   2.0536089e+00	
   6.3415000e+01	   1.7913900e+00	   1.6332389e+00	   1.8437153e+00	
   6.3470000e+01	   1.5049057e+00	   9.2715818e-01	   2.2103646e+00	
   6.3525000e+01	   1.4334221e+00	   6.4010423e-01	   1.9032002e+00	
   6.3580000e+01	   1.5858003e+00	   1.4058724e+00	   2.3702339e+00	
   6.3635000e+01	   1.3636790e+00	   8.0430047e-01	   1.8198314e+00	
   6.3690000e+01	   1.3454922e+00	   7.9669484e-01	   1.6946981e+00	
   6.3745000e+01	   1.2395214e+00	   5.8627082e-01	   1.5970767e+00	
   6.3800000e+01	   1.1225222e+00	   7.2826011e-01	   1.4904140e+00	
   6.3855000e+01	   1.4045670e+00	   9.2071465e-01	   1.7630548e+00	
   6.3910000e+01	   1.5007321e+00	   8.9105909e-01	   2.2152361e+00	
   6.3965000e+01	   1.7919054e+00	   1.3940627e+00	   2.1263804e+00	
   6.4020000e+01	   1.7829421e+00	   6.4160065e-01	   1.9848170e+00	
   6.4075000e+01	   1.6990464e+00	   1.0400692e+00	   2.2527099e+00	
   6.4130000e+01	   1.5363585e+00	   9.6771636e-01	   2.1102830e+00	
   6.4185000e+01	   1.7448155e+00	   1.2083190e+00	   2.2367452e+00	
   6.4240000e+01	   1.7046867e+00	   1.4517753e+00	   2.3099098e+00	
   6.4295000e+01	   1.5062083e+00	   8.6651820e-01	   2.2512889e+00	
   6.4350000e+01	   1.4063991e+00	   9.2509574e-01	   1.9647178e+00	
   6.4405000e+01	   1.2304486e+00	   7.5032081e-01	   1.9914903e+00	
   6.4460000e+01	   1.3630935e+00	   7.1059617e-01	   2.0684876e+00	
   6.4515000e+01	   1.3436853e+00	   7.1061908e-01	   1.4705971e+00	
   6.4570000e+01	   1.0378641e+00	   1.4286166e-02	   1.2189049e+00	
   6.4625000e+01	   1.2258029e+00	  -1.5617296e-02	   1.8467795e+00	
   6.4680000e+01	   1.4135371e+00	   3.0744184e-01	   1.9968248e+00	
   6.4735000e+01	   1.5764749e+00	   2.9733416e-01	   2.1057342e+00	
   6.4790000e+01	   1.3467961e+00	   5.7880384e-01	   1.7187782e+00	
   6.4845000e+01	   1.5184468e+00	   9.0375573e-01	   1.8026457e+00	
   6.4900000e+01	   1.6085731e+00	   6.6140574e-01	   2.3815616e+00	
   6.4955000e+01	   1.5308772e+00	   7.5316575e-01	   1.7456135e+00	
   6.5010000e+01	   1.3516145e+00	   5.3337706e-01	   1.7587794e+00	
   6.5065000e+01	   1.2602081e+00	   4.3095818e-01	   1.7477616e+00	
   6.5120000e+01	   1.3800918e+00	   6.5520200e-01	   2.0212484e+00	
   6.5175000e+01	   1.2599407e+00	   5.3526546e-01	   1.7180063e+00	
   6.5230000e+01	   9.6810654e-01	   8.5686429e-02	   1.1822759e+00	
   6.5285000e+01	   1.1053082e+00	   4.8310974e-01	   1.1528461e+00	
   6.5340000e+01	   9.4538319e-01	   7.1698766e-02	   1.4721309e+00	
   6.5395000e+01	   9.0725977e-01	   3.6211404e-02	   1.0092002e+00	
   6.5450000e+01	   1.2167083e+00	   3.2104382e-01	   1.2253654e+00	
   6.5505000e+01	   1.2006453e+00	   5.2934443e-01	   1.9028790e+00	
   6.5560000e+01	   1.6201854e+00	   3.2938327e-01	   2.1680485e+00	
   6.5615000e+01	   1.5041977e+00	   6.1788903e-01	   2.0427941e+00	
   6.5670000e+01	   1.3223728e+00	   4.0223939e-01	   1.5847211e+00	
   6.5725000e+01	   1.5790084e+00	   4.7617918e-02	   1.5875301e+00	
   6.5780000e+01	   1.5669354e+00	   5.8428362e-01	   1.7065541e+00	
   6.5835000e+01	   1.3604597e+00	   5.9343393e-01	   1.6538158e+00	
   6.5890000e+01	   1.0250948e+00	   3.6396666e-01	   1.3342246e+00	
   6.5945000e+01	   1.2293968e+00	   3.9080861e-01	   1.1091341e+00	
   6.6000000e+01	   1.2208419e+00	   4.0710194e-01	   1.3839970e+00	
   6.6055000e+01	   1.1729870e+00	  -1.3421751e-01	   1.8306971e+00	
   6.6110000e+01	   8.8705735e-01	   5.4511137e-01	   1.2189049e+00	
   6.6165000e+01	   8.7621193e-01	   5.5095405e-02	   9.1003644e-01	
   6.6220000e+01	   6.9910253e-01	   4.6576247e-01	   1.2683366e+00	
   6.6275000e+01	   1.1431152e+00	   6.1189612e-01	   1.3241809e+00	
   6.6330000e+01	   1.4723715e+00	   4.1553237e-01	   1.6132236e+00	
   6.6385000e+01	   1.7291785e+00	   1.0256236e+00	   1.6281957e+00	
   6.6440000e+01	   1.7751657e+00	   1.1437870e+00	   1.8923381e+00	
   6.6495000e+01	   1.7125162e+00	   1.4644354e+00	   1.4903645e+00	
   6.6550000e+01	   1.5342841e+00	   1.0819900e+00	   1.4404567e+00	
   6.6605000e+01	   1.6976959e+00	   1.2708957e+00	   1.6070932e+00	
   6.6660000e+01	   1.6389718e+00	   1.3776256e+00	   1.8866818e+00	
   6.6715000e+01	   1.5634714e+00	   9.9687799e-01	   1.5367941e+00	
   6.6770000e+01	   1.5514526e+00	   1.0076848e+00	   1.5067258e+00	
   6.6825000e+01	   1.3263703e+00	   8.1829315e-01	   1.3943260e+00	
   6.6880000e+01	   1.3545152e+00	   1.1481950e+00	   9.7575125e-01	
   6.6935000e+01	   1.3264663e+00	   1.0083722e+00	   9.1953990e-01	
   6.6990000e+01	   9.5154577e-01	   5.6047133e-01	   1.0656497e+00	
   6.7045000e+01	   1.0778785e+00	   6.5299168e-01	   1.0843266e+00	
   6.7100000e+01	   8.6712768e-01	   1.6542835e-01	   1.3203778e+00	
   6.7155000e+01	   9.9496519e-01	   2.9908281e-01	   1.2386649e+00	
   6.7210000e+01	   1.2846106e+00	   5.8074690e-01	   1.3313047e+00	
   6.7265000e+01	   1.2994922e+00	   8.2577074e-01	   1.5302931e+00	
   6.7320000e+01	   1.5388714e+00	   6.2040418e-01	   1.5238528e+00	
   6.7375000e+01	   1.3418283e+00	   9.3258453e-01	   1.4871793e+00	
   6.7430000e+01	   1.3451877e+00	   6.6031286e-01	   1.1581105e+00	
   6.7485000e+01	   1.4256690e+00	   4.2153710e-01	   1.5832878e+00	
   6.7540000e+01	   1.6112301e+00	   6.3288065e-01	   1.7788936e+00	
   6.7595000e+01	   1.3569982e+00	   9.1458287e-01	   1.5730365e+00	
   6.7650000e+01	   1.1228961e+00	   9.2572204e-02	   1.3898480e+00	
   6.7705000e+01	   1.1828895e+00	   5.9840021e-01	   1.0745191e+00	
   6.7760000e+01	   1.1031156e+00	   6.9618583e-01	   1.2845957e+00	
   6.7815000e+01	   9.5351766e-01	   3.4824766e-01	   7.4382545e-01	
   6.7870000e+01	   7.7407554e-01	   1.2916708e-01	   9.6326942e-01	
   6.7925000e+01	   1.0997457e+00	   7.3171416e-01	   9.8711591e-01	
   6.7980000e+01	   1.0645740e+00	   8.1230073e-01	   7.6812446e-01	
   6.8035000e+01	   1.2057647e+00	   9.3476874e-01	   9.6073048e-01	
   6.8090000e+01	   1.2313971e+00	   9.7270424e-01	   1.3708160e+00	
   6.8145000e+01	   1.5056415e+00	   9.5256281e-01	   1.2215338e+00	
   6.8200000e+01	   1.4436955e+00	   7.9676087e-01	   1.5405384e+00	
   6.8255000e+01	   1.4086508e+00	   2.4716872e-01	   1.6800072e+00	
   6.8310000e+01	   1.1713487e+00	   4.0846665e-01	   1.2117452e+00	
   6.8365000e+01	   1.4024718e+00	   1.4021570e+00	   1.3777233e+00	
   6.8420000e+01	   1.0358088e+00	   3.2691585e-01	   1.2253654e+00	
   6.8475000e+01	   1.2234224e+00	   4.6872265e-01	   1.3860926e+00	
   6.8530000e+01	   1.0096334e+00	   6.1115448e-01	   8.9823420e-01	
   6.8585000e+01	   1.0578654e+00	   8.8738099e-01	   1.1042736e+00	
   6.8640000e+01	   1.1455039e+00	   3.5250902e-01	   9.8097815e-01	
   6.8695000e+01	   7.7850976e-01	   1.9371346e-01	   6.0103087e-01	
   6.8750000e+01	   8.9094621e-01	   6.9530997e-01	   1.0650623e+00	
   6.8805000e+01	   1.3583535e+00	   9.7769499e-01	   1.1013966e+00	
   6.8860000e+01	   1.3224612e+00	   4.4826333e-01	   1.4002553e+00	
   6.8915000e+01	   1.3570598e+00	   5.4808793e-01	   1.5266180e+00	
   6.8970000e+01	   1.4667438e+00	   8.2214186e-01	   1.3581973e+00	
   6.9025000e+01	   1.5334759e+00	   5.9918441e-01	   1.8613632e+00	
   6.9080000e+01	   1.5609174e+00	   1.0473555e+00	   1.2117452e+00	
   6.9135000e+01	   1.3808522e+00	   1.0314978e+00	   1.0310746e+00	
   6.9190000e+01	   1.2031583e+00	   8.8835095e-01	   1.1428959e+00	
   6.9245000e+01	   1.4257277e+00	   1.1065378e+00	   1.4123508e+00	
   6.9300000e+01	   1.1163930e+00	   8.6312739e-01	   1.2520551e+00	
   6.9355000e+01	   1.0601507e+00	   9.6527165e-01	   6.9543726e-01	
   6.9410000e+01	   1.1548912e+00	   5.1181230e-01	   1.0881960e+00	
   6.9465000e+01	   1.2397234e+00	   9.0372402e-01	   8.8876634e-01	
   6.9520000e+01	   1.1378880e+00	   8.0523545e-01	   9.5493949e-01	
   6.9575000e+01	   1.0365329e+00	   7.8930299e-01	   8.9558643e-01	
   6.9630000e+01	   1.3838545e+00	   1.2613678e+00	   1.1236473e+00	
   6.9685000e+01	   1.5033552e+00	   1.6836988e+00	   1.8198314e+00	
   6.9740000e+01	   1.8314611e+00	   1.5170048e+00	   1.1727508e+00	
   6.9795000e+01	   1.6478219e+00	   1.4792671e+00	   1.4139272e+00	
   6.9850000e+01	   1.6309645e+00	   1.3120075e+00	   1.2093310e+00	
   6.9905000e+01	   1.5900501e+00	   1.4561662e+00	   1.4002553e+00	
   6.9960000e+01	   1.7571151e+00	   1.4365421e+00	   1.1109820e+00	
   7.0015000e+01	   1.5621421e+00	   1.2235072e+00	   1.2706030e+00	
   7.0070000e+01	   1.5341225e+00	   1.0133509e+00	   9.0944938e-01	
   7.0125000e+01	   1.3517347e+00	   1.4056514e+00	   1.1065380e+00	
   7.0180000e+01	   1.3994518e+00	   1.4712305e+00	   1.0128150e+00	
   7.0235000e+01	   1.2824073e+00	   1.0935374e+00	   9.4503804e-01	
   7.0290000e+01	   1.0410292e+00	   1.1761527e+00	   1.2817898e+00	
   7.0345000e+01	   7.9622222e-01	   1.1617185e+00	   1.1813653e+00	
   7.0400000e+01	   1.1144365e+00	   1.0413702e+00	   8.6406803e-01	
   7.0455000e+01	   9.6088362e-01	   1.1428260e+00	   9.7799621e-01	
   7.0510000e+01	   1.3485485e+00	   1.8382464e+00	   1.0914830e+00	
   7.0565000e+01	   1.3586181e+00	   1.4998394e+00	   1.3898480e+00	
   7.0620000e+01	   1.4918442e+00	   1.6404962e+00	   1.3281870e+00	
   7.0675000e+01	   1.4332019e+00	   1.0845386e+00	   1.0509229e+00	
   7.0730000e+01	   1.5063462e+00	   1.5117570e+00	   1.3011012e+00	
   7.0785000e+01	   1.3766407e+00	   1.2417605e+00	   1.1855395e+00	
   7.0840000e+01	   1.5943438e+00	   1.3929754e+00	   9.8058808e-01	
   7.0895000e+01	   1.2841625e+00	   1.2914139e+00	   1.0222290e+00	
   7.0950000e+01	   1.2775276e+00	   1.1097053e+00	   8.3201159e-01	
   7.1005000e+01	   1.2892205e+00	   1.3858626e+00	   9.3428030e-01	
   7.1060000e+01	   1.1524821e+00	   1.1033278e+00	   1.0488052e+00	
   7.1115000e+01	   1.1337968e+00	   9.4831547e-01	   1.1234661e+00	
   7.1170000e+01	   1.0682540e+00	   6.0952827e-01	   9.3428030e-01	
   7.1225000e+01	   9.7803224e-01	   9.3944543e-01	   9.3428030e-01	
   7.1280000e+01	   1.3521127e+00	   1.3802586e+00	   1.2277715e+00	
   7.1335000e+01	   1.1296184e+00	   8.7688821e-01	   9.5493949e-01	
   7.1390000e+01	   1.3795627e+00	   1.3839515e+00	   1.2805763e+00	
   7.1445000e+01	   1.5691080e+00	   1.3540304e+00	   1.5806860e+00	
   7.1500000e+01	   1.4273596e+00	   1.4411151e+00	   9.0944938e-01	
   7.1555000e+01	   1.3470666e+00	   8.3203408e-01	   1.2224449e+00	
   7.1610000e+01	   1.2984027e+00	   1.5825648e+00	   1.1981557e+00	
   7.1665000e+01	   1.6941182e+00	   1.4107408e+00	   9.0912159e-01	
   7.1720000e+01	   1.2605927e+00	   9.2326850e-01	   9.7378083e-01	
   7.1775000e+01	   9.2516954e-01	   9.9062734e-01	   8.0584100e-01	
   7.1830000e+01	   1.0333629e+00	   7.0580709e-01	   8.6652400e-01	
   7.1885000e+01	   1.1428509e+00	   1.1908211e+00	   9.5922116e-01	
   7.1940000e+01	   9.9919564e-01	   9.5707978e-01	   9.9437217e-01	
   7.1995000e+01	   7.8003473e-01	   8.1319800e-01	   7.6131174e-01	
   7.2050000e+01	   8.4643594e-01	   1.2414683e+00	   6.7210787e-01	
   7.2105000e+01	   1.0009201e+00	   1.1117921e+00	   8.5047498e-01	
   7.2160000e+01	   1.1012293e+00	   1.1304029e+00	   1.0160995e+00	
   7.2215000e+01	   1.2452303e+00	   1.2375214e+00	   1.0816586e+00	
   7.2270000e+01	   1.6767647e+00	   9.3715160e-01	   1.4988249e+00	
   7.2325000e+01	   1.5417518e+00	   1.4753961e+00	   1.1500935e+00	
   7.2380000e+01	   1.4728905e+00	   1.3623503e+00	   1.7408558e+00	
   7.2435000e+01	   1.3555436e+00	   1.1159515e+00	   8.7721730e-01	
   7.2490000e+01	   1.4939395e+00	   1.6467730e+00	   1.1183885e+00	
   7.2545000e+01	   1.4288011e+00	   1.3755510e+00	   1.2529237e+00	
   7.2600000e+01	   1.2287872e+00	   1.2301406e+00	   5.9586132e-01	
   7.2655000e+01	   1.3296863e+00	   1.3580344e+00	   9.9972027e-01	
   7.2710000e+01	   1.2233439e+00	   8.0252052e-01	   6.0792453e-01	
   7.2765000e+01	   1.2430044e+00	   1.4226057e+00	   6.9681602e-01	
   7.2820000e+01	   1.1369289e+00	   1.4302148e+00	   4.8122324e-01	
   7.2875000e+01	   9.7772740e-01	   1.0475826e+00	   4.2039392e-01	
   7.2930000e+01	   7.4554005e-01	   1.1603357e+00	   6.5922793e-01	
   7.2985000e+01	   9.4558778e-01	   1.3666249e+00	   5.8916037e-01	
   7.3040000e+01	   9.6358004e-01	   1.0349985e+00	   7.4199982e-01	
   7.3095000e+01	   1.1149659e+00	   1.1682107e+00	   7.8992006e-01	
   7.3150000e+01	   1.4538596e+00	   1.8730984e+00	   1.0195722e+00	
   7.3205000e+01	   1.4092483e+00	   1.4828260e+00	   1.2766092e+00	
   7.3260000e+01	   1.3674954e+00	   1.2659447e+00	   1.0526368e+00	
   7.3315000e+01	   1.4175166e+00	   9.5600826e-01	   6.4218737e-01	
   7.3370000e+01	   1.3447990e+00	   1.4341496e+00	   6.7853353e-01	
   7.3425000e+01	   1.2952940e+00	   1.0419029e+00	   1.1831310e+00	
   7.3480000e+01	   1.2716028e+00	   1.3491698e+00	   7.6743340e-01	
   7.3535000e+01	   1.2561261e+00	   1.1212295e+00	   8.2335078e-01	
   7.3590000e+01	   1.1082976e+00	   1.2530926e+00	   8.4667459e-01	
   7.3645000e+01	   9.8597990e-01	   1.5124271e+00	   8.4667459e-01	
   7.3700000e+01	   9.2474318e-01	   1.2879154e+00	   9.2577511e-01	
   7.3755000e+01	   7.6085178e-01	   1.4607888e+00	   5.6743239e-01	
   7.3810000e+01	   6.9206704e-01	   1.0660428e+00	   6.6894537e-01	
   7.3865000e+01	   6.7819027e-01	   1.1760054e+00	   5.8916037e-01	
   7.3920000e+01	   8.6326980e-01	   1.0074509e+00	   2.2126773e-01	
   7.3975000e+01	   1.0334386e+00	   1.2567794e+00	   9.0625465e-01	
   7.4030000e+01	   1.1579520e+00	   1.2010992e+00	   1.0712425e+00	
   7.4085000e+01	   1.3064781e+00	   1.6003004e+00	   1.2166608e+00	
   7.4140000e+01	   1.2105422e+00	   1.5716600e+00	   1.2166608e+00	
   7.4195000e+01	   1.0194818e+00	   1.5688335e+00	   1.1578732e+00	
   7.4250000e+01	   1.0882353e+00	   1.2268373e+00	   7.0063047e-01	
   7.4305000e+01	   1.2203412e+00	   1.6116700e+00	   1.0685976e+00	
   7.4360000e+01	   1.0620572e+00	   1.2620549e+00	   7.0379845e-01	
   7.4415000e+01	   8.2594280e-01	   9.1026410e-01	   8.8707020e-01	
   7.4470000e+01	   8.7152444e-01	   9.0349888e-01	   6.3053199e-01	
   7.4525000e+01	   8.1842203e-01	   1.3032025e+00	   6.2109383e-01	
   7.4580000e+01	   6.1186069e-01	   1.1345455e+00	   6.5659563e-01	
   7.4635000e+01	   6.1113697e-01	   9.5053031e-01	   4.5573962e-01	
   7.4690000e+01	   5.0361515e-01	   5.6115754e-01	   5.4463111e-01	
   7.4745000e+01	   6.9976667e-01	   8.8305241e-01	   5.2859939e-01	
   7.4800000e+01	   8.8611601e-01	   1.4107354e+00	   7.9668629e-01	
   7.4855000e+01	   9.3059913e-01	   1.1960766e+00	   8.8712476e-01	
   7.4910000e+01	   1.0286796e+00	   1.1183268e+00	   1.1340278e+00	
   7.4965000e+01	   1.0963100e+00	   9.7843598e-01	   8.5432774e-01	
   7.5020000e+01	   9.9459741e-01	   1.1586099e+00	   7.5511116e-01	
   7.5075000e+01	   8.2571632e-01	   1.1319514e+00	   2.6963553e-01	
   7.5130000e+01	   8.2717210e-01	   9.7898802e-01	   7.4832772e-01	
   7.5185000e+01	   8.5930548e-01	   1.0686914e+00	   7.8736988e-01	
   7.5240000e+01	   7.1179815e-01	   8.9395386e-01	   7.4832772e-01	
   7.5295000e+01	   6.9957558e-01	   9.6002524e-01	   2.5648220e-01	
   7.5350000e+01	   6.8201491e-01	   9.1387887e-01	   2.2126773e-01	
   7.5405000e+01	   7.1953966e-01	   8.1617220e-01	   7.8303964e-01	
   7.5460000e+01	   4.2158810e-01	   6.1201528e-01	   4.5573962e-01	
   7.5515000e+01	   8.1101851e-01	   8.4107817e-01	   6.5283658e-01	
   7.5570000e+01	   1.0649651e+00	   1.2880268e+00	   9.1601630e-01	
   7.5625000e+01	   1.2441501e+00	   1.3370599e+00	   8.2698490e-01	
   7.5680000e+01	   1.2681142e+00	   1.2617859e+00	   7.5422316e-01	
   7.5735000e+01	   1.2450219e+00	   1.0881350e+00	   7.5422316e-01	
   7.5790000e+01	   1.5253278e+00	   1.6494059e+00	   1.7630686e+00	
   7.5845000e+01	   1.2521957e+00	   1.1008488e+00	   9.5386077e-01	
   7.5900000e+01	   1.0706039e+00	   8.2446633e-01	   2.8642864e-01	
   7.5955000e+01	   1.0345327e+00	   8.5786872e-01	   2.6579700e-01	
   7.6010000e+01	   1.2146106e+00	   1.2084829e+00	   6.9414815e-01	
   7.6065000e+01	   1.0549783e+00	   1.3348209e+00	   4.6275212e-01	
   7.6120000e+01	   8.4713732e-01	   1.0073431e+00	   3.8043508e-01	
   7.6175000e+01	   9.8669938e-01	   1.2858122e+00	   3.0796657e-01	
   7.6230000e+01	   9.3239838e-01	   1.1669097e+00	   4.0880885e-01	
   7.6285000e+01	   6.6820799e-01	   9.5049591e-01	   3.3586455e-01	
   7.6340000e+01	   7.4415575e-01	   9.7105484e-01	   3.3586455e-01	
   7.6395000e+01	   9.9826172e-01	   9.9338454e-01	   8.0937665e-01	
   7.6450000e+01	   1.3505876e+00	   1.3859225e+00	   1.2779404e+00	
   7.6505000e+01	   1.3281937e+00	   1.4789373e+00	   1.1299743e+00	
   7.6560000e+01	   1.3173436e+00	   1.6772092e+00	   1.0650623e+00	
   7.6615000e+01	   1.4202696e+00	   1.5751078e+00	   1.0222290e+00	
   7.6670000e+01	   1.2681600e+00	   1.5551635e+00	   5.6641243e-01	
   7.6725000e+01	   1.3138803e+00	   1.1694153e+00	   6.0826606e-01	
   7.6780000e+01	   1.2269331e+00	   1.3675914e+00	   5.5129080e-01	
   7.6835000e+01	   1.2321073e+00	   1.8927591e+00	   5.8621102e-01	
   7.6890000e+01	   1.2719404e+00	   1.6702806e+00	   7.5420303e-01	
   7.6945000e+01	   1.1155095e+00	   1.6622277e+00	   2.1942789e-01	
   7.7000000e+01	   8.8371151e-01	   1.6067795e+00	   3.3586455e-01	
   7.7055000e+01	   1.2082334e+00	   1.5825015e+00	   5.6180285e-01	
   7.7110000e+01	   1.0534241e+00	   9.8589926e-01	   4.5573962e-01	
   7.7165000e+01	   9.2805025e-01	   1.3975529e+00	   2.9852841e-01	
   7.7220000e+01	   1.1602593e+00	   1.4011806e+00	   6.9099896e-01	
   7.7275000e+01	   1.4716596e+00	   1.5950918e+00	   1.0483048e+00	
   7.7330000e+01	   1.3746347e+00	   1.5456214e+00	   1.2166608e+00	
   7.7385000e+01	   1.4558373e+00	   1.5927788e+00	   1.3026854e+00	
   7.7440000e+01	   1.5107524e+00	   1.4665553e+00	   6.2053420e-01	
   7.7495000e+01	   1.4573721e+00	   1.8856775e+00	   8.6039238e-01	
   7.7550000e+01	   1.7457853e+00	   1.3071723e+00	   8.3492051e-01	
   7.7605000e+01	   1.4717577e+00	   1.6552540e+00	   6.6894537e-01	
   7.7660000e+01	   1.5614125e+00	   1.3771440e+00	   8.7208184e-01	
   7.7715000e+01	   1.3901904e+00	   1.7547859e+00	   6.2109383e-01	
   7.7770000e+01	   1.5186162e+00	   1.5878670e+00	   1.1037508e+00	
   7.7825000e+01	   1.2975589e+00	   1.4489757e+00	   8.1200393e-01	
   7.7880000e+01	   1.3211402e+00	   1.4498209e+00	   8.7769265e-01	
   7.7935000e+01	   1.1861466e+00	   1.6718022e+00	   7.3846912e-01	
   7.7990000e+01	   1.1819584e+00	   1.8224745e+00	   1.3155411e+00	
   7.8045000e+01	   1.1431801e+00	   1.5478292e+00	   8.2756890e-01	
   7.8100000e+01	   1.2977363e+00	   1.9301999e+00	   8.0644795e-01	
   7.8155000e+01	   1.5134606e+00	   1.6975884e+00	   1.2817898e+00	
   7.8210000e+01	   1.6093345e+00	   1.7261991e+00	   9.8678565e-01	
   7.8265000e+01	   1.3643230e+00	   2.0245171e+00	   9.4157995e-01	
   7.8320000e+01	   1.7543636e+00	   1.7355313e+00	   9.8320143e-01	
   7.8375000e+01	   1.5828845e+00	   2.1200379e+00	   1.1551662e+00	
   7.8430000e+01	   1.5182306e+00	   1.8761144e+00	   1.4650670e+00	
   7.8485000e+01	   1.3555927e+00	   1.7151629e+00	   7.9296169e-01	
   7.8540000e+01	   1.2789259e+00	   1.5848645e+00	   8.9652999e-01	
   7.8595000e+01	   1.7261414e+00	   1.7834992e+00	   7.1986372e-01	
   7.8650000e+01	   1.5173472e+00	   1.7498571e+00	   8.7769265e-01	
   7.8705000e+01	   1.3937424e+00	   1.7303475e+00	   4.8819121e-01	
   7.8760000e+01	   1.0175810e+00	   1.6106393e+00	   7.3846912e-01	
   7.8815000e+01	   1.4073962e+00	   2.1043619e+00	   9.9437217e-01	
   7.8870000e+01	   1.5676869e+00	   1.9503486e+00	   1.0540753e+00	
   7.8925000e+01	   1.6396986e+00	   1.9043732e+00	   1.1825658e+00	
   7.8980000e+01	   1.6166650e+00	   1.6079016e+00	   1.0674347e+00	
   7.9035000e+01	   1.7307714e+00	   2.2551080e+00	   1.3274121e+00	
   7.9090000e+01	   1.7751455e+00	   1.7189089e+00	   9.7943437e-01	
   7.9145000e+01	   1.6411850e+00	   1.9315462e+00	   6.1769918e-01	
   7.9200000e+01	   1.5324436e+00	   1.7777971e+00	   6.7889472e-01	
   7.9255000e+01	   1.5932709e+00	   2.0059775e+00	   1.2515952e+00	
   7.9310000e+01	   1.4506338e+00	   1.8107133e+00	   6.2109383e-01	
   7.9365000e+01	   1.3247807e+00	   1.0909773e+00	   5.5129080e-01	
   7.9420000e+01	   1.1952557e+00	   1.4456514e+00	   7.1963177e-01	
   7.9475000e+01	   1.3452489e+00	   1.5061018e+00	   7.6426575e-01	
   7.9530000e+01	   1.1871494e+00	   1.3751720e+00	   7.3846912e-01	
   7.9585000e+01	   1.0601468e+00	   1.4431235e+00	   4.8122324e-01	
   7.9640000e+01	   1.5944374e+00	   1.5915930e+00	   1.0089099e+00	
   7.9695000e+01	   1.7539788e+00	   1.8602956e+00	   1.4232222e+00	
   7.9750000e+01	   1.8341414e+00	   2.1887614e+00	   1.1391763e+00	
   7.9805000e+01	   1.7425747e+00	   1.7597694e+00	   1.0575184e+00	
   7.9860000e+01	   1.7571767e+00	   1.7203380e+00	   1.0785150e+00	
   7.9915000e+01	   2.0090415e+00	   1.9874167e+00	   9.7499915e-01	
   7.9970000e+01	   1.9205629e+00	   1.8393103e+00	   1.1875670e+00	
   8.0025000e+01	   1.6927612e+00	   1.6946125e+00	   7.3501812e-01	
   8.0080000e+01	   1.8454496e+00	   1.4421904e+00	   6.2109383e-01	
   8.0135000e+01	   1.5743898e+00	   1.6931981e+00	   9.9092332e-01	
   8.0190000e+01	   1.4700150e+00	   1.5169066e+00	   1.3003363e+00	
   8.0245000e+01	   1.3551808e+00	   1.4966430e+00	   8.9652999e-01	
   8.0300000e+01	   1.3423117e+00	   1.3086554e+00	   9.4110052e-01	
   8.0355000e+01	   1.3598849e+00	   1.3484298e+00	   8.5403944e-01	
   8.0410000e+01	   1.5506171e+00	   1.7789382e+00	   7.0963251e-01	
   8.0465000e+01	   1.6545842e+00	   1.7362978e+00	   1.3124260e+00	
   8.0520000e+01	   1.8196269e+00	   1.9310573e+00	   8.5178397e-01	
   8.0575000e+01	   2.1682603e+00	   2.2301505e+00	   1.2277715e+00	
   8.0630000e+01	   2.0801908e+00	   1.9753243e+00	   1.5521660e+00	
   8.0685000e+01	   2.0116405e+00	   2.0774033e+00	   9.9437217e-01	
   8.0740000e+01	   2.0952356e+00	   2.1443998e+00	   1.1336227e+00	
   8.0795000e+01	   1.8383985e+00	   2.1902733e+00	   1.1922895e+00	
   8.0850000e+01	   1.8325965e+00	   1.9924111e+00	   5.6967613e-01	
   8.0905000e+01	   1.8652568e+00	   1.7482284e+00	   1.0738957e+00	
   8.0960000e+01	   1.7363989e+00	   1.8098038e+00	   1.0295747e+00	
   8.1015000e+01	   1.7267521e+00	   1.7284396e+00	   7.3092655e-01	
   8.1070000e+01	   1.7125622e+00	   1.7397634e+00	   1.1372448e+00	
   8.1125000e+01	   1.3509410e+00	   1.5445308e+00	   5.6370682e-01	
   8.1180000e+01	   1.4408966e+00	   1.3733477e+00	   6.8660558e-01	
   8.1235000e+01	   1.3184209e+00	   1.7376069e+00	   7.0005418e-01	
   8.1290000e+01	   1.5602318e+00	   1.4405306e+00	   9.5514974e-01	
   8.1345000e+01	   1.9787508e+00	   1.6646329e+00	   9.5786635e-01	
   8.1400000e+01	   2.1103139e+00	   2.4835390e+00	   1.0871228e+00	
   8.1455000e+01	   2.0047540e+00	   2.1822308e+00	   1.4929045e+00	
   8.1510000e+01	   1.9447510e+00	   2.3756056e+00	   1.2474595e+00	
   8.1565000e+01	   1.8530697e+00	   1.9746696e+00	   1.1285902e+00	
   8.1620000e+01	   2.1567666e+00	   2.5459948e+00	   1.4347694e+00	
   8.1675000e+01	   1.9791457e+00	   1.9408232e+00	   1.2515952e+00	
   8.1730000e+01	   1.8472742e+00	   1.9911975e+00	   7.7046170e-01	
   8.1785000e+01	   1.7351193e+00	   1.6400383e+00	   6.3420612e-01	
   8.1840000e+01	   1.8520074e+00	   1.8761692e+00	   1.0248952e+00	
   8.1895000e+01	   1.8541637e+00	   1.8690905e+00	   1.3640125e+00	
   8.1950000e+01	   1.4741580e+00	   1.4162151e+00	   1.0542899e+00	
   8.2005000e+01	   1.6264249e+00	   1.9795618e+00	   9.7560888e-01	
   8.2060000e+01	   1.5914952e+00	   1.7335994e+00	   1.3051920e+00	
   8.2115000e+01	   1.5732575e+00	   1.7366144e+00	   9.1224227e-01	
   8.2170000e+01	   2.0877545e+00	   2.0632049e+00	   1.2874592e+00	
   8.2225000e+01	   1.5861198e+00	   1.5666672e+00	   1.4027971e+00	
   8.2280000e+01	   1.8107377e+00	   2.0358903e+00	   1.2277715e+00	
   8.2335000e+01	   1.8983360e+00	   2.2638514e+00	   1.2327593e+00	
   8.2390000e+01	   1.9961828e+00	   2.0125485e+00	   1.2529237e+00	
   8.2445000e+01	   1.8913262e+00	   1.7885837e+00	   1.1679840e+00	
   8.2500000e+01	   1.8606247e+00	   1.2227433e+00	   1.0148749e+00	
   8.2555000e+01	   1.9119311e+00	   1.9452031e+00	   1.0342503e+00	
   8.2610000e+01	   1.8004866e+00	   1.9818609e+00	   1.1283849e+00	
   8.2665000e+01	   1.4358671e+00	   1.4829503e+00	   8.5781412e-01	
   8.2720000e+01	   1.4818397e+00	   1.8042145e+00	   6.9681602e-01	
   8.2775000e+01	   1.6233596e+00	   1.6523602e+00	   1.2751210e+00	
   8.2830000e+01	   1.2431705e+00	   1.1946755e+00	   6.8455346e-01	
   8.2885000e+01	   1.2416544e+00	   1.4338617e+00	   1.0800866e+00	
   8.2940000e+01	   1.7608854e+00	   1.7284414e+00	   1.1825658e+00	
   8.2995000e+01	   2.0338661e+00	   2.1944402e+00	   1.5622953e+00	
   8.3050000e+01	   1.7685234e+00	   1.5408247e+00	   1.5080074e+00	
   8.3105000e+01	   1.7852721e+00	   2.1930366e+00	   9.0987565e-01	
   8.3160000e+01	   1.9101983e+00	   1.9059758e+00	   1.2674749e+00	
   8.3215000e+01	   1.9255467e+00	   1.9244254e+00	   9.5631998e-01	
   8.3270000e+01	   1.9134144e+00	   1.5984716e+00	   1.1976297e+00	
   8.3325000e+01	   1.4866550e+00	   1.1816400e+00	   7.2549327e-01	
   8.3380000e+01	   1.7252185e+00	   1.6772905e+00	   1.3110566e+00	
   8.3435000e+01	   1.7020133e+00	   1.5177170e+00	   1.0694657e+00	
   8.3490000e+01	   1.4964579e+00	   1.2819942e+00	   1.2327629e+00	
   8.3545000e+01	   1.3323787e+00	   1.5211105e+00	   7.8303964e-01	
   8.3600000e+01	   1.2023983e+00	   1.3403942e+00	   1.1093426e+00	
   8.3655000e+01	   1.2980108e+00	   1.5087511e+00	   9.4110052e-01	
   8.3710000e+01	   1.3050806e+00	   1.4707464e+00	   1.0788208e+00	
   8.3765000e+01	   1.6502610e+00	   1.5775910e+00	   1.2032545e+00	
   8.3820000e+01	   1.6920148e+00	   1.7208545e+00	   1.0258612e+00	
   8.3875000e+01	   1.8147203e+00	   1.5460140e+00	   1.6138648e+00	
   8.3930000e+01	   1.9015779e+00	   1.8217478e+00	   9.8058808e-01	
   8.3985000e+01	   1.7467881e+00	   1.5230753e+00	   1.0381068e+00	
   8.4040000e+01	   1.9542812e+00	   2.2307175e+00	   1.2779650e+00	
   8.4095000e+01	   1.6807471e+00	   1.5063479e+00	   1.2725041e+00	
   8.4150000e+01	   1.6042988e+00	   1.4614387e+00	   1.1875670e+00	
   8.4205000e+01	   1.5882149e+00	   1.3225284e+00	   6.7510251e-01	
   8.4260000e+01	   1.4636694e+00	   1.5349414e+00	   1.1183885e+00	
   8.4315000e+01	   1.3101324e+00	   9.6764206e-01	   9.9972027e-01	
   8.4370000e+01	   1.3092573e+00	   1.3539290e+00	   1.0493060e+00	
   8.4425000e+01	   1.2294685e+00	   1.2643939e+00	   9.8562978e-01	
   8.4480000e+01	   1.1097629e+00	   1.2188144e+00	   8.1200393e-01	
   8.4535000e+01	   1.0421852e+00	   1.1368091e+00	   1.2392497e+00	
   8.4590000e+01	   1.0742818e+00	   1.0473035e+00	   1.2130418e+00	
   8.4645000e+01	   1.5313863e+00	   1.3894280e+00	   1.0237453e+00	
   8.4700000e+01	   1.7172962e+00	   1.6275007e+00	   1.8077980e+00	
   8.4755000e+01	   1.8860463e+00	   1.6480698e+00	   1.5846265e+00	
   8.4810000e+01	   1.5515153e+00	   1.6930977e+00	   1.0294278e+00	
   8.4865000e+01	   1.6522946e+00	   1.9813452e+00	   1.6399466e+00	
   8.4920000e+01	   1.5855259e+00	   1.6347367e+00	   1.7776062e+00	
   8.4975000e+01	   1.6224657e+00	   1.1618950e+00	   9.1875310e-01	
   8.5030000e+01	   1.3719817e+00	   1.3409747e+00	   1.0336701e+00	
   8.5085000e+01	   1.4038724e+00	   1.6517578e+00	   6.4371175e-01	
   8.5140000e+01	   1.3293085e+00	   1.0833285e+00	   1.1931218e+00	
   8.5195000e+01	   1.2319918e+00	   1.3743757e+00	   1.4175689e+00	
   8.5250000e+01	   1.0385381e+00	   1.0550489e+00	   7.8673901e-01	
   8.5305000e+01	   1.0107665e+00	   1.3016964e+00	   1.0543815e+00	
   8.5360000e+01	   9.9254208e-01	   1.1942208e+00	   1.0992264e+00	
   8.5415000e+01	   7.0861599e-01	   1.4653077e+00	   9.4005905e-01	
   8.5470000e+01	   9.4085052e-01	   1.2185670e+00	   8.0743004e-01	
   8.5525000e+01	   1.3224855e+00	   1.6188499e+00	   1.6250293e+00	
   8.5580000e+01	   1.4752423e+00	   1.7032003e+00	   9.4129600e-01	
   8.5635000e+01	   1.4264372e+00	   1.3160864e+00	   1.3618421e+00	
   8.5690000e+01	   1.3133506e+00	   1.0552428e+00	   8.9558643e-01	
   8.5745000e+01	   1.3766344e+00	   1.4105405e+00	   1.0551608e+00	
   8.5800000e+01	   1.4783972e+00	   1.3678295e+00	   1.1519193e+00	
   8.5855000e+01	   1.1101789e+00	   1.2690492e+00	   1.0832722e+00	
   8.5910000e+01	   1.0005041e+00	   1.0763316e+00	   7.9668629e-01	
   8.5965000e+01	   1.0759772e+00	   1.2025250e+00	   1.0832722e+00	
   8.6020000e+01	   1.1005532e+00	   9.8531175e-01	   9.5922116e-01	
   8.6075000e+01	   9.8415696e-01	   1.2517006e+00	   6.2726299e-01	
   8.6130000e+01	   7.6330030e-01	   1.0334444e+00	   6.8443550e-01	
   8.6185000e+01	   7.2433049e-01	   1.2362468e+00	   1.0488052e+00	
   8.6240000e+01	   9.6784503e-01	   1.6103764e+00	   7.8673901e-01	
   8.6295000e+01	   1.1902541e+00	   1.7364660e+00	   8.9976494e-01	
   8.6350000e+01	   1.1024043e+00	   1.4090083e+00	   1.1142556e+00	
   8.6405000e+01	   1.2435144e+00	   1.7188462e+00	   1.2212135e+00	
   8.6460000e+01	   1.3656052e+00	   1.5648471e+00	   1.2865107e+00	
   8.6515000e+01	   1.1169147e+00	   1.1866017e+00	   8.3519316e-01	
   8.6570000e+01	   1.0518524e+00	   1.3897635e+00	   8.7074321e-01	
   8.6625000e+01	   1.1558961e+00	   1.7182791e+00	   9.3901160e-01	
   8.6680000e+01	   1.3090621e+00	   1.4943622e+00	   1.0381068e+00	
   8.6735000e+01	   9.5342098e-01	   1.0185014e+00	   7.9974513e-01	
   8.6790000e+01	   9.5818612e-01	   1.0392310e+00	   7.9974513e-01	
   8.6845000e+01	   7.6134016e-01	   1.2115345e+00	   9.3428030e-01	
   8.6900000e+01	   7.5905516e-01	   1.3271047e+00	   6.6233316e-01	
   8.6955000e+01	   6.7521257e-01	   9.9831540e-01	   3.9612059e-01	
   8.7010000e+01	   6.2727881e-01	   1.3215912e+00	   5.4029370e-01	
   8.7065000e+01	   6.2192445e-01	   1.3331714e+00	   9.3428030e-01	
   8.7120000e+01	   9.7868780e-01	   1.4397296e+00	   1.1624817e+00	
   8.7175000e+01	   1.0427601e+00	   1.0571583e+00	   1.0585641e+00	
   8.7230000e+01	   1.2636939e+00	   1.4379557e+00	   7.0347140e-01	
   8.7285000e+01	   1.3813426e+00	   1.2943686e+00	   7.0347140e-01	
   8.7340000e+01	   1.2171386e+00	   1.6289424e+00	   1.1299743e+00	
   8.7395000e+01	   1.1753504e+00	   9.4301804e-01	   6.5614550e-01	
   8.7450000e+01	   1.0244749e+00	   1.0902169e+00	   8.8057451e-01	
   8.7505000e+01	   1.1933032e+00	   1.3341368e+00	   1.2381137e+00	
   8.7560000e+01	   1.0241191e+00	   1.0599850e+00	   8.8932920e-01	
   8.7615000e+01	   1.0049430e+00	   1.4249123e+00	   3.8859364e-01	
   8.7670000e+01	   7.4359220e-01	   1.0902545e+00	   9.8320143e-01	
   8.7725000e+01	   8.6666792e-01	   1.4141886e+00	   7.9381195e-01	
   8.7780000e+01	   9.1816119e-01	   1.5368939e+00	   1.0441571e+00	
   8.7835000e+01	   6.7711901e-01	   6.5306890e-01	   5.5701014e-01	
   8.7890000e+01	   5.9534796e-01	   6.1731757e-01	   4.8394985e-01	
   8.7945000e+01	   7.7928716e-01	   1.0385915e+00	   7.7423147e-01	
   8.8000000e+01	   1.2862068e+00	   1.3890231e+00	   1.4483038e+00	
   8.8055000e+01	   1.1154012e+00	   1.0260801e+00	   1.2420665e+00	
   8.8110000e+01	   1.2118980e+00	   1.3542528e+00	   8.5230341e-01	
   8.8165000e+01	   1.3478938e+00	   1.7057620e+00	   1.1830992e+00	
   8.8220000e+01	   1.2423304e+00	   1.3285580e+00	   7.1087575e-01	
   8.8275000e+01	   1.1624192e+00	   1.0905163e+00	   1.1754644e+00	
   8.8330000e+01	   1.1694184e+00	   9.9606519e-01	   1.0966305e+00	
   8.8385000e+01	   1.2377480e+00	   1.6012293e+00	   9.9669311e-01	
   8.8440000e+01	   1.0209684e+00	   1.3869538e+00	   4.7171458e-01	
   8.8495000e+01	   9.7766506e-01	   1.1847114e+00	   8.6770955e-01	
   8.8550000e+01	   1.1249023e+00	   1.3619875e+00	   1.1389620e+00	
   8.8605000e+01	   1.0888113e+00	   1.5532582e+00	   1.1024695e+00	
   8.8660000e+01	   9.2305145e-01	   1.1044475e+00	   7.0371300e-01	
   8.8715000e+01	   7.5011435e-01	   1.3505506e+00	   6.4903988e-01	
   8.8770000e+01	   6.2858515e-01	   7.4064710e-01	   3.6911326e-02	
   8.8825000e+01	   1.1560089e+00	   1.7328823e+00	   8.2557784e-01	
   8.8880000e+01	   1.2369617e+00	   1.5889971e+00	   1.5033607e+00	
   8.8935000e+01	   1.2453200e+00	   1.6051380e+00	   1.0623801e+00	
   8.8990000e+01	   1.4469294e+00	   2.1392576e+00	   1.1440929e+00	
   8.9045000e+01	   1.3833800e+00	   1.6732191e+00	   9.4816193e-01	
   8.9100000e+01	   1.5408611e+00	   1.6608321e+00	   9.7714976e-01	
   8.9155000e+01	   1.3266903e+00	   1.3021421e+00	   1.0875646e+00	
   8.9210000e+01	   1.2949041e+00	   1.7043732e+00	   8.5182930e-01	
   8.9265000e+01	   1.2841424e+00	   1.8170349e+00	   1.2381137e+00	
   8.9320000e+01	   1.1539988e+00	   1.6255743e+00	   1.0966305e+00	
   8.9375000e+01	   9.6909000e-01	   1.1835919e+00	   7.1600948e-01	
   8.9430000e+01	   1.0859117e+00	   1.3545061e+00	   7.2271838e-01	
   8.9485000e+01	   1.0441896e+00	   1.4803670e+00	   8.0336743e-01	
   8.9540000e+01	   1.0411637e+00	   1.4348156e+00	   2.4538987e-01	
   8.9595000e+01	   1.1820814e+00	   1.6006873e+00	   7.9668629e-01	
   8.9650000e+01	   1.2871779e+00	   1.6858896e+00	   1.4939141e+00	
   8.9705000e+01	   1.4677520e+00	   1.4950202e+00	   1.2288483e+00	
   8.9760000e+01	   1.5083487e+00	   1.6713700e+00	   1.4219464e+00	
   8.9815000e+01	   1.5201938e+00	   1.4470750e+00	   1.1274153e+00	
   8.9870000e+01	   1.5277243e+00	   1.5916296e+00	   1.1500935e+00	
   8.9925000e+01	   1.4429538e+00	   1.4469543e+00	   9.1601630e-01	
   8.9980000e+01	   1.4854870e+00	   1.3046907e+00	   9.4503804e-01	
   9.0035000e+01	   1.2647632e+00	   1.1771412e+00	   1.3325677e+00	
   9.0090000e+01	   1.2982290e+00	   1.4468491e+00	   9.8058808e-01	
   9.0145000e+01	   1.2088024e+00	   1.5569940e+00	   8.0644795e-01	
   9.0200000e+01	   1.0484073e+00	   1.3810076e+00	   7.6117485e-01	
   9.0255000e+01	   1.0775214e+00	   1.3635919e+00	   6.5188164e-01	
   9.0310000e+01	   1.1067692e+00	   1.2887758e+00	   4.7283273e-01	
   9.0365000e+01	   1.2538960e+00	   1.5801836e+00	   9.7397900e-01	
   9.0420000e+01	   1.5717703e+00	   1.0940196e+00	   1.1991620e+00	
   9.0475000e+01	   1.3512005e+00	   1.2067632e+00	   9.1744950e-01	
   9.0530000e+01	   1.5134606e+00	   1.4192077e+00	   1.7235610e+00	
   9.0585000e+01	   1.7413452e+00	   1.9040249e+00	   1.4824208e+00	
   9.0640000e+01	   1.6340545e+00	   1.7453500e+00	   9.4427641e-01	
   9.0695000e+01	   1.4696760e+00	   1.7504208e+00	   1.6868631e+00	
   9.0750000e+01	   1.5997797e+00	   1.6936852e+00	   1.2508761e+00	
   9.0805000e+01	   1.5311997e+00	   1.5916743e+00	   1.3974767e+00	
   9.0860000e+01	   1.6246187e+00	   1.5670530e+00	   1.0128150e+00	
   9.0915000e+01	   1.1770846e+00	   1.2789404e+00	   1.2109443e+00	
   9.0970000e+01	   1.3424059e+00	   1.4496934e+00	   1.2268554e+00	
   9.1025000e+01	   1.3680462e+00	   1.3284072e+00	   9.6139765e-01	
   9.1080000e+01	   1.1045797e+00	   1.0614207e+00	   8.5182930e-01	
   9.1135000e+01	   1.0652350e+00	   9.1983427e-01	   9.8058808e-01	
   9.1190000e+01	   1.1470073e+00	   1.1797709e+00	   1.2575201e+00	
   9.1245000e+01	   1.1073762e+00	   1.1669485e+00	   1.0674347e+00	
   9.1300000e+01	   1.3595455e+00	   1.1652232e+00	   9.9973234e-01	
   9.1355000e+01	   1.6030010e+00	   1.2084410e+00	   1.2524970e+00	
   9.1410000e+01	   1.5347916e+00	   1.1875734e+00	   1.4304155e+00	
   9.1465000e+01	   1.8857657e+00	   1.5036380e+00	   1.6659103e+00	
   9.1520000e+01	   1.6605963e+00	   1.4947267e+00	   1.4408198e+00	
   9.1575000e+01	   1.6857994e+00	   1.5700818e+00	   1.7590440e+00	
   9.1630000e+01	   1.6382826e+00	   1.7674730e+00	   1.2845957e+00	
   9.1685000e+01	   1.6750447e+00	   1.7101332e+00	   1.6354454e+00	
   9.1740000e+01	   1.5717463e+00	   1.2414934e+00	   1.2051271e+00	
   9.1795000e+01	   1.3919544e+00	   1.0190713e+00	   1.3478931e+00	
   9.1850000e+01	   1.4168895e+00	   1.5061081e+00	   1.0032094e+00	
   9.1905000e+01	   1.4708445e+00	   1.2553967e+00	   1.3021835e+00	
   9.1960000e+01	   1.2494469e+00	   1.0788429e+00	   1.0485907e+00	
   9.2015000e+01	   1.0629232e+00	   1.1569540e+00	   1.4500481e+00	
   9.2070000e+01	   1.0669977e+00	   1.0723460e+00	   1.4287162e+00	
   9.2125000e+01	   1.0014283e+00	   1.3591966e+00	   9.9669311e-01	
   9.2180000e+01	   1.1489427e+00	   1.1287681e+00	   8.7667044e-01	
   9.2235000e+01	   1.5279826e+00	   1.2959468e+00	   9.6569406e-01	
   9.2290000e+01	   1.8601795e+00	   1.5040533e+00	   1.9594703e+00	
   9.2345000e+01	   1.6166990e+00	   1.5650212e+00	   1.6860198e+00	
   9.2400000e+01	   1.5693648e+00	   1.3642961e+00	   1.5367941e+00	
   9.2455000e+01	   1.7577711e+00	   1.3820272e+00	   1.4466354e+00	
   9.2510000e+01	   1.8041206e+00	   1.7096356e+00	   1.6056065e+00	
   9.2565000e+01	   1.7073861e+00	   1.4709207e+00	   1.6252971e+00	
   9.2620000e+01	   1.5337074e+00	   1.4661310e+00	   1.3501996e+00	
   9.2675000e+01	   1.4253574e+00	   1.5172737e+00	   1.0881960e+00	
   9.2730000e+01	   1.5498373e+00	   1.3429002e+00	   1.4993024e+00	
   9.2785000e+01	   1.4070011e+00	   1.2416185e+00	   1.1960243e+00	
   9.2840000e+01	   1.3034451e+00	   1.1717165e+00	   1.1238612e+00	
   9.2895000e+01	   1.1574922e+00	   8.2613373e-01	   1.1754644e+00	
   9.2950000e+01	   1.1114965e+00	   1.1909988e+00	   1.3779693e+00	
   9.3005000e+01	   1.3211149e+00	   1.1629763e+00	   5.2738672e-01	
   9.3060000e+01	   1.4698731e+00	   1.2277250e+00	   8.3528409e-01	
   9.3115000e+01	   1.7848570e+00	   1.5250789e+00	   1.4603457e+00	
   9.3170000e+01	   1.5716174e+00	   1.2573233e+00	   1.3179382e+00	
   9.3225000e+01	   1.6968731e+00	   1.5869242e+00	   2.0616349e+00	
   9.3280000e+01	   1.5583253e+00	   1.1567264e+00	   1.5182850e+00	
   9.3335000e+01	   1.4047699e+00	   1.3310737e+00	   1.5513036e+00	
   9.3390000e+01	   1.5713374e+00	   1.2185168e+00	   1.7220868e+00	
   9.3445000e+01	   1.3258810e+00	   1.0860476e+00	   1.0623801e+00	
   9.3500000e+01	   1.3625726e+00	   1.2984441e+00	   1.1633082e+00	
   9.3555000e+01	   1.2727256e+00	   6.8088716e-01	   1.3070706e+00	
   9.3610000e+01	   1.2313971e+00	   1.4540216e+00	   1.4432257e+00	
   9.3665000e+01	   1.1941203e+00	   7.3344502e-01	   1.4432257e+00	
   9.3720000e+01	   1.0404490e+00	   1.0672427e+00	   9.2606461e-01	
   9.3775000e+01	   1.2966418e+00	   1.3449820e+00	   1.0751373e+00	
   9.3830000e+01	   1.4103414e+00	   1.3230781e+00	   1.4169796e+00	
   9.3885000e+01	   1.4399902e+00	   1.2467857e+00	   1.6307624e+00	
   9.3940000e+01	   1.6385786e+00	   1.2157903e+00	   1.2946757e+00	
   9.3995000e+01	   1.5550828e+00	   7.5962235e-01	   1.4603457e+00	
   9.4050000e+01	   1.6058907e+00	   1.1113665e+00	   2.0258458e+00	
   9.4105000e+01	   1.6226947e+00	   1.0832804e+00	   1.0843266e+00	
   9.4160000e+01	   1.3873107e+00	   9.2541162e-01	   1.4528823e+00	
   9.4215000e+01	   1.4757571e+00	   6.5660160e-01	   1.1204498e+00	
   9.4270000e+01	   1.4958441e+00	   5.1132111e-01	   1.1901352e+00	
   9.4325000e+01	   1.2621198e+00	   1.0268706e+00	   1.2906915e+00	
   9.4380000e+01	   1.1289068e+00	   9.9020966e-01	   1.0228593e+00	
   9.4435000e+01	   1.0745499e+00	   9.2317516e-01	   9.2956861e-01	
   9.4490000e+01	   1.0882233e+00	   5.6266738e-01	   7.2110293e-01	
   9.4545000e+01	   9.9862053e-01	   8.7587786e-01	   6.3695507e-01	
   9.4600000e+01	   1.2179879e+00	   8.7815978e-01	   1.0164493e+00	
   9.4655000e+01	   1.4175095e+00	   8.3235178e-01	   1.5787139e+00	
   9.4710000e+01	   1.7191927e+00	   1.0519310e+00	   1.5730365e+00	
   9.4765000e+01	   1.7911769e+00	   1.0170651e+00	   1.9543178e+00	
   9.4820000e+01	   1.6351819e+00	   1.0289582e+00	   1.4705971e+00	
   9.4875000e+01	   1.7179023e+00	   1.2461471e+00	   1.5787139e+00	
   9.4930000e+01	   1.8896996e+00	   1.1082648e+00	   1.6356891e+00	
   9.4985000e+01	   1.5230178e+00	   4.9950625e-01	   1.3011012e+00	
   9.5040000e+01	   1.5423924e+00	   6.1408897e-01	   1.2683366e+00	
   9.5095000e+01	   1.5077826e+00	   9.5527218e-01	   1.2091282e+00	
   9.5150000e+01	   1.1981234e+00	   5.8258786e-01	   1.1901352e+00	
   9.5205000e+01	   1.2979992e+00	   7.4909005e-01	   7.6659098e-01	
   9.5260000e+01	   1.2122731e+00	   5.7988977e-01	   9.7714976e-01	
   9.5315000e+01	   1.1413331e+00	   9.0447124e-01	   1.1696103e+00	
   9.5370000e+01	   9.5912379e-01	   7.1901560e-01	   9.7419084e-01	
   9.5425000e+01	   1.4493660e+00	   6.0858182e-01	   9.5827711e-01	
   9.5480000e+01	   1.6714311e+00	   8.5307145e-01	   1.1204498e+00	
   9.5535000e+01	   1.7519150e+00	   1.3775489e+00	   1.8148695e+00	
