
   0.0000000e+00	   5.7116052e+00	   1.7441396e+01	   4.4526595e+00	
   5.5000000e-02	   5.3482525e+00	   1.7618430e+01	   4.8239219e+00	
   1.1000000e-01	   5.0850166e+00	   1.7848533e+01	   4.7814221e+00	
   1.6500000e-01	   4.9431341e+00	   1.8093164e+01	   4.3295995e+00	
   2.2000000e-01	   4.8244015e+00	   1.8203205e+01	   3.8118701e+00	
   2.7500000e-01	   4.6058598e+00	   1.8014372e+01	   3.5284217e+00	
   3.3000000e-01	   4.3231340e+00	   1.7533701e+01	   3.5491641e+00	
   3.8500000e-01	   4.1902739e+00	   1.7024793e+01	   3.7964998e+00	
   4.4000000e-01	   4.3632987e+00	   1.6839389e+01	   4.1405259e+00	
   4.9500000e-01	   4.7361255e+00	   1.7137147e+01	   4.4487318e+00	
   5.5000000e-01	   5.0418427e+00	   1.7751708e+01	   4.6624356e+00	
   6.0500000e-01	   5.1136768e+00	   1.8300186e+01	   4.8182887e+00	
   6.6000000e-01	   4.9916015e+00	   1.8461034e+01	   4.9506060e+00	
   7.1500000e-01	   4.8159363e+00	   1.8223599e+01	   5.0179019e+00	
   7.7000000e-01	   4.6662110e+00	   1.7866914e+01	   4.9510279e+00	
   8.2500000e-01	   4.4959821e+00	   1.7641760e+01	   4.7088782e+00	
   8.8000000e-01	   4.2227807e+00	   1.7513740e+01	   4.2887094e+00	
   9.3500000e-01	   3.8834103e+00	   1.7306506e+01	   3.7800824e+00	
   9.9000000e-01	   3.6597563e+00	   1.7029063e+01	   3.4158960e+00	
   1.0450000e+00	   3.7125109e+00	   1.6899910e+01	   3.4625690e+00	
   1.1000000e+00	   4.0182313e+00	   1.7066482e+01	   3.9899088e+00	
   1.1550000e+00	   4.4155457e+00	   1.7458347e+01	   4.7613931e+00	
   1.2100000e+00	   4.7679005e+00	   1.7907813e+01	   5.3834674e+00	
   1.2650000e+00	   5.0141022e+00	   1.8270758e+01	   5.5777229e+00	
   1.3200000e+00	   5.1156371e+00	   1.8448720e+01	   5.3336479e+00	
   1.3750000e+00	   5.0486229e+00	   1.8420992e+01	   4.8584223e+00	
   1.4300000e+00	   4.8313660e+00	   1.8249975e+01	   4.4038971e+00	
   1.4850000e+00	   4.5089617e+00	   1.7989387e+01	   4.0927684e+00	
   1.5400000e+00	   4.1261585e+00	   1.7630519e+01	   3.8809946e+00	
   1.5950000e+00	   3.7591737e+00	   1.7223045e+01	   3.7124861e+00	
   1.6500000e+00	   3.5659232e+00	   1.7005292e+01	   3.6827515e+00	
   1.7050000e+00	   3.7107400e+00	   1.7260623e+01	   3.9485707e+00	
   1.7600000e+00	   4.1700772e+00	   1.7983693e+01	   4.4715583e+00	
   1.8150000e+00	   4.6848642e+00	   1.8785046e+01	   4.9854277e+00	
   1.8700000e+00	   4.9876691e+00	   1.9211423e+01	   5.2639681e+00	
   1.9250000e+00	   5.0288024e+00	   1.9139910e+01	   5.3143019e+00	
   1.9800000e+00	   4.9367972e+00	   1.8827034e+01	   5.2656908e+00	
   2.0350000e+00	   4.8344777e+00	   1.8606438e+01	   5.1819642e+00	
   2.0900000e+00	   4.7492537e+00	   1.8580220e+01	   5.0504233e+00	
   2.1450000e+00	   4.6375799e+00	   1.8595084e+01	   4.8501406e+00	
   2.2000000e+00	   4.4343551e+00	   1.8474780e+01	   4.5615919e+00	
   2.2550000e+00	   4.1321116e+00	   1.8237800e+01	   4.2252234e+00	
   2.3100000e+00	   3.8719139e+00	   1.8086302e+01	   4.0372004e+00	
   2.3650000e+00	   3.8847420e+00	   1.8208385e+01	   4.2239878e+00	
   2.4200000e+00	   4.2642546e+00	   1.8616446e+01	   4.7550912e+00	
   2.4750000e+00	   4.8444141e+00	   1.9171523e+01	   5.3244596e+00	
   2.5300000e+00	   5.3394128e+00	   1.9691975e+01	   5.6706686e+00	
   2.5850000e+00	   5.5621319e+00	   1.9984520e+01	   5.7988794e+00	
   2.6400000e+00	   5.5139122e+00	   1.9884350e+01	   5.8566122e+00	
   2.6950000e+00	   5.3270210e+00	   1.9425688e+01	   5.9068090e+00	
   2.7500000e+00	   5.1310122e+00	   1.8913258e+01	   5.8881607e+00	
   2.8050000e+00	   4.9482172e+00	   1.8653159e+01	   5.7431144e+00	
   2.8600000e+00	   4.7246590e+00	   1.8636120e+01	   5.5053267e+00	
   2.9150000e+00	   4.4573784e+00	   1.8627380e+01	   5.2384489e+00	
   2.9700000e+00	   4.2438850e+00	   1.8533146e+01	   4.9537923e+00	
   3.0250000e+00	   4.2005018e+00	   1.8522084e+01	   4.6716075e+00	
   3.0800000e+00	   4.3764147e+00	   1.8775984e+01	   4.5360043e+00	
   3.1350000e+00	   4.7364393e+00	   1.9241323e+01	   4.7581219e+00	
   3.1900000e+00	   5.1695586e+00	   1.9671289e+01	   5.3950331e+00	
   3.2450000e+00	   5.5213441e+00	   1.9851404e+01	   6.2174973e+00	
   3.3000000e+00	   5.6864089e+00	   1.9752722e+01	   6.8396224e+00	
   3.3550000e+00	   5.6940893e+00	   1.9520856e+01	   7.0105710e+00	
   3.4100000e+00	   5.6639863e+00	   1.9357004e+01	   6.7955525e+00	
   3.4650000e+00	   5.6560621e+00	   1.9359393e+01	   6.4687806e+00	
   3.5200000e+00	   5.5978960e+00	   1.9429456e+01	   6.2452895e+00	
   3.5750000e+00	   5.3803200e+00	   1.9355725e+01	   6.1331578e+00	
   3.6300000e+00	   4.9901319e+00	   1.9014508e+01	   6.0009926e+00	
   3.6850000e+00	   4.5297496e+00	   1.8489981e+01	   5.7468216e+00	
   3.7400000e+00	   4.1536651e+00	   1.8037473e+01	   5.4316229e+00	
   3.7950000e+00	   4.0088035e+00	   1.7948198e+01	   5.2705831e+00	
   3.8500000e+00	   4.1717895e+00	   1.8362858e+01	   5.4679221e+00	
   3.9050000e+00	   4.5861710e+00	   1.9130651e+01	   6.0345590e+00	
   3.9600000e+00	   5.0743861e+00	   1.9883490e+01	   6.7471189e+00	
   4.0150000e+00	   5.4346711e+00	   2.0325306e+01	   7.2788449e+00	
   4.0700000e+00	   5.5468009e+00	   2.0451561e+01	   7.4010865e+00	
   4.1250000e+00	   5.4306960e+00	   2.0447664e+01	   7.1060763e+00	
   4.1800000e+00	   5.2198749e+00	   2.0399020e+01	   6.5825645e+00	
   4.2350000e+00	   5.0386798e+00	   2.0176907e+01	   6.0919645e+00	
   4.2900000e+00	   4.8876089e+00	   1.9635727e+01	   5.8205010e+00	
   4.3450000e+00	   4.6713116e+00	   1.8873193e+01	   5.7760373e+00	
   4.4000000e+00	   4.3458732e+00	   1.8237310e+01	   5.8171027e+00	
   4.4550000e+00	   4.0315041e+00	   1.8083426e+01	   5.8304732e+00	
   4.5100000e+00	   3.9633355e+00	   1.8530687e+01	   5.8720238e+00	
   4.5650000e+00	   4.2873685e+00	   1.9362990e+01	   6.0787111e+00	
   4.6200000e+00	   4.8927225e+00	   2.0126258e+01	   6.4735980e+00	
   4.6750000e+00	   5.4836550e+00	   2.0451572e+01	   6.9197899e+00	
   4.7300000e+00	   5.8238260e+00	   2.0360310e+01	   7.2378026e+00	
   4.7850000e+00	   5.8867890e+00	   2.0184382e+01	   7.3277540e+00	
   4.8400000e+00	   5.7959210e+00	   2.0189190e+01	   7.2133072e+00	
   4.8950000e+00	   5.6789356e+00	   2.0354689e+01	   7.0095373e+00	
   4.9500000e+00	   5.5786219e+00	   2.0481718e+01	   6.8170044e+00	
   5.0050000e+00	   5.4460234e+00	   2.0389817e+01	   6.6094514e+00	
   5.0600000e+00	   5.2057393e+00	   2.0019825e+01	   6.2690638e+00	
   5.1150000e+00	   4.8670439e+00	   1.9475456e+01	   5.7908112e+00	
   5.1700000e+00	   4.5848177e+00	   1.9020092e+01	   5.4275603e+00	
   5.2250000e+00	   4.5717344e+00	   1.8935002e+01	   5.5378002e+00	
   5.2800000e+00	   4.9069840e+00	   1.9288943e+01	   6.2339593e+00	
   5.3350000e+00	   5.4395965e+00	   1.9878748e+01	   7.2296387e+00	
   5.3900000e+00	   5.9122385e+00	   2.0421698e+01	   8.0645923e+00	
   5.4450000e+00	   6.1702776e+00	   2.0744689e+01	   8.4340054e+00	
   5.5000000e+00	   6.2289559e+00	   2.0788838e+01	   8.3194267e+00	
   5.5550000e+00	   6.1759163e+00	   2.0560915e+01	   7.9007481e+00	
   5.6100000e+00	   6.0753189e+00	   2.0167957e+01	   7.4011143e+00	
   5.6650000e+00	   5.9633200e+00	   1.9818668e+01	   7.0011432e+00	
   5.7200000e+00	   5.8563563e+00	   1.9669429e+01	   6.7918086e+00	
   5.7750000e+00	   5.7339187e+00	   1.9687584e+01	   6.7048556e+00	
   5.8300000e+00	   5.5772269e+00	   1.9745368e+01	   6.5622533e+00	
   5.8850000e+00	   5.4377173e+00	   1.9798745e+01	   6.2933935e+00	
   5.9400000e+00	   5.4054994e+00	   1.9883755e+01	   6.0428906e+00	
   5.9950000e+00	   5.5148678e+00	   2.0009278e+01	   6.0124843e+00	
   6.0500000e+00	   5.7171638e+00	   2.0166967e+01	   6.2573839e+00	
   6.1050000e+00	   5.9132130e+00	   2.0372886e+01	   6.6661959e+00	
   6.1600000e+00	   6.0017758e+00	   2.0591437e+01	   7.0766244e+00	
   6.2150000e+00	   5.9562825e+00	   2.0712723e+01	   7.3588571e+00	
   6.2700000e+00	   5.8602308e+00	   2.0700645e+01	   7.4340679e+00	
   6.3250000e+00	   5.8087421e+00	   2.0643258e+01	   7.2915225e+00	
   6.3800000e+00	   5.7790582e+00	   2.0574949e+01	   6.9962350e+00	
   6.4350000e+00	   5.6522593e+00	   2.0376765e+01	   6.6583925e+00	
   6.4900000e+00	   5.3556713e+00	   1.9934551e+01	   6.3884637e+00	
   6.5450000e+00	   4.9417457e+00	   1.9319065e+01	   6.2475726e+00	
   6.6000000e+00	   4.5475357e+00	   1.8761621e+01	   6.2129815e+00	
   6.6550000e+00	   4.3250497e+00	   1.8497830e+01	   6.2264167e+00	
   6.7100000e+00	   4.3812017e+00	   1.8654749e+01	   6.2862586e+00	
   6.7650000e+00	   4.7092255e+00	   1.9225887e+01	   6.4323178e+00	
   6.8200000e+00	   5.1674844e+00	   2.0069019e+01	   6.6471349e+00	
   6.8750000e+00	   5.5488480e+00	   2.0848177e+01	   6.8563673e+00	
   6.9300000e+00	   5.6547427e+00	   2.0961390e+01	   7.0034998e+00	
   6.9850000e+00	   5.3303683e+00	   1.9745913e+01	   7.0270194e+00	
   7.0400000e+00	   4.5662386e+00	   1.7167648e+01	   6.8221045e+00	
   7.0950000e+00	   3.6443506e+00	   1.4420460e+01	   6.3781392e+00	
   7.1500000e+00	   3.0359543e+00	   1.3306738e+01	   5.9110528e+00	
   7.2050000e+00	   2.9876897e+00	   1.4539881e+01	   5.6752542e+00	
   7.2600000e+00	   3.3051051e+00	   1.7006687e+01	   5.6664347e+00	
   7.3150000e+00	   3.6582796e+00	   1.9019542e+01	   5.6920312e+00	
   7.3700000e+00	   3.9441222e+00	   1.9825030e+01	   5.6968442e+00	
   7.4250000e+00	   4.2352265e+00	   1.9715919e+01	   5.8193667e+00	
   7.4800000e+00	   4.5344489e+00	   1.9280462e+01	   6.1444111e+00	
   7.5350000e+00	   4.7247265e+00	   1.8897848e+01	   6.5560989e+00	
   7.5900000e+00	   4.7148785e+00	   1.8694535e+01	   6.8286877e+00	
   7.6450000e+00	   4.5452020e+00	   1.8664884e+01	   6.7886091e+00	
   7.7000000e+00	   4.3255633e+00	   1.8736769e+01	   6.4130215e+00	
   7.7550000e+00	   4.1099388e+00	   1.8764801e+01	   5.8323221e+00	
   7.8100000e+00	   3.8851304e+00	   1.8582902e+01	   5.2769280e+00	
   7.8650000e+00	   3.6697274e+00	   1.8170518e+01	   4.9955267e+00	
   7.9200000e+00	   3.5493884e+00	   1.7732151e+01	   5.1200886e+00	
   7.9750000e+00	   3.5925327e+00	   1.7522876e+01	   5.5577693e+00	
   8.0300000e+00	   3.7898042e+00	   1.7612901e+01	   6.0537050e+00	
   8.0850000e+00	   4.0906470e+00	   1.7892292e+01	   6.3812614e+00	
   8.1400000e+00	   4.4395905e+00	   1.8284701e+01	   6.4891185e+00	
   8.1950000e+00	   4.7579146e+00	   1.8827477e+01	   6.4978978e+00	
   8.2500000e+00	   4.9131838e+00	   1.9387816e+01	   6.5285291e+00	
   8.3050000e+00	   4.6963639e+00	   1.9272294e+01	   6.5075781e+00	
   8.3600000e+00	   3.8594813e+00	   1.7392836e+01	   6.1871258e+00	
   8.4150000e+00	   2.3230049e+00	   1.3270859e+01	   5.3976972e+00	
   8.4700000e+00	   4.2325898e-01	   7.9321332e+00	   4.2658635e+00	
   8.5250000e+00	  -1.1904168e+00	   3.3657402e+00	   3.1588060e+00	
   8.5800000e+00	  -2.0233899e+00	   9.3664178e-01	   2.4456874e+00	
   8.6350000e+00	  -2.0440728e+00	   5.6344577e-01	   2.3202337e+00	
   8.6900000e+00	  -1.5646639e+00	   1.2808916e+00	   2.7301438e+00	
   8.7450000e+00	  -9.7852873e-01	   2.1270924e+00	   3.3810603e+00	
   8.8000000e+00	  -6.0072987e-01	   2.5001566e+00	   3.8902346e+00	
   8.8550000e+00	  -5.7668687e-01	   2.1643317e+00	   4.0340117e+00	
   8.9100000e+00	  -8.1491739e-01	   1.3594526e+00	   3.8614541e+00	
   8.9650000e+00	  -1.0002715e+00	   9.5237697e-01	   3.5957433e+00	
   9.0200000e+00	  -7.5237717e-01	   2.1134490e+00	   3.4510957e+00	
   9.0750000e+00	   9.9764115e-02	   5.3846878e+00	   3.5103744e+00	
   9.1300000e+00	   1.3341371e+00	   9.9607013e+00	   3.7336513e+00	
   9.1850000e+00	   2.4838259e+00	   1.4152694e+01	   4.0533169e+00	
   9.2400000e+00	   3.2212505e+00	   1.6713739e+01	   4.4374106e+00	
   9.2950000e+00	   3.5677434e+00	   1.7603721e+01	   4.8682764e+00	
   9.3500000e+00	   3.7421095e+00	   1.7564205e+01	   5.2881349e+00	
   9.4050000e+00	   3.9015337e+00	   1.7316698e+01	   5.5906023e+00	
   9.4600000e+00	   4.0546954e+00	   1.7214182e+01	   5.6746353e+00	
   9.5150000e+00	   4.1358255e+00	   1.7295343e+01	   5.4996308e+00	
   9.5700000e+00	   4.0969396e+00	   1.7432634e+01	   5.0973721e+00	
   9.6250000e+00	   3.9475327e+00	   1.7482638e+01	   4.5484914e+00	
   9.6800000e+00	   3.7331216e+00	   1.7382834e+01	   3.9484943e+00	
   9.7350000e+00	   3.4906834e+00	   1.7148958e+01	   3.4031763e+00	
   9.7900000e+00	   3.2510014e+00	   1.6820202e+01	   3.0482466e+00	
   9.8450000e+00	   3.0812394e+00	   1.6418152e+01	   3.0143598e+00	
   9.9000000e+00	   3.0774564e+00	   1.5995970e+01	   3.3155044e+00	
   9.9550000e+00	   3.2936137e+00	   1.5785081e+01	   3.7874043e+00	
   1.0010000e+01	   3.7018024e+00	   1.6184156e+01	   4.2011490e+00	
   1.0065000e+01	   4.1997545e+00	   1.7326828e+01	   4.4439438e+00	
   1.0120000e+01	   4.5788582e+00	   1.8519825e+01	   4.5247041e+00	
   1.0175000e+01	   4.5067663e+00	   1.8310544e+01	   4.4134344e+00	
   1.0230000e+01	   3.7297859e+00	   1.5591313e+01	   4.0083725e+00	
   1.0285000e+01	   2.4486106e+00	   1.1065768e+01	   3.3463013e+00	
   1.0340000e+01	   1.3780962e+00	   7.4024017e+00	   2.7453673e+00	
   1.0395000e+01	   1.1792567e+00	   7.1351956e+00	   2.5832101e+00	
   1.0450000e+01	   1.8466779e+00	   1.0243789e+01	   2.9499414e+00	
   1.0505000e+01	   2.8491469e+00	   1.4412828e+01	   3.6370440e+00	
   1.0560000e+01	   3.7417138e+00	   1.7498899e+01	   4.4059328e+00	
   1.0615000e+01	   4.3545236e+00	   1.8873390e+01	   5.1024213e+00	
   1.0670000e+01	   4.4975535e+00	   1.8536978e+01	   5.5521235e+00	
   1.0725000e+01	   3.8653403e+00	   1.6119982e+01	   5.5459209e+00	
   1.0780000e+01	   2.4269702e+00	   1.1552782e+01	   5.0185231e+00	
   1.0835000e+01	   8.0155617e-01	   6.4543657e+00	   4.1905949e+00	
   1.0890000e+01	  -2.9554146e-02	   3.7751047e+00	   3.4698233e+00	
   1.0945000e+01	   4.3663439e-01	   5.2877545e+00	   3.1775060e+00	
   1.1000000e+01	   1.7485802e+00	   9.7647164e+00	   3.3460371e+00	
   1.1055000e+01	   2.9842318e+00	   1.4193928e+01	   3.7709448e+00	
   1.1110000e+01	   3.6366150e+00	   1.6573730e+01	   4.2571206e+00	
   1.1165000e+01	   3.9024569e+00	   1.7150086e+01	   4.7694478e+00	
   1.1220000e+01	   4.1992226e+00	   1.7293349e+01	   5.3216845e+00	
   1.1275000e+01	   4.6018819e+00	   1.7716463e+01	   5.8236059e+00	
   1.1330000e+01	   4.7470340e+00	   1.7687739e+01	   6.1134860e+00	
   1.1385000e+01	   4.1555927e+00	   1.5706943e+01	   6.0712176e+00	
   1.1440000e+01	   2.7093472e+00	   1.1206055e+01	   5.6889283e+00	
   1.1495000e+01	   9.6996912e-01	   5.8884459e+00	   5.1202850e+00	
   1.1550000e+01	  -6.1390403e-02	   2.9770262e+00	   4.6350614e+00	
   1.1605000e+01	   2.5329333e-01	   4.4651818e+00	   4.4203150e+00	
   1.1660000e+01	   1.6005113e+00	   9.1639905e+00	   4.4380686e+00	
   1.1715000e+01	   3.0648908e+00	   1.3934283e+01	   4.5527549e+00	
   1.1770000e+01	   4.0010684e+00	   1.6643331e+01	   4.7615566e+00	
   1.1825000e+01	   4.3726404e+00	   1.7342788e+01	   5.1731295e+00	
   1.1880000e+01	   4.3315161e+00	   1.6835194e+01	   5.7322083e+00	
   1.1935000e+01	   3.8109403e+00	   1.5101746e+01	   6.1105067e+00	
   1.1990000e+01	   2.6926065e+00	   1.1650147e+01	   6.0044365e+00	
   1.2045000e+01	   1.2015175e+00	   6.9091386e+00	   5.4824745e+00	
   1.2100000e+01	  -1.1428444e-01	   2.4489417e+00	   4.9098727e+00	
   1.2155000e+01	  -8.3807632e-01	  -3.2393767e-01	   4.5591262e+00	
   1.2210000e+01	  -1.0013279e+00	  -1.2275845e+00	   4.4050413e+00	
   1.2265000e+01	  -9.4597043e-01	  -1.0346803e+00	   4.2659839e+00	
   1.2320000e+01	  -9.8301537e-01	  -6.0549316e-01	   4.0258826e+00	
   1.2375000e+01	  -1.1818372e+00	  -3.7071472e-01	   3.7399610e+00	
   1.2430000e+01	  -1.3837340e+00	  -3.1673816e-01	   3.6173617e+00	
   1.2485000e+01	  -1.3781519e+00	  -2.4360795e-01	   3.8526825e+00	
   1.2540000e+01	  -1.1026728e+00	  -3.2742502e-02	   4.3890216e+00	
   1.2595000e+01	  -6.9739653e-01	   2.5718738e-01	   4.9114274e+00	
   1.2650000e+01	  -3.6884383e-01	   4.5783357e-01	   5.1533870e+00	
   1.2705000e+01	  -2.2658106e-01	   4.2408989e-01	   5.1503422e+00	
   1.2760000e+01	  -2.6728174e-01	   1.4480439e-01	   5.1252586e+00	
   1.2815000e+01	  -4.5883239e-01	  -2.5648112e-01	   5.1872052e+00	
   1.2870000e+01	  -7.6818462e-01	  -6.2351232e-01	   5.2248180e+00	
   1.2925000e+01	  -1.1222697e+00	  -8.5885153e-01	   5.0673836e+00	
   1.2980000e+01	  -1.3977951e+00	  -9.3792494e-01	   4.6869882e+00	
   1.3035000e+01	  -1.4672887e+00	  -8.5762822e-01	   4.2461649e+00	
   1.3090000e+01	  -1.2686279e+00	  -5.9806481e-01	   3.9872969e+00	
   1.3145000e+01	  -8.6129432e-01	  -1.8616106e-01	   4.0865529e+00	
   1.3200000e+01	  -4.1471280e-01	   2.2646239e-01	   4.5579948e+00	
   1.3255000e+01	  -1.0781144e-01	   4.4209544e-01	   5.2144964e+00	
   1.3310000e+01	  -1.8148944e-02	   3.9195002e-01	   5.7247690e+00	
   1.3365000e+01	  -1.0558227e-01	   1.8585850e-01	   5.8040175e+00	
   1.3420000e+01	  -2.9112368e-01	  -2.5283154e-02	   5.4247586e+00	
   1.3475000e+01	  -5.2494920e-01	  -2.0445143e-01	   4.8527875e+00	
   1.3530000e+01	  -7.8337060e-01	  -4.1833124e-01	   4.4437913e+00	
   1.3585000e+01	  -1.0462158e+00	  -6.9828413e-01	   4.3479855e+00	
   1.3640000e+01	  -1.2899637e+00	  -9.6874182e-01	   4.3974923e+00	
   1.3695000e+01	  -1.4660916e+00	  -1.1217843e+00	   4.3295084e+00	
   1.3750000e+01	  -1.4762695e+00	  -1.1046868e+00	   4.1333357e+00	
   1.3805000e+01	  -1.2197940e+00	  -9.0706976e-01	   4.1083071e+00	
   1.3860000e+01	  -7.1324953e-01	  -5.4127215e-01	   4.5227899e+00	
   1.3915000e+01	  -1.3775977e-01	  -9.8235494e-02	   5.2688071e+00	
   1.3970000e+01	   2.8241339e-01	   2.4924463e-01	   5.9410843e+00	
   1.4025000e+01	   4.4297584e-01	   3.7152288e-01	   6.2208479e+00	
   1.4080000e+01	   3.9123438e-01	   2.8585891e-01	   6.0840167e+00	
   1.4135000e+01	   2.4072505e-01	   1.2282375e-01	   5.6855475e+00	
   1.4190000e+01	   8.8205998e-02	   2.2146991e-02	   5.1961316e+00	
   1.4245000e+01	  -3.3344792e-02	   4.2600529e-02	   4.7608365e+00	
   1.4300000e+01	  -1.8068303e-01	   1.0626679e-01	   4.4654666e+00	
   1.4355000e+01	  -4.5213440e-01	   3.8989237e-02	   4.2687646e+00	
   1.4410000e+01	  -8.4975788e-01	  -2.4748007e-01	   4.0485407e+00	
   1.4465000e+01	  -1.1980197e+00	  -5.9930582e-01	   3.7771398e+00	
   1.4520000e+01	  -1.2585587e+00	  -7.2525431e-01	   3.6097869e+00	
   1.4575000e+01	  -9.4853586e-01	  -4.8936359e-01	   3.7521587e+00	
   1.4630000e+01	  -4.2071949e-01	  -5.7757055e-02	   4.2518276e+00	
   1.4685000e+01	   8.1585869e-02	   2.6368099e-01	   4.9427104e+00	
   1.4740000e+01	   4.1593500e-01	   3.2201914e-01	   5.5692255e+00	
   1.4795000e+01	   5.8621187e-01	   2.4738171e-01	   5.9455985e+00	
   1.4850000e+01	   6.6384158e-01	   2.9592781e-01	   6.0494083e+00	
   1.4905000e+01	   7.0778183e-01	   5.7227082e-01	   6.0001244e+00	
   1.4960000e+01	   7.2909324e-01	   9.3348189e-01	   5.9177313e+00	
   1.5015000e+01	   6.8731108e-01	   1.1599079e+00	   5.7996835e+00	
   1.5070000e+01	   5.2235079e-01	   1.1632814e+00	   5.5595589e+00	
   1.5125000e+01	   2.1960898e-01	   1.0118024e+00	   5.1590909e+00	
   1.5180000e+01	  -1.4965903e-01	   8.1155403e-01	   4.6722007e+00	
   1.5235000e+01	  -4.5851601e-01	   6.1671165e-01	   4.2454084e+00	
   1.5290000e+01	  -5.7464723e-01	   4.6622101e-01	   4.0191026e+00	
   1.5345000e+01	  -3.9754247e-01	   4.7327515e-01	   4.0651281e+00	
   1.5400000e+01	   5.8973881e-02	   7.7298804e-01	   4.3598038e+00	
   1.5455000e+01	   5.9576670e-01	   1.3204491e+00	   4.7898141e+00	
   1.5510000e+01	   9.5004132e-01	   1.8494912e+00	   5.1990733e+00	
   1.5565000e+01	   1.0361552e+00	   2.1296704e+00	   5.4669120e+00	
   1.5620000e+01	   9.8456170e-01	   2.1772781e+00	   5.5580319e+00	
   1.5675000e+01	   9.3661614e-01	   2.1412485e+00	   5.5191462e+00	
   1.5730000e+01	   9.0422481e-01	   2.0876437e+00	   5.4464618e+00	
   1.5785000e+01	   8.3275397e-01	   1.9829299e+00	   5.4109237e+00	
   1.5840000e+01	   6.8343374e-01	   1.8028397e+00	   5.3675857e+00	
   1.5895000e+01	   4.2118596e-01	   1.5604698e+00	   5.1816484e+00	
   1.5950000e+01	   1.6037729e-02	   1.2638617e+00	   4.7814753e+00	
   1.6005000e+01	  -4.8382014e-01	   9.2152982e-01	   4.2381338e+00	
   1.6060000e+01	  -9.1741263e-01	   5.9206840e-01	   3.6998954e+00	
   1.6115000e+01	  -1.0893303e+00	   3.8977494e-01	   3.3417366e+00	
   1.6170000e+01	  -8.9911830e-01	   4.2410342e-01	   3.3476203e+00	
   1.6225000e+01	  -4.2753579e-01	   7.1302785e-01	   3.7732844e+00	
   1.6280000e+01	   8.9890836e-02	   1.1220790e+00	   4.3997646e+00	
   1.6335000e+01	   4.1818330e-01	   1.4270110e+00	   4.8682785e+00	
   1.6390000e+01	   4.9169277e-01	   1.5186664e+00	   5.0006559e+00	
   1.6445000e+01	   4.1766158e-01	   1.5092447e+00	   4.9055938e+00	
   1.6500000e+01	   3.1683133e-01	   1.5414460e+00	   4.7848090e+00	
   1.6555000e+01	   2.0706550e-01	   1.5489573e+00	   4.7129935e+00	
   1.6610000e+01	   4.2819558e-02	   1.3327507e+00	   4.5997773e+00	
   1.6665000e+01	  -1.9259459e-01	   8.5015012e-01	   4.3186293e+00	
   1.6720000e+01	  -4.6021814e-01	   3.1595123e-01	   3.8658088e+00	
   1.6775000e+01	  -6.8834822e-01	   3.0062747e-02	   3.4252034e+00	
   1.6830000e+01	  -7.7952586e-01	   1.9432005e-01	   3.2964485e+00	
   1.6885000e+01	  -6.3260385e-01	   8.2972038e-01	   3.6874337e+00	
   1.6940000e+01	  -2.3742382e-01	   1.7073645e+00	   4.4828162e+00	
   1.6995000e+01	   2.5461277e-01	   2.3967164e+00	   5.2535251e+00	
   1.7050000e+01	   6.1640580e-01	   2.5667806e+00	   5.5848248e+00	
   1.7105000e+01	   7.1132615e-01	   2.2622224e+00	   5.3910856e+00	
   1.7160000e+01	   5.5935154e-01	   1.7937360e+00	   4.8986834e+00	
   1.7215000e+01	   2.7423138e-01	   1.4125346e+00	   4.4007247e+00	
   1.7270000e+01	  -2.7380880e-02	   1.1831485e+00	   4.0722371e+00	
   1.7325000e+01	  -2.9170647e-01	   1.0597489e+00	   3.9274208e+00	
   1.7380000e+01	  -5.6268881e-01	   9.1993867e-01	   3.8422486e+00	
   1.7435000e+01	  -9.3188262e-01	   5.8977274e-01	   3.6442780e+00	
   1.7490000e+01	  -1.3927303e+00	   3.4739174e-02	   3.2970665e+00	
   1.7545000e+01	  -1.7539700e+00	  -4.5942443e-01	   3.0109115e+00	
   1.7600000e+01	  -1.7685617e+00	  -4.7381730e-01	   3.0626424e+00	
   1.7655000e+01	  -1.3740085e+00	   1.1045634e-01	   3.4930595e+00	
   1.7710000e+01	  -7.6020482e-01	   9.7652487e-01	   4.0903262e+00	
   1.7765000e+01	  -1.8930079e-01	   1.6824830e+00	   4.6436407e+00	
   1.7820000e+01	   1.9278318e-01	   1.9926928e+00	   5.0613036e+00	
   1.7875000e+01	   3.6756709e-01	   1.9238360e+00	   5.2673975e+00	
   1.7930000e+01	   3.6634705e-01	   1.6271963e+00	   5.1808328e+00	
   1.7985000e+01	   2.3032658e-01	   1.2816372e+00	   4.8469176e+00	
   1.8040000e+01	   1.2398639e-03	   1.0150669e+00	   4.4498630e+00	
   1.8095000e+01	  -2.7951656e-01	   8.5282678e-01	   4.1301237e+00	
   1.8150000e+01	  -5.5922127e-01	   7.2795507e-01	   3.8766176e+00	
   1.8205000e+01	  -7.9052796e-01	   5.4616282e-01	   3.6299647e+00	
   1.8260000e+01	  -9.8572589e-01	   2.6284967e-01	   3.3875446e+00	
   1.8315000e+01	  -1.2147884e+00	  -5.9780639e-02	   3.1754567e+00	
   1.8370000e+01	  -1.4985378e+00	  -2.7369907e-01	   3.0308407e+00	
   1.8425000e+01	  -1.7210492e+00	  -2.6515359e-01	   3.0458340e+00	
   1.8480000e+01	  -1.7095983e+00	  -5.2838562e-02	   3.3158602e+00	
   1.8535000e+01	  -1.4127342e+00	   2.5542167e-01	   3.7971606e+00	
   1.8590000e+01	  -9.5154130e-01	   5.9113098e-01	   4.2928554e+00	
   1.8645000e+01	  -4.9936873e-01	   9.6991667e-01	   4.6149970e+00	
   1.8700000e+01	  -1.7006253e-01	   1.3855912e+00	   4.7236262e+00	
   1.8755000e+01	  -8.3036620e-03	   1.7176405e+00	   4.7146996e+00	
   1.8810000e+01	  -1.4060848e-02	   1.8142024e+00	   4.7105429e+00	
   1.8865000e+01	  -1.5816055e-01	   1.6317774e+00	   4.7442531e+00	
   1.8920000e+01	  -3.9836929e-01	   1.2535436e+00	   4.7212046e+00	
   1.8975000e+01	  -6.9335272e-01	   8.2300832e-01	   4.5086389e+00	
   1.9030000e+01	  -1.0175402e+00	   4.7635455e-01	   4.0706513e+00	
   1.9085000e+01	  -1.3666527e+00	   2.8051566e-01	   3.5152822e+00	
   1.9140000e+01	  -1.7181578e+00	   2.1700690e-01	   3.0355414e+00	
   1.9195000e+01	  -1.9761382e+00	   2.3729593e-01	   2.8026130e+00	
   1.9250000e+01	  -1.9950589e+00	   3.1695483e-01	   2.8887069e+00	
   1.9305000e+01	  -1.6996169e+00	   4.4898252e-01	   3.2709029e+00	
   1.9360000e+01	  -1.1858689e+00	   6.2149788e-01	   3.8514446e+00	
   1.9415000e+01	  -6.7931830e-01	   8.3096635e-01	   4.4499277e+00	
   1.9470000e+01	  -3.7750282e-01	   1.0787823e+00	   4.8572347e+00	
   1.9525000e+01	  -3.4051014e-01	   1.3103245e+00	   4.9517889e+00	
   1.9580000e+01	  -5.1868012e-01	   1.3936200e+00	   4.7436542e+00	
   1.9635000e+01	  -8.2913377e-01	   1.2236124e+00	   4.3353881e+00	
   1.9690000e+01	  -1.1816780e+00	   8.5866042e-01	   3.8881980e+00	
   1.9745000e+01	  -1.4971669e+00	   5.0295040e-01	   3.5674897e+00	
   1.9800000e+01	  -1.7673773e+00	   3.0113687e-01	   3.4197962e+00	
   1.9855000e+01	  -2.0510259e+00	   1.8856160e-01	   3.3077991e+00	
   1.9910000e+01	  -2.3347073e+00	   3.7829158e-02	   3.0609329e+00	
   1.9965000e+01	  -2.4409916e+00	  -8.3286144e-02	   2.7203161e+00	
   2.0020000e+01	  -2.1821996e+00	   3.7674972e-02	   2.5595716e+00	
   2.0075000e+01	  -1.6082986e+00	   4.4723140e-01	   2.8150669e+00	
   2.0130000e+01	  -1.0048692e+00	   9.3942841e-01	   3.4340172e+00	
   2.0185000e+01	  -6.2056644e-01	   1.2883308e+00	   4.1146206e+00	
   2.0240000e+01	  -4.8227498e-01	   1.4139163e+00	   4.5553177e+00	
   2.0295000e+01	  -4.9702618e-01	   1.3361226e+00	   4.6400011e+00	
   2.0350000e+01	  -6.1660850e-01	   1.1257863e+00	   4.4377906e+00	
   2.0405000e+01	  -8.3320491e-01	   8.9850344e-01	   4.1060288e+00	
   2.0460000e+01	  -1.1040098e+00	   7.3028032e-01	   3.7938335e+00	
   2.0515000e+01	  -1.3701860e+00	   5.8914844e-01	   3.5652822e+00	
   2.0570000e+01	  -1.6062742e+00	   4.2215560e-01	   3.3760493e+00	
   2.0625000e+01	  -1.7772038e+00	   2.6253118e-01	   3.1608247e+00	
   2.0680000e+01	  -1.7825877e+00	   1.9268227e-01	   2.9726439e+00	
   2.0735000e+01	  -1.5377856e+00	   2.3663893e-01	   2.9828911e+00	
   2.0790000e+01	  -1.1122401e+00	   3.3676724e-01	   3.2896554e+00	
   2.0845000e+01	  -7.0519485e-01	   4.2811256e-01	   3.7689334e+00	
   2.0900000e+01	  -4.6698190e-01	   4.9507068e-01	   4.1711448e+00	
   2.0955000e+01	  -4.0092300e-01	   5.4557849e-01	   4.3434807e+00	
   2.1010000e+01	  -4.2931526e-01	   5.7329073e-01	   4.3231947e+00	
   2.1065000e+01	  -4.7698409e-01	   5.7353293e-01	   4.2337415e+00	
   2.1120000e+01	  -5.0121027e-01	   5.4100201e-01	   4.1412905e+00	
   2.1175000e+01	  -5.3233508e-01	   4.1468791e-01	   4.0248681e+00	
   2.1230000e+01	  -6.8153997e-01	   1.1560474e-01	   3.8402533e+00	
   2.1285000e+01	  -1.0174636e+00	  -3.0283082e-01	   3.5815262e+00	
   2.1340000e+01	  -1.4318363e+00	  -6.3121210e-01	   3.3014418e+00	
   2.1395000e+01	  -1.6901548e+00	  -6.8366149e-01	   3.1071181e+00	
   2.1450000e+01	  -1.6174176e+00	  -4.4012035e-01	   3.1371979e+00	
   2.1505000e+01	  -1.2305806e+00	  -8.0296829e-03	   3.4695511e+00	
   2.1560000e+01	  -7.2877215e-01	   4.7383952e-01	   3.9802210e+00	
   2.1615000e+01	  -3.5414509e-01	   8.8586387e-01	   4.3568507e+00	
   2.1670000e+01	  -2.2385495e-01	   1.1443391e+00	   4.3622455e+00	
   2.1725000e+01	  -2.8588886e-01	   1.1958100e+00	   4.0718917e+00	
   2.1780000e+01	  -4.3098465e-01	   1.0201833e+00	   3.7755526e+00	
   2.1835000e+01	  -6.1418443e-01	   6.6028122e-01	   3.6648395e+00	
   2.1890000e+01	  -8.4995754e-01	   2.1647858e-01	   3.6871783e+00	
   2.1945000e+01	  -1.1266526e+00	  -2.0701574e-01	   3.6604432e+00	
   2.2000000e+01	  -1.3824533e+00	  -5.3817516e-01	   3.4365692e+00	
   2.2055000e+01	  -1.5607468e+00	  -7.4049978e-01	   3.0135591e+00	
   2.2110000e+01	  -1.6268704e+00	  -7.9976854e-01	   2.6100857e+00	
   2.2165000e+01	  -1.5269198e+00	  -6.9065689e-01	   2.5821394e+00	
   2.2220000e+01	  -1.2135166e+00	  -3.7912911e-01	   3.1111942e+00	
   2.2275000e+01	  -7.4930068e-01	   9.0996066e-02	   3.9424303e+00	
   2.2330000e+01	  -3.2229559e-01	   5.4811551e-01	   4.5456099e+00	
   2.2385000e+01	  -1.0602265e-01	   8.0240724e-01	   4.6080323e+00	
   2.2440000e+01	  -1.2504911e-01	   7.9894148e-01	   4.3065070e+00	
   2.2495000e+01	  -2.8142732e-01	   6.4127447e-01	   4.0488186e+00	
   2.2550000e+01	  -4.7342123e-01	   4.9621303e-01	   4.0490551e+00	
   2.2605000e+01	  -6.5123969e-01	   4.7219418e-01	   4.2232925e+00	
   2.2660000e+01	  -8.1023517e-01	   5.3248235e-01	   4.3568365e+00	
   2.2715000e+01	  -9.9092493e-01	   5.1949902e-01	   4.2551132e+00	
   2.2770000e+01	  -1.2375511e+00	   3.2199588e-01	   3.8571892e+00	
   2.2825000e+01	  -1.4957705e+00	   4.6361875e-02	   3.3403054e+00	
   2.2880000e+01	  -1.6043407e+00	  -3.4823187e-02	   3.0546456e+00	
   2.2935000e+01	  -1.4565440e+00	   2.2924608e-01	   3.2416175e+00	
   2.2990000e+01	  -1.1255889e+00	   6.7902081e-01	   3.8127239e+00	
   2.3045000e+01	  -7.7503577e-01	   1.0064649e+00	   4.4511373e+00	
   2.3100000e+01	  -5.1228623e-01	   1.0259977e+00	   4.8928029e+00	
   2.3155000e+01	  -3.8350242e-01	   7.4943630e-01	   5.0596875e+00	
   2.3210000e+01	  -4.1270579e-01	   3.3533424e-01	   4.9957567e+00	
   2.3265000e+01	  -5.6755211e-01	   2.1783873e-02	   4.7726524e+00	
   2.3320000e+01	  -7.5735591e-01	  -1.7053776e-02	   4.4466792e+00	
   2.3375000e+01	  -9.2096893e-01	   1.8077512e-01	   4.0626655e+00	
   2.3430000e+01	  -1.0773259e+00	   3.9703025e-01	   3.6894169e+00	
   2.3485000e+01	  -1.2768396e+00	   4.1746338e-01	   3.4160419e+00	
   2.3540000e+01	  -1.5475513e+00	   1.8004729e-01	   3.2540624e+00	
   2.3595000e+01	  -1.8817234e+00	  -1.9296758e-01	   3.0712768e+00	
   2.3650000e+01	  -2.2013970e+00	  -4.6801067e-01	   2.7477466e+00	
   2.3705000e+01	  -2.3311908e+00	  -4.6420775e-01	   2.4335753e+00	
   2.3760000e+01	  -2.1092733e+00	  -2.0837965e-01	   2.5063518e+00	
   2.3815000e+01	  -1.5857845e+00	   8.3796456e-02	   3.1562921e+00	
   2.3870000e+01	  -1.0414382e+00	   2.2124939e-01	   4.0982539e+00	
   2.3925000e+01	  -7.4412236e-01	   2.3369325e-01	   4.8047433e+00	
   2.3980000e+01	  -7.2924979e-01	   3.0765170e-01	   4.9650746e+00	
   2.4035000e+01	  -8.5250704e-01	   5.1279840e-01	   4.6519199e+00	
   2.4090000e+01	  -9.8104518e-01	   6.8043135e-01	   4.1587177e+00	
   2.4145000e+01	  -1.0718998e+00	   6.2368189e-01	   3.7758965e+00	
   2.4200000e+01	  -1.1384585e+00	   3.7652223e-01	   3.6253682e+00	
   2.4255000e+01	  -1.2304513e+00	   9.7432370e-02	   3.6158862e+00	
   2.4310000e+01	  -1.4179060e+00	  -1.6066744e-01	   3.5818161e+00	
   2.4365000e+01	  -1.7351746e+00	  -4.4519106e-01	   3.4545011e+00	
   2.4420000e+01	  -2.1398456e+00	  -7.6212985e-01	   3.2600272e+00	
   2.4475000e+01	  -2.5199279e+00	  -1.0513263e+00	   3.0269362e+00	
   2.4530000e+01	  -2.7246959e+00	  -1.2056521e+00	   2.8014867e+00	
   2.4585000e+01	  -2.6394787e+00	  -1.0628767e+00	   2.6966381e+00	
   2.4640000e+01	  -2.2976673e+00	  -5.3506727e-01	   2.8044573e+00	
   2.4695000e+01	  -1.8947243e+00	   1.9632155e-01	   3.0814661e+00	
   2.4750000e+01	  -1.6281903e+00	   7.6886911e-01	   3.4020628e+00	
   2.4805000e+01	  -1.5360844e+00	   9.7061616e-01	   3.6930287e+00	
   2.4860000e+01	  -1.5358689e+00	   8.7422417e-01	   3.9330651e+00	
   2.4915000e+01	  -1.5826557e+00	   6.5338227e-01	   4.0530792e+00	
   2.4970000e+01	  -1.7100689e+00	   4.0562391e-01	   3.9591128e+00	
   2.5025000e+01	  -1.9314838e+00	   1.7636238e-01	   3.6603864e+00	
   2.5080000e+01	  -2.1927985e+00	   1.1257426e-02	   3.2618199e+00	
   2.5135000e+01	  -2.4427519e+00	  -9.6200781e-02	   2.8323811e+00	
   2.5190000e+01	  -2.6732527e+00	  -2.1051376e-01	   2.3993055e+00	
   2.5245000e+01	  -2.8509027e+00	  -3.4079611e-01	   2.0758708e+00	
   2.5300000e+01	  -2.8779627e+00	  -3.9976046e-01	   2.0689537e+00	
   2.5355000e+01	  -2.6888361e+00	  -3.1479589e-01	   2.4804832e+00	
   2.5410000e+01	  -2.3510861e+00	  -1.1434474e-01	   3.1381929e+00	
   2.5465000e+01	  -2.0172726e+00	   1.1804626e-01	   3.7060472e+00	
   2.5520000e+01	  -1.7974706e+00	   3.2046685e-01	   3.9805119e+00	
   2.5575000e+01	  -1.7114385e+00	   4.5625258e-01	   4.0216605e+00	
   2.5630000e+01	  -1.7325962e+00	   4.8102902e-01	   3.9897746e+00	
   2.5685000e+01	  -1.8325792e+00	   3.5351796e-01	   3.9379790e+00	
   2.5740000e+01	  -1.9990539e+00	   7.3050597e-02	   3.7965030e+00	
   2.5795000e+01	  -2.2439142e+00	  -3.2027133e-01	   3.4896523e+00	
   2.5850000e+01	  -2.5682491e+00	  -7.4955380e-01	   3.0282111e+00	
   2.5905000e+01	  -2.8781981e+00	  -1.0684184e+00	   2.5381362e+00	
   2.5960000e+01	  -2.9704212e+00	  -1.1060265e+00	   2.2231215e+00	
   2.6015000e+01	  -2.6840666e+00	  -8.3642958e-01	   2.2330090e+00	
   2.6070000e+01	  -2.0907192e+00	  -4.3902183e-01	   2.5262205e+00	
   2.6125000e+01	  -1.4797270e+00	  -1.1058462e-01	   2.9041304e+00	
   2.6180000e+01	  -1.1204786e+00	   1.2548246e-01	   3.2043563e+00	
   2.6235000e+01	  -1.0662048e+00	   3.6439403e-01	   3.4214284e+00	
   2.6290000e+01	  -1.1880811e+00	   6.2493011e-01	   3.6290684e+00	
   2.6345000e+01	  -1.3296436e+00	   7.8789967e-01	   3.8393690e+00	
   2.6400000e+01	  -1.4081890e+00	   7.4356086e-01	   3.9725763e+00	
   2.6455000e+01	  -1.4355034e+00	   5.3238199e-01	   3.9302596e+00	
   2.6510000e+01	  -1.4770676e+00	   2.8966661e-01	   3.6788400e+00	
   2.6565000e+01	  -1.5795953e+00	   9.5277368e-02	   3.3002355e+00	
   2.6620000e+01	  -1.7522611e+00	  -8.3891102e-02	   2.9540620e+00	
   2.6675000e+01	  -2.0009144e+00	  -3.3511070e-01	   2.7365906e+00	
   2.6730000e+01	  -2.2956319e+00	  -6.8824859e-01	   2.6048980e+00	
   2.6785000e+01	  -2.4886141e+00	  -1.0141021e+00	   2.5091958e+00	
   2.6840000e+01	  -2.3726524e+00	  -1.0601665e+00	   2.5458210e+00	
   2.6895000e+01	  -1.8994906e+00	  -6.8285084e-01	   2.8492403e+00	
   2.6950000e+01	  -1.2801314e+00	  -3.0317601e-02	   3.3477584e+00	
   2.7005000e+01	  -7.9287387e-01	   5.8980001e-01	   3.7685851e+00	
   2.7060000e+01	  -5.4403608e-01	   9.7066582e-01	   3.9113493e+00	
   2.7115000e+01	  -4.8042902e-01	   1.0569291e+00	   3.8254829e+00	
   2.7170000e+01	  -5.4167891e-01	   8.7502866e-01	   3.7066762e+00	
   2.7225000e+01	  -6.9374289e-01	   5.4848204e-01	   3.6799234e+00	
   2.7280000e+01	  -8.8953487e-01	   2.5657759e-01	   3.6968040e+00	
   2.7335000e+01	  -1.0996510e+00	   6.9843281e-02	   3.6302121e+00	
   2.7390000e+01	  -1.3401412e+00	  -9.5406030e-02	   3.4495931e+00	
   2.7445000e+01	  -1.6254831e+00	  -3.5490006e-01	   3.2384670e+00	
   2.7500000e+01	  -1.9434177e+00	  -7.6207259e-01	   3.0237580e+00	
   2.7555000e+01	  -2.2887457e+00	  -1.2753735e+00	   2.7107117e+00	
   2.7610000e+01	  -2.6496100e+00	  -1.7124753e+00	   2.2813699e+00	
   2.7665000e+01	  -2.9296725e+00	  -1.7855981e+00	   1.9604712e+00	
   2.7720000e+01	  -2.9620404e+00	  -1.3408736e+00	   2.0345786e+00	
   2.7775000e+01	  -2.6728402e+00	  -5.8352198e-01	   2.5114025e+00	
   2.7830000e+01	  -2.1974750e+00	   7.3758215e-02	   3.0747794e+00	
   2.7885000e+01	  -1.7836847e+00	   3.9887738e-01	   3.4224614e+00	
   2.7940000e+01	  -1.5907449e+00	   4.5641854e-01	   3.5649899e+00	
   2.7995000e+01	  -1.5918489e+00	   3.8581951e-01	   3.7023896e+00	
   2.8050000e+01	  -1.6506460e+00	   2.3570272e-01	   3.8766239e+00	
   2.8105000e+01	  -1.6772562e+00	   1.4220850e-02	   3.8997390e+00	
   2.8160000e+01	  -1.7008538e+00	  -2.4528699e-01	   3.6079906e+00	
   2.8215000e+01	  -1.8020881e+00	  -5.1801603e-01	   3.0714323e+00	
   2.8270000e+01	  -2.0104649e+00	  -8.0435343e-01	   2.5832993e+00	
   2.8325000e+01	  -2.2850223e+00	  -1.0738974e+00	   2.4671532e+00	
   2.8380000e+01	  -2.5817603e+00	  -1.2664907e+00	   2.7758009e+00	
   2.8435000e+01	  -2.8943420e+00	  -1.3841593e+00	   3.1803176e+00	
   2.8490000e+01	  -3.1825120e+00	  -1.4914157e+00	   3.2994833e+00	
   2.8545000e+01	  -3.3041899e+00	  -1.5681369e+00	   3.1252388e+00	
   2.8600000e+01	  -3.1168489e+00	  -1.4634975e+00	   2.9963138e+00	
   2.8655000e+01	  -2.6517964e+00	  -1.0839869e+00	   3.1894959e+00	
   2.8710000e+01	  -2.1146806e+00	  -5.4599657e-01	   3.6667693e+00	
   2.8765000e+01	  -1.7048084e+00	  -6.8905505e-02	   4.1894900e+00	
   2.8820000e+01	  -1.4902130e+00	   2.0368470e-01	   4.5421856e+00	
   2.8875000e+01	  -1.4484681e+00	   2.2530952e-01	   4.6436475e+00	
   2.8930000e+01	  -1.5399583e+00	   3.9759899e-04	   4.5520851e+00	
   2.8985000e+01	  -1.7117528e+00	  -3.7466293e-01	   4.3953575e+00	
   2.9040000e+01	  -1.8968012e+00	  -6.9425427e-01	   4.2563420e+00	
   2.9095000e+01	  -2.0583136e+00	  -8.0518891e-01	   4.1228377e+00	
   2.9150000e+01	  -2.2193031e+00	  -7.6857229e-01	   3.9419921e+00	
   2.9205000e+01	  -2.4303683e+00	  -7.5691338e-01	   3.6811383e+00	
   2.9260000e+01	  -2.7068510e+00	  -8.2668635e-01	   3.3395323e+00	
   2.9315000e+01	  -2.9849255e+00	  -8.8358037e-01	   2.9598715e+00	
   2.9370000e+01	  -3.1311294e+00	  -8.1131292e-01	   2.6668286e+00	
   2.9425000e+01	  -3.0258107e+00	  -5.6831816e-01	   2.6511580e+00	
   2.9480000e+01	  -2.6846337e+00	  -2.4933389e-01	   3.0141614e+00	
   2.9535000e+01	  -2.2951018e+00	  -8.8606430e-02	   3.6020163e+00	
   2.9590000e+01	  -2.0792842e+00	  -2.6740037e-01	   4.0828425e+00	
   2.9645000e+01	  -2.1003585e+00	  -6.7073495e-01	   4.2346064e+00	
   2.9700000e+01	  -2.2383963e+00	  -9.7769406e-01	   4.1029716e+00	
   2.9755000e+01	  -2.3510206e+00	  -1.0431424e+00	   3.8744388e+00	
   2.9810000e+01	  -2.3990357e+00	  -1.0287404e+00	   3.6884866e+00	
   2.9865000e+01	  -2.4289881e+00	  -1.0963634e+00	   3.5835773e+00	
   2.9920000e+01	  -2.5212478e+00	  -1.1721463e+00	   3.5100246e+00	
   2.9975000e+01	  -2.7521255e+00	  -1.1276133e+00	   3.3524996e+00	
   3.0030000e+01	  -3.1077610e+00	  -1.0144232e+00	   3.0357657e+00	
   3.0085000e+01	  -3.4106828e+00	  -9.7330848e-01	   2.6722528e+00	
   3.0140000e+01	  -3.4159475e+00	  -1.0115414e+00	   2.5508204e+00	
   3.0195000e+01	  -3.0427229e+00	  -9.9217941e-01	   2.8992306e+00	
   3.0250000e+01	  -2.4803393e+00	  -8.2067375e-01	   3.6306977e+00	
   3.0305000e+01	  -2.0225251e+00	  -5.7096471e-01	   4.3525041e+00	
   3.0360000e+01	  -1.8251241e+00	  -4.1286117e-01	   4.6714413e+00	
   3.0415000e+01	  -1.8529716e+00	  -4.4946005e-01	   4.5028122e+00	
   3.0470000e+01	  -1.9979913e+00	  -6.4033599e-01	   4.0781521e+00	
   3.0525000e+01	  -2.1707748e+00	  -8.5046270e-01	   3.7045264e+00	
   3.0580000e+01	  -2.3042680e+00	  -9.5340406e-01	   3.5451371e+00	
   3.0635000e+01	  -2.3725342e+00	  -9.3377223e-01	   3.5536816e+00	
   3.0690000e+01	  -2.4505571e+00	  -9.2288981e-01	   3.5556275e+00	
   3.0745000e+01	  -2.6789661e+00	  -1.0738823e+00	   3.4136238e+00	
   3.0800000e+01	  -3.0944538e+00	  -1.3750448e+00	   3.1385136e+00	
   3.0855000e+01	  -3.5272120e+00	  -1.6525292e+00	   2.8612941e+00	
   3.0910000e+01	  -3.7165968e+00	  -1.7316208e+00	   2.7379697e+00	
   3.0965000e+01	  -3.5235087e+00	  -1.5170163e+00	   2.8744209e+00	
   3.1020000e+01	  -3.0346714e+00	  -1.0201729e+00	   3.2714174e+00	
   3.1075000e+01	  -2.4908378e+00	  -4.3989743e-01	   3.8012371e+00	
   3.1130000e+01	  -2.1143888e+00	  -9.8027385e-02	   4.2677214e+00	
   3.1185000e+01	  -1.9751288e+00	  -1.4327986e-01	   4.5267952e+00	
   3.1240000e+01	  -1.9949245e+00	  -4.0164454e-01	   4.5629740e+00	
   3.1295000e+01	  -2.0648984e+00	  -6.1475337e-01	   4.4583610e+00	
   3.1350000e+01	  -2.1386898e+00	  -7.1887225e-01	   4.3059435e+00	
   3.1405000e+01	  -2.2115956e+00	  -8.1235681e-01	   4.1589902e+00	
   3.1460000e+01	  -2.2697347e+00	  -9.7266098e-01	   4.0241295e+00	
   3.1515000e+01	  -2.3257979e+00	  -1.2065122e+00	   3.8663578e+00	
   3.1570000e+01	  -2.4636506e+00	  -1.5010683e+00	   3.6392497e+00	
   3.1625000e+01	  -2.7573621e+00	  -1.8183057e+00	   3.3337225e+00	
   3.1680000e+01	  -3.1580407e+00	  -2.0516644e+00	   2.9886469e+00	
   3.1735000e+01	  -3.5160014e+00	  -2.0772656e+00	   2.6588317e+00	
   3.1790000e+01	  -3.6844238e+00	  -1.8819462e+00	   2.4285754e+00	
   3.1845000e+01	  -3.5768665e+00	  -1.5684510e+00	   2.4710601e+00	
   3.1900000e+01	  -3.1942175e+00	  -1.2045724e+00	   2.9673344e+00	
   3.1955000e+01	  -2.6447191e+00	  -7.7160261e-01	   3.8556066e+00	
   3.2010000e+01	  -2.1004091e+00	  -3.0341137e-01	   4.7412474e+00	
   3.2065000e+01	  -1.7012150e+00	   4.2481512e-02	   5.1838163e+00	
   3.2120000e+01	  -1.5028098e+00	   1.1652036e-01	   5.0790038e+00	
   3.2175000e+01	  -1.4951903e+00	  -8.4262581e-02	   4.7008790e+00	
   3.2230000e+01	  -1.6267631e+00	  -4.1638028e-01	   4.3767134e+00	
   3.2285000e+01	  -1.8098544e+00	  -6.7644382e-01	   4.2064080e+00	
   3.2340000e+01	  -1.9600675e+00	  -7.2573383e-01	   4.1117326e+00	
   3.2395000e+01	  -2.0664005e+00	  -5.9107900e-01	   4.0273241e+00	
   3.2450000e+01	  -2.1949579e+00	  -4.1891896e-01	   3.9673123e+00	
   3.2505000e+01	  -2.3990400e+00	  -3.2421993e-01	   3.9778975e+00	
   3.2560000e+01	  -2.6596030e+00	  -3.6122760e-01	   4.0624891e+00	
   3.2615000e+01	  -2.9383592e+00	  -6.2749918e-01	   4.1138649e+00	
   3.2670000e+01	  -3.2215013e+00	  -1.2006482e+00	   3.9619276e+00	
   3.2725000e+01	  -3.4441265e+00	  -1.8652853e+00	   3.5848682e+00	
   3.2780000e+01	  -3.4432423e+00	  -2.0996239e+00	   3.2386366e+00	
   3.2835000e+01	  -3.1002706e+00	  -1.5618712e+00	   3.2498080e+00	
   3.2890000e+01	  -2.5132060e+00	  -5.2168782e-01	   3.6758959e+00	
   3.2945000e+01	  -1.9417875e+00	   3.7633130e-01	   4.2682584e+00	
   3.3000000e+01	  -1.5869799e+00	   7.3507948e-01	   4.7421548e+00	
   3.3055000e+01	  -1.4813090e+00	   6.3764912e-01	   4.9578844e+00	
   3.3110000e+01	  -1.5601333e+00	   3.4141981e-01	   4.8822399e+00	
   3.3165000e+01	  -1.7408236e+00	  -9.7962605e-03	   4.5646087e+00	
   3.3220000e+01	  -1.9371282e+00	  -3.3922871e-01	   4.1800249e+00	
   3.3275000e+01	  -2.0940858e+00	  -5.3820594e-01	   3.9459817e+00	
   3.3330000e+01	  -2.2259547e+00	  -5.4691151e-01	   3.9288127e+00	
   3.3385000e+01	  -2.3704254e+00	  -4.5110934e-01	   3.9848571e+00	
   3.3440000e+01	  -2.5336703e+00	  -4.4109109e-01	   3.9213050e+00	
   3.3495000e+01	  -2.7313057e+00	  -6.8405461e-01	   3.6866309e+00	
   3.3550000e+01	  -3.0173938e+00	  -1.1781679e+00	   3.3930527e+00	
   3.3605000e+01	  -3.3721644e+00	  -1.6755671e+00	   3.2050875e+00	
   3.3660000e+01	  -3.6005520e+00	  -1.8144508e+00	   3.2431625e+00	
   3.3715000e+01	  -3.4683220e+00	  -1.4271601e+00	   3.5339219e+00	
   3.3770000e+01	  -2.9624392e+00	  -7.1670533e-01	   3.9851282e+00	
   3.3825000e+01	  -2.3398167e+00	  -7.3297001e-02	   4.4416135e+00	
   3.3880000e+01	  -1.9000234e+00	   2.7146745e-01	   4.8106418e+00	
   3.3935000e+01	  -1.7628946e+00	   3.6238585e-01	   5.0857831e+00	
   3.3990000e+01	  -1.8616870e+00	   3.3839819e-01	   5.2253648e+00	
   3.4045000e+01	  -2.0701824e+00	   2.4862346e-01	   5.1218052e+00	
   3.4100000e+01	  -2.2938991e+00	   7.3506269e-02	   4.7636005e+00	
   3.4155000e+01	  -2.4809492e+00	  -1.7462085e-01	   4.3201322e+00	
   3.4210000e+01	  -2.6123592e+00	  -4.3054581e-01	   3.9872654e+00	
   3.4265000e+01	  -2.7091478e+00	  -6.2153863e-01	   3.8136958e+00	
   3.4320000e+01	  -2.8269319e+00	  -7.4178564e-01	   3.7090819e+00	
   3.4375000e+01	  -3.0241021e+00	  -9.0762639e-01	   3.5538324e+00	
   3.4430000e+01	  -3.3281967e+00	  -1.2691645e+00	   3.2713182e+00	
   3.4485000e+01	  -3.6905561e+00	  -1.8019136e+00	   2.8817459e+00	
   3.4540000e+01	  -3.9463422e+00	  -2.2491351e+00	   2.5591867e+00	
   3.4595000e+01	  -3.8937536e+00	  -2.3522291e+00	   2.5447073e+00	
   3.4650000e+01	  -3.4921139e+00	  -2.1022196e+00	   2.9044618e+00	
   3.4705000e+01	  -2.9392925e+00	  -1.6847032e+00	   3.4394622e+00	
   3.4760000e+01	  -2.4933754e+00	  -1.2273998e+00	   3.8913607e+00	
   3.4815000e+01	  -2.2683759e+00	  -7.4713917e-01	   4.1481291e+00	
   3.4870000e+01	  -2.2425350e+00	  -3.3520471e-01	   4.2016567e+00	
   3.4925000e+01	  -2.3622258e+00	  -2.0181408e-01	   4.0492853e+00	
   3.4980000e+01	  -2.5559089e+00	  -4.6003821e-01	   3.7597045e+00	
   3.5035000e+01	  -2.7357807e+00	  -9.9155828e-01	   3.5152160e+00	
   3.5090000e+01	  -2.8688255e+00	  -1.5669791e+00	   3.4446676e+00	
   3.5145000e+01	  -2.9942121e+00	  -1.9835735e+00	   3.4822675e+00	
   3.5200000e+01	  -3.1441115e+00	  -2.1088723e+00	   3.4734258e+00	
   3.5255000e+01	  -3.3040348e+00	  -1.9614021e+00	   3.3442946e+00	
   3.5310000e+01	  -3.4399655e+00	  -1.7431165e+00	   3.1170303e+00	
   3.5365000e+01	  -3.4939490e+00	  -1.6331093e+00	   2.8704028e+00	
   3.5420000e+01	  -3.3767884e+00	  -1.5508522e+00	   2.7627923e+00	
   3.5475000e+01	  -3.0460772e+00	  -1.2641332e+00	   2.9617766e+00	
   3.5530000e+01	  -2.5913479e+00	  -7.4623603e-01	   3.4330858e+00	
   3.5585000e+01	  -2.1963322e+00	  -2.8814422e-01	   3.9002169e+00	
   3.5640000e+01	  -2.0113928e+00	  -1.8373167e-01	   4.1063301e+00	
   3.5695000e+01	  -2.0662798e+00	  -4.1032111e-01	   4.0517082e+00	
   3.5750000e+01	  -2.2824140e+00	  -7.1888008e-01	   3.9368400e+00	
   3.5805000e+01	  -2.5417492e+00	  -9.4087984e-01	   3.9246026e+00	
   3.5860000e+01	  -2.7475968e+00	  -1.0839061e+00	   3.9842995e+00	
   3.5915000e+01	  -2.8668913e+00	  -1.2139597e+00	   3.9500904e+00	
   3.5970000e+01	  -2.9592630e+00	  -1.3907870e+00	   3.7062356e+00	
   3.6025000e+01	  -3.1395008e+00	  -1.6611219e+00	   3.2972952e+00	
   3.6080000e+01	  -3.4428809e+00	  -1.9692001e+00	   2.8762584e+00	
   3.6135000e+01	  -3.7102369e+00	  -2.1025385e+00	   2.5996673e+00	
   3.6190000e+01	  -3.6597221e+00	  -1.8600148e+00	   2.5816870e+00	
   3.6245000e+01	  -3.1285914e+00	  -1.2823909e+00	   2.8682462e+00	
   3.6300000e+01	  -2.2505711e+00	  -6.2875233e-01	   3.3866191e+00	
   3.6355000e+01	  -1.3808456e+00	  -1.3015811e-01	   3.9410629e+00	
   3.6410000e+01	  -8.4747556e-01	   1.5779868e-01	   4.2960198e+00	
   3.6465000e+01	  -7.4948001e-01	   2.9289660e-01	   4.2977833e+00	
   3.6520000e+01	  -9.2592995e-01	   3.5393225e-01	   3.9890833e+00	
   3.6575000e+01	  -1.0933386e+00	   4.0887482e-01	   3.6244801e+00	
   3.6630000e+01	  -1.0697279e+00	   4.6549882e-01	   3.4845541e+00	
   3.6685000e+01	  -9.1458128e-01	   4.4147875e-01	   3.6262681e+00	
   3.6740000e+01	  -8.4668470e-01	   2.5469670e-01	   3.8375818e+00	
   3.6795000e+01	  -1.0299188e+00	  -8.4014928e-02	   3.8178541e+00	
   3.6850000e+01	  -1.4402445e+00	  -4.9835878e-01	   3.4083437e+00	
   3.6905000e+01	  -1.8777780e+00	  -8.6302795e-01	   2.7479810e+00	
   3.6960000e+01	  -2.0664758e+00	  -9.6743228e-01	   2.2443546e+00	
   3.7015000e+01	  -1.8258040e+00	  -6.2498398e-01	   2.2902510e+00	
   3.7070000e+01	  -1.2350260e+00	   9.0827118e-02	   2.9276526e+00	
   3.7125000e+01	  -5.9391998e-01	   8.0738162e-01	   3.8037269e+00	
   3.7180000e+01	  -1.6817792e-01	   1.1308561e+00	   4.4575616e+00	
   3.7235000e+01	   4.6719305e-03	   9.7457650e-01	   4.6487858e+00	
   3.7290000e+01	   6.0264275e-02	   6.2531022e-01	   4.4742941e+00	
   3.7345000e+01	   1.2566327e-01	   4.8179562e-01	   4.2108677e+00	
   3.7400000e+01	   2.1648665e-01	   7.0294851e-01	   4.0286541e+00	
   3.7455000e+01	   2.6389818e-01	   1.1008083e+00	   3.8682112e+00	
   3.7510000e+01	   1.9016323e-01	   1.3384874e+00	   3.5894969e+00	
   3.7565000e+01	  -3.6964774e-02	   1.2003366e+00	   3.1777152e+00	
   3.7620000e+01	  -3.7941101e-01	   7.2819327e-01	   2.7867463e+00	
   3.7675000e+01	  -7.4256676e-01	   1.6385601e-01	   2.6066643e+00	
   3.7730000e+01	  -1.0208742e+00	  -2.3243059e-01	   2.6938093e+00	
   3.7785000e+01	  -1.1220737e+00	  -3.1898553e-01	   2.9447443e+00	
   3.7840000e+01	  -9.7854973e-01	  -9.8689350e-02	   3.2367781e+00	
   3.7895000e+01	  -6.0880235e-01	   2.9025551e-01	   3.5356105e+00	
   3.7950000e+01	  -1.6521058e-01	   6.2795956e-01	   3.8403031e+00	
   3.8005000e+01	   1.6181037e-01	   7.5960791e-01	   4.1017179e+00	
   3.8060000e+01	   3.1131301e-01	   7.1206415e-01	   4.2528104e+00	
   3.8115000e+01	   3.7297016e-01	   6.3193697e-01	   4.2644475e+00	
   3.8170000e+01	   4.3773948e-01	   6.1682559e-01	   4.1312294e+00	
   3.8225000e+01	   4.8735874e-01	   6.3908860e-01	   3.8562053e+00	
   3.8280000e+01	   4.4388839e-01	   6.2178373e-01	   3.4933597e+00	
   3.8335000e+01	   2.7447231e-01	   5.3322603e-01	   3.1640809e+00	
   3.8390000e+01	   1.7122429e-02	   3.9161354e-01	   2.9655256e+00	
   3.8445000e+01	  -2.7665398e-01	   2.2311111e-01	   2.8719096e+00	
   3.8500000e+01	  -5.7817591e-01	   5.4540613e-02	   2.7881061e+00	
   3.8555000e+01	  -8.2396229e-01	  -5.4696134e-02	   2.7058885e+00	
   3.8610000e+01	  -8.7037114e-01	  -1.9271643e-02	   2.7570442e+00	
   3.8665000e+01	  -6.0801532e-01	   1.8118682e-01	   3.0730596e+00	
   3.8720000e+01	  -1.2622914e-01	   4.4314939e-01	   3.5971095e+00	
   3.8775000e+01	   3.2065892e-01	   6.3902179e-01	   4.0776102e+00	
   3.8830000e+01	   5.2607145e-01	   7.5803995e-01	   4.2639860e+00	
   3.8885000e+01	   4.6625110e-01	   8.7712947e-01	   4.0934670e+00	
   3.8940000e+01	   2.5833835e-01	   1.0079823e+00	   3.7129202e+00	
   3.8995000e+01	   5.6668767e-02	   1.0499905e+00	   3.3534559e+00	
   3.9050000e+01	  -3.8638871e-02	   8.9615998e-01	   3.1469232e+00	
   3.9105000e+01	  -4.9105860e-02	   5.3946231e-01	   3.0198532e+00	
   3.9160000e+01	  -9.3722081e-02	   1.0165562e-01	   2.7891699e+00	
   3.9215000e+01	  -2.6138809e-01	  -2.1307878e-01	   2.3944427e+00	
   3.9270000e+01	  -5.1367846e-01	  -2.5366874e-01	   2.0270791e+00	
   3.9325000e+01	  -7.0959912e-01	  -3.9083921e-02	   1.9959526e+00	
   3.9380000e+01	  -6.9963299e-01	   2.9111559e-01	   2.4357145e+00	
   3.9435000e+01	  -4.2673558e-01	   6.0180352e-01	   3.1520590e+00	
   3.9490000e+01	   1.2584681e-02	   8.0547770e-01	   3.7650464e+00	
   3.9545000e+01	   4.2408168e-01	   8.6740665e-01	   3.9913150e+00	
   3.9600000e+01	   6.6063005e-01	   8.3379175e-01	   3.8027840e+00	
   3.9655000e+01	   6.9435058e-01	   8.1119290e-01	   3.3760794e+00	
   3.9710000e+01	   5.6216972e-01	   8.7060244e-01	   2.9298932e+00	
   3.9765000e+01	   3.1171462e-01	   9.7083534e-01	   2.5958489e+00	
   3.9820000e+01	   2.4164421e-02	   9.8574629e-01	   2.4022482e+00	
   3.9875000e+01	  -1.7960454e-01	   8.3307532e-01	   2.3178533e+00	
   3.9930000e+01	  -2.4036312e-01	   5.8643195e-01	   2.2698431e+00	
   3.9985000e+01	  -2.5721219e-01	   4.0414745e-01	   2.1750919e+00	
   4.0040000e+01	  -3.8146634e-01	   3.3947606e-01	   2.0432022e+00	
   4.0095000e+01	  -5.8565064e-01	   3.1100274e-01	   2.0381395e+00	
   4.0150000e+01	  -6.5413839e-01	   2.5762741e-01	   2.3425711e+00	
   4.0205000e+01	  -4.6361342e-01	   2.1655166e-01	   2.9202091e+00	
   4.0260000e+01	  -1.5007532e-01	   2.5448000e-01	   3.4930820e+00	
   4.0315000e+01	   8.0706654e-02	   4.0427687e-01	   3.8089955e+00	
   4.0370000e+01	   1.8438437e-01	   6.4986642e-01	   3.8366071e+00	
   4.0425000e+01	   2.4052645e-01	   9.1202530e-01	   3.6649450e+00	
   4.0480000e+01	   3.0585883e-01	   1.0796496e+00	   3.3670670e+00	
   4.0535000e+01	   3.8430062e-01	   1.1072091e+00	   3.0054485e+00	
   4.0590000e+01	   4.5096627e-01	   1.0342169e+00	   2.6262147e+00	
   4.0645000e+01	   4.4774374e-01	   8.8165097e-01	   2.2318006e+00	
   4.0700000e+01	   3.2121254e-01	   6.3466200e-01	   1.8550721e+00	
   4.0755000e+01	   9.4989248e-02	   3.4548947e-01	   1.6113282e+00	
   4.0810000e+01	  -1.5071529e-01	   1.1543135e-01	   1.5872505e+00	
   4.0865000e+01	  -3.6497112e-01	  -6.0482509e-03	   1.7331308e+00	
   4.0920000e+01	  -5.1702954e-01	   3.9229251e-02	   1.9453867e+00	
   4.0975000e+01	  -5.3022325e-01	   3.7427613e-01	   2.2233379e+00	
   4.1030000e+01	  -3.3327740e-01	   9.8406020e-01	   2.6475152e+00	
   4.1085000e+01	   2.5966061e-02	   1.5683491e+00	   3.1792553e+00	
   4.1140000e+01	   4.0405942e-01	   1.8036232e+00	   3.5891418e+00	
   4.1195000e+01	   6.9524112e-01	   1.6887327e+00	   3.6586992e+00	
   4.1250000e+01	   8.7840565e-01	   1.4993130e+00	   3.3830058e+00	
   4.1305000e+01	   9.4813053e-01	   1.4591417e+00	   2.9280081e+00	
   4.1360000e+01	   8.7476181e-01	   1.5566294e+00	   2.4615557e+00	
   4.1415000e+01	   6.5757849e-01	   1.6479651e+00	   2.0802863e+00	
   4.1470000e+01	   3.6798090e-01	   1.6298624e+00	   1.8366075e+00	
   4.1525000e+01	   9.3563982e-02	   1.4840054e+00	   1.7368445e+00	
   4.1580000e+01	  -1.3318062e-01	   1.2459803e+00	   1.7223086e+00	
   4.1635000e+01	  -3.1228554e-01	   9.9979082e-01	   1.7323506e+00	
   4.1690000e+01	  -4.1631865e-01	   8.6269862e-01	   1.7987969e+00	
   4.1745000e+01	  -3.9088788e-01	   9.3567509e-01	   2.0443388e+00	
   4.1800000e+01	  -1.9982670e-01	   1.2610860e+00	   2.5667965e+00	
   4.1855000e+01	   1.3922192e-01	   1.7682720e+00	   3.3044891e+00	
   4.1910000e+01	   5.4292321e-01	   2.2297226e+00	   4.0045283e+00	
   4.1965000e+01	   8.8454879e-01	   2.3856330e+00	   4.3507201e+00	
   4.2020000e+01	   1.0638334e+00	   2.2085129e+00	   4.1854574e+00	
   4.2075000e+01	   1.0712242e+00	   1.9609660e+00	   3.6436447e+00	
   4.2130000e+01	   9.5958039e-01	   1.8995399e+00	   3.0417106e+00	
   4.2185000e+01	   7.6481092e-01	   1.9948337e+00	   2.6061825e+00	
   4.2240000e+01	   5.1066777e-01	   2.0368260e+00	   2.3329644e+00	
   4.2295000e+01	   2.7062905e-01	   1.9355030e+00	   2.1186930e+00	
   4.2350000e+01	   1.2685168e-01	   1.7781673e+00	   1.9553810e+00	
   4.2405000e+01	   5.3849568e-02	   1.6327980e+00	   1.9307928e+00	
   4.2460000e+01	  -7.8418312e-02	   1.4465967e+00	   2.0813818e+00	
   4.2515000e+01	  -3.5829227e-01	   1.1600852e+00	   2.3235934e+00	
   4.2570000e+01	  -7.2103270e-01	   8.3233341e-01	   2.5459037e+00	
   4.2625000e+01	  -9.7759259e-01	   6.1772663e-01	   2.7492525e+00	
   4.2680000e+01	  -9.3447166e-01	   6.5442079e-01	   3.0721963e+00	
   4.2735000e+01	  -5.3455918e-01	   9.7757342e-01	   3.6373150e+00	
   4.2790000e+01	   6.2873352e-02	   1.4824369e+00	   4.3547425e+00	
   4.2845000e+01	   5.6800842e-01	   1.9459440e+00	   4.9124762e+00	
   4.2900000e+01	   7.7144150e-01	   2.1339594e+00	   5.0132131e+00	
   4.2955000e+01	   6.7270099e-01	   1.9653793e+00	   4.6310951e+00	
   4.3010000e+01	   4.1747183e-01	   1.6062088e+00	   4.0017734e+00	
   4.3065000e+01	   1.5277640e-01	   1.3473539e+00	   3.3783917e+00	
   4.3120000e+01	  -5.5322148e-02	   1.3383519e+00	   2.8789689e+00	
   4.3175000e+01	  -2.1582700e-01	   1.4695526e+00	   2.5512417e+00	
   4.3230000e+01	  -3.7637910e-01	   1.5029276e+00	   2.4287822e+00	
   4.3285000e+01	  -5.9157846e-01	   1.2586323e+00	   2.4687844e+00	
   4.3340000e+01	  -8.7187568e-01	   7.3778764e-01	   2.5599678e+00	
   4.3395000e+01	  -1.1191843e+00	   1.8353393e-01	   2.6521804e+00	
   4.3450000e+01	  -1.1470521e+00	  -2.2377371e-02	   2.8119055e+00	
   4.3505000e+01	  -8.4044457e-01	   3.4014390e-01	   3.1319394e+00	
   4.3560000e+01	  -3.1120451e-01	   1.1107151e+00	   3.6123232e+00	
   4.3615000e+01	   1.6137334e-01	   1.8664360e+00	   4.1192291e+00	
   4.3670000e+01	   3.6495129e-01	   2.2433512e+00	   4.4529970e+00	
   4.3725000e+01	   2.9264195e-01	   2.1586400e+00	   4.4754398e+00	
   4.3780000e+01	   7.0308113e-02	   1.7991588e+00	   4.1985550e+00	
   4.3835000e+01	  -1.7522952e-01	   1.4382555e+00	   3.7732101e+00	
   4.3890000e+01	  -3.7564505e-01	   1.2274835e+00	   3.3850068e+00	
   4.3945000e+01	  -5.3217673e-01	   1.1110631e+00	   3.1218189e+00	
   4.4000000e+01	  -7.0889072e-01	   9.3709447e-01	   2.9262311e+00	
   4.4055000e+01	  -9.7678133e-01	   6.5537567e-01	   2.7090944e+00	
   4.4110000e+01	  -1.3259074e+00	   3.6756723e-01	   2.5120771e+00	
   4.4165000e+01	  -1.6386646e+00	   1.9211166e-01	   2.5009854e+00	
   4.4220000e+01	  -1.7537748e+00	   1.7305154e-01	   2.7803372e+00	
   4.4275000e+01	  -1.5613330e+00	   3.2979764e-01	   3.2636479e+00	
   4.4330000e+01	  -1.0886025e+00	   6.6563940e-01	   3.7428329e+00	
   4.4385000e+01	  -5.2715338e-01	   1.0801787e+00	   4.0476049e+00	
   4.4440000e+01	  -1.2377817e-01	   1.3910514e+00	   4.1429222e+00	
   4.4495000e+01	   8.1564446e-03	   1.5133239e+00	   4.1204176e+00	
   4.4550000e+01	  -5.1093593e-02	   1.5385742e+00	   4.0915516e+00	
   4.4605000e+01	  -1.7264569e-01	   1.5699254e+00	   4.0633535e+00	
   4.4660000e+01	  -3.2545282e-01	   1.5640314e+00	   3.9470746e+00	
   4.4715000e+01	  -5.4398194e-01	   1.4245846e+00	   3.7025000e+00	
   4.4770000e+01	  -8.3093913e-01	   1.1539787e+00	   3.4055798e+00	
   4.4825000e+01	  -1.1554928e+00	   8.0326324e-01	   3.1289492e+00	
   4.4880000e+01	  -1.4866503e+00	   3.8209686e-01	   2.8515744e+00	
   4.4935000e+01	  -1.7662602e+00	  -4.3499105e-02	   2.5898227e+00	
   4.4990000e+01	  -1.8852465e+00	  -2.6376531e-01	   2.5189404e+00	
   4.5045000e+01	  -1.7450802e+00	  -1.1317493e-01	   2.8037451e+00	
   4.5100000e+01	  -1.3573103e+00	   2.9840587e-01	   3.3472399e+00	
   4.5155000e+01	  -8.7356895e-01	   7.0190319e-01	   3.8450938e+00	
   4.5210000e+01	  -4.9830266e-01	   9.7451841e-01	   4.0916074e+00	
   4.5265000e+01	  -3.4720282e-01	   1.1751803e+00	   4.1261628e+00	
   4.5320000e+01	  -3.8258646e-01	   1.3304939e+00	   4.0708590e+00	
   4.5375000e+01	  -4.8068658e-01	   1.3677743e+00	   3.9520191e+00	
   4.5430000e+01	  -5.4411470e-01	   1.2642086e+00	   3.7277449e+00	
   4.5485000e+01	  -5.6601742e-01	   1.1129251e+00	   3.3808207e+00	
   4.5540000e+01	  -6.3056076e-01	   9.9005102e-01	   2.9268332e+00	
   4.5595000e+01	  -8.4393408e-01	   8.4835291e-01	   2.4128002e+00	
   4.5650000e+01	  -1.2257418e+00	   5.9189819e-01	   1.9574830e+00	
   4.5705000e+01	  -1.6758538e+00	   1.8964586e-01	   1.7168856e+00	
   4.5760000e+01	  -2.0507475e+00	  -3.0645194e-01	   1.7589476e+00	
   4.5815000e+01	  -2.2276781e+00	  -7.6887034e-01	   2.0340157e+00	
   4.5870000e+01	  -2.1175662e+00	  -1.0105714e+00	   2.4754566e+00	
   4.5925000e+01	  -1.7202241e+00	  -9.0917281e-01	   3.0275835e+00	
   4.5980000e+01	  -1.1810387e+00	  -5.4569000e-01	   3.5670296e+00	
   4.6035000e+01	  -7.0695602e-01	  -1.3925414e-01	   3.9302278e+00	
   4.6090000e+01	  -4.1096962e-01	   1.5854480e-01	   4.0750292e+00	
   4.6145000e+01	  -2.8795526e-01	   3.4178681e-01	   4.0973460e+00	
   4.6200000e+01	  -3.1282898e-01	   4.6135158e-01	   4.0269314e+00	
   4.6255000e+01	  -4.8225132e-01	   5.4354076e-01	   3.7552496e+00	
   4.6310000e+01	  -7.6603587e-01	   5.6367736e-01	   3.2592306e+00	
   4.6365000e+01	  -1.0932488e+00	   4.2162511e-01	   2.7492009e+00	
   4.6420000e+01	  -1.4090221e+00	  -2.2021897e-03	   2.4718719e+00	
   4.6475000e+01	  -1.7033172e+00	  -6.6713400e-01	   2.4558277e+00	
   4.6530000e+01	  -1.9696745e+00	  -1.2990433e+00	   2.5334531e+00	
   4.6585000e+01	  -2.1697166e+00	  -1.5949255e+00	   2.5411244e+00	
   4.6640000e+01	  -2.2538280e+00	  -1.4625638e+00	   2.4565040e+00	
   4.6695000e+01	  -2.1947316e+00	  -1.0134455e+00	   2.4147098e+00	
   4.6750000e+01	  -1.9919199e+00	  -4.2489540e-01	   2.6021278e+00	
   4.6805000e+01	  -1.6742412e+00	   1.1291887e-01	   3.0515209e+00	
   4.6860000e+01	  -1.3200099e+00	   4.3408043e-01	   3.5483152e+00	
   4.6915000e+01	  -1.0394940e+00	   5.1272204e-01	   3.8262650e+00	
   4.6970000e+01	  -9.0305816e-01	   4.9148405e-01	   3.8312206e+00	
   4.7025000e+01	  -9.0944940e-01	   5.0410089e-01	   3.7026215e+00	
   4.7080000e+01	  -1.0359354e+00	   5.0176345e-01	   3.5445548e+00	
   4.7135000e+01	  -1.2748977e+00	   3.1838232e-01	   3.3427835e+00	
   4.7190000e+01	  -1.6010621e+00	  -1.1855022e-01	   3.0961936e+00	
   4.7245000e+01	  -1.9498174e+00	  -7.0614309e-01	   2.8852260e+00	
   4.7300000e+01	  -2.2669975e+00	  -1.2760783e+00	   2.7462731e+00	
   4.7355000e+01	  -2.5523981e+00	  -1.7000836e+00	   2.5975124e+00	
   4.7410000e+01	  -2.8098696e+00	  -1.8856347e+00	   2.3959975e+00	
   4.7465000e+01	  -2.9657900e+00	  -1.7799319e+00	   2.2786714e+00	
   4.7520000e+01	  -2.8963745e+00	  -1.4426006e+00	   2.4322153e+00	
   4.7575000e+01	  -2.5683157e+00	  -1.0470599e+00	   2.8638611e+00	
   4.7630000e+01	  -2.1183097e+00	  -7.3100871e-01	   3.3661340e+00	
   4.7685000e+01	  -1.7585619e+00	  -4.9036075e-01	   3.6815650e+00	
   4.7740000e+01	  -1.6153597e+00	  -2.9297090e-01	   3.6818988e+00	
   4.7795000e+01	  -1.6658611e+00	  -2.1534669e-01	   3.4373265e+00	
   4.7850000e+01	  -1.8075883e+00	  -3.4535674e-01	   3.1491377e+00	
   4.7905000e+01	  -1.9649384e+00	  -6.0370954e-01	   2.9780898e+00	
   4.7960000e+01	  -2.1275961e+00	  -7.8849996e-01	   2.9066052e+00	
   4.8015000e+01	  -2.3143252e+00	  -7.9686263e-01	   2.8058156e+00	
   4.8070000e+01	  -2.5249163e+00	  -7.2931101e-01	   2.6400685e+00	
   4.8125000e+01	  -2.7241111e+00	  -7.7011645e-01	   2.5209700e+00	
   4.8180000e+01	  -2.8620639e+00	  -1.0042997e+00	   2.5573954e+00	
   4.8235000e+01	  -2.9002619e+00	  -1.3362325e+00	   2.7674265e+00	
   4.8290000e+01	  -2.8143010e+00	  -1.5537946e+00	   3.1359726e+00	
   4.8345000e+01	  -2.6044750e+00	  -1.5103008e+00	   3.6174733e+00	
   4.8400000e+01	  -2.3320011e+00	  -1.2730530e+00	   4.0591795e+00	
   4.8455000e+01	  -2.1027371e+00	  -1.0283682e+00	   4.2517906e+00	
   4.8510000e+01	  -1.9645361e+00	  -8.3449184e-01	   4.1231593e+00	
   4.8565000e+01	  -1.8549432e+00	  -6.0136881e-01	   3.8209974e+00	
   4.8620000e+01	  -1.7057463e+00	  -3.3999439e-01	   3.5495738e+00	
   4.8675000e+01	  -1.5637398e+00	  -2.3861259e-01	   3.3715934e+00	
   4.8730000e+01	  -1.5403291e+00	  -3.8866062e-01	   3.2284013e+00	
   4.8785000e+01	  -1.6716217e+00	  -6.0714514e-01	   3.0858732e+00	
   4.8840000e+01	  -1.9010218e+00	  -6.7497992e-01	   2.9564234e+00	
   4.8895000e+01	  -2.1651709e+00	  -6.3157721e-01	   2.8192510e+00	
   4.8950000e+01	  -2.4085196e+00	  -6.9634807e-01	   2.6276523e+00	
   4.9005000e+01	  -2.5325965e+00	  -9.5459440e-01	   2.4114594e+00	
   4.9060000e+01	  -2.4222428e+00	  -1.2123656e+00	   2.3273564e+00	
   4.9115000e+01	  -2.0530816e+00	  -1.1680223e+00	   2.5622073e+00	
   4.9170000e+01	  -1.5396378e+00	  -7.1406674e-01	   3.1465855e+00	
   4.9225000e+01	  -1.0476725e+00	  -7.0578908e-02	   3.8621237e+00	
   4.9280000e+01	  -6.7557705e-01	   3.8010400e-01	   4.3697818e+00	
   4.9335000e+01	  -4.4555216e-01	   4.0620945e-01	   4.4588625e+00	
   4.9390000e+01	  -3.6278637e-01	   1.0715641e-01	   4.1831942e+00	
   4.9445000e+01	  -4.1732402e-01	  -2.0399529e-01	   3.7750047e+00	
   4.9500000e+01	  -5.5557937e-01	  -3.1072324e-01	   3.4462119e+00	
   4.9555000e+01	  -7.0658287e-01	  -2.8220985e-01	   3.2596397e+00	
   4.9610000e+01	  -8.2767469e-01	  -3.4706585e-01	   3.1528797e+00	
   4.9665000e+01	  -9.2213395e-01	  -6.2765835e-01	   3.0398742e+00	
   4.9720000e+01	  -1.0408971e+00	  -1.0505405e+00	   2.8638807e+00	
   4.9775000e+01	  -1.2316787e+00	  -1.4491976e+00	   2.6202742e+00	
   4.9830000e+01	  -1.4225481e+00	  -1.6441063e+00	   2.4395391e+00	
   4.9885000e+01	  -1.3946778e+00	  -1.4763540e+00	   2.5962758e+00	
   4.9940000e+01	  -9.7420665e-01	  -9.1258231e-01	   3.2542121e+00	
   4.9995000e+01	  -2.6280402e-01	  -1.3439924e-01	   4.1889287e+00	
   5.0050000e+01	   4.0190470e-01	   5.6115188e-01	   4.9089645e+00	
   5.0105000e+01	   7.3374700e-01	   9.7109592e-01	   5.0764583e+00	
   5.0160000e+01	   6.9958272e-01	   1.0763706e+00	   4.7405533e+00	
   5.0215000e+01	   4.6611655e-01	   9.7598492e-01	   4.1883896e+00	
   5.0270000e+01	   2.3825858e-01	   8.0237807e-01	   3.6612483e+00	
   5.0325000e+01	   1.5121125e-01	   6.6196590e-01	   3.2424450e+00	
   5.0380000e+01	   2.1851432e-01	   5.7083298e-01	   2.9349330e+00	
   5.0435000e+01	   3.1309855e-01	   4.3931656e-01	   2.7338022e+00	
   5.0490000e+01	   2.4138393e-01	   1.6956526e-01	   2.6309228e+00	
   5.0545000e+01	  -8.1628745e-02	  -1.9623703e-01	   2.6431694e+00	
   5.0600000e+01	  -5.2132241e-01	  -4.5194499e-01	   2.8404647e+00	
   5.0655000e+01	  -8.2324104e-01	  -4.0567337e-01	   3.2728540e+00	
   5.0710000e+01	  -8.1414001e-01	  -5.6605179e-02	   3.8690075e+00	
   5.0765000e+01	  -4.8925475e-01	   4.3736081e-01	   4.4523533e+00	
   5.0820000e+01	   3.1032106e-02	   8.9869364e-01	   4.8458671e+00	
   5.0875000e+01	   5.6539241e-01	   1.2167699e+00	   4.9579046e+00	
   5.0930000e+01	   9.4547695e-01	   1.3811215e+00	   4.8131617e+00	
   5.0985000e+01	   1.0985670e+00	   1.4569279e+00	   4.5047567e+00	
   5.1040000e+01	   1.0560009e+00	   1.5034682e+00	   4.0964405e+00	
   5.1095000e+01	   8.8804197e-01	   1.5354069e+00	   3.5928244e+00	
   5.1150000e+01	   6.5942838e-01	   1.5556757e+00	   3.0145224e+00	
   5.1205000e+01	   4.1456415e-01	   1.5455533e+00	   2.4762547e+00	
   5.1260000e+01	   1.5082746e-01	   1.4040860e+00	   2.1515298e+00	
   5.1315000e+01	  -1.7439625e-01	   1.0046988e+00	   2.1310889e+00	
   5.1370000e+01	  -5.4983249e-01	   3.8922678e-01	   2.3473828e+00	
   5.1425000e+01	  -8.2599778e-01	  -1.6334388e-01	   2.6778224e+00	
   5.1480000e+01	  -8.0035684e-01	  -3.6256927e-01	   3.0791412e+00	
   5.1535000e+01	  -4.2565237e-01	  -1.7453266e-01	   3.5647010e+00	
   5.1590000e+01	   1.1753101e-01	   2.1634731e-01	   4.0720221e+00	
   5.1645000e+01	   5.8674726e-01	   6.5456976e-01	   4.4109631e+00	
   5.1700000e+01	   8.6454544e-01	   1.0938652e+00	   4.3778608e+00	
   5.1755000e+01	   9.6932788e-01	   1.4748661e+00	   3.9423367e+00	
   5.1810000e+01	   9.6704179e-01	   1.6943106e+00	   3.3281555e+00	
   5.1865000e+01	   9.2049123e-01	   1.7357582e+00	   2.8683696e+00	
   5.1920000e+01	   8.6841666e-01	   1.7106655e+00	   2.7358773e+00	
   5.1975000e+01	   7.9369694e-01	   1.6751074e+00	   2.8216890e+00	
   5.2030000e+01	   6.2713109e-01	   1.4742140e+00	   2.8785350e+00	
   5.2085000e+01	   3.2730224e-01	   9.3526335e-01	   2.7606876e+00	
   5.2140000e+01	  -4.1004105e-02	   2.1085796e-01	   2.5362019e+00	
   5.2195000e+01	  -3.2967904e-01	  -2.6344867e-01	   2.4158882e+00	
   5.2250000e+01	  -4.0271873e-01	  -1.9407113e-01	   2.5876907e+00	
   5.2305000e+01	  -2.0828465e-01	   3.1209021e-01	   3.0591062e+00	
   5.2360000e+01	   1.9788556e-01	   9.0182250e-01	   3.6203081e+00	
   5.2415000e+01	   6.6585213e-01	   1.2870803e+00	   4.0126342e+00	
   5.2470000e+01	   1.0217177e+00	   1.4236411e+00	   4.1505480e+00	
   5.2525000e+01	   1.1748134e+00	   1.4467370e+00	   4.1155586e+00	
   5.2580000e+01	   1.1606804e+00	   1.4451485e+00	   3.9530328e+00	
   5.2635000e+01	   1.0718786e+00	   1.3556182e+00	   3.5958045e+00	
   5.2690000e+01	   9.6816206e-01	   1.1163870e+00	   3.0322724e+00	
   5.2745000e+01	   8.5426108e-01	   7.9288634e-01	   2.4612300e+00	
   5.2800000e+01	   6.9299534e-01	   4.6000991e-01	   2.1682570e+00	
   5.2855000e+01	   4.1999597e-01	   1.0299975e-01	   2.2346481e+00	
   5.2910000e+01	   4.1442164e-03	  -2.6829789e-01	   2.4562838e+00	
   5.2965000e+01	  -4.6300953e-01	  -5.3340414e-01	   2.6037498e+00	
   5.3020000e+01	  -7.6892102e-01	  -5.6646895e-01	   2.7026309e+00	
   5.3075000e+01	  -7.1764666e-01	  -3.4904565e-01	   2.9860397e+00	
   5.3130000e+01	  -2.8370730e-01	   5.2343613e-02	   3.5891414e+00	
   5.3185000e+01	   3.6458305e-01	   5.5816931e-01	   4.3437815e+00	
   5.3240000e+01	   9.7699415e-01	   1.0796059e+00	   4.8671333e+00	
   5.3295000e+01	   1.3580627e+00	   1.4855645e+00	   4.8260963e+00	
   5.3350000e+01	   1.4547203e+00	   1.6559939e+00	   4.1726198e+00	
   5.3405000e+01	   1.3590362e+00	   1.5836476e+00	   3.2089755e+00	
   5.3460000e+01	   1.2022198e+00	   1.3616610e+00	   2.4145021e+00	
   5.3515000e+01	   1.0362800e+00	   1.0760344e+00	   2.1207320e+00	
   5.3570000e+01	   8.4328337e-01	   7.5632902e-01	   2.2886240e+00	
   5.3625000e+01	   6.2521315e-01	   4.2198125e-01	   2.5907683e+00	
   5.3680000e+01	   4.2033818e-01	   1.3844948e-01	   2.7109328e+00	
   5.3735000e+01	   2.3822909e-01	  -1.9488850e-02	   2.5568238e+00	
   5.3790000e+01	   3.2211020e-02	  -7.6824551e-02	   2.2367110e+00	
   5.3845000e+01	  -2.3234087e-01	  -1.5040987e-01	   1.9360973e+00	
   5.3900000e+01	  -4.8394845e-01	  -2.7440190e-01	   1.8336249e+00	
   5.3955000e+01	  -5.5666264e-01	  -3.1298086e-01	   2.0454879e+00	
   5.4010000e+01	  -3.3767744e-01	  -1.0236593e-01	   2.5675570e+00	
   5.4065000e+01	   1.0865842e-01	   3.6733352e-01	   3.2351176e+00	
   5.4120000e+01	   5.8888618e-01	   9.1646774e-01	   3.7615848e+00	
   5.4175000e+01	   9.2462003e-01	   1.2873806e+00	   3.8957478e+00	
   5.4230000e+01	   1.0396514e+00	   1.3230075e+00	   3.5867957e+00	
   5.4285000e+01	   9.6461916e-01	   1.0877177e+00	   2.9914838e+00	
   5.4340000e+01	   7.9393381e-01	   7.9925072e-01	   2.3372776e+00	
   5.4395000e+01	   6.1339673e-01	   6.0279790e-01	   1.7886499e+00	
   5.4450000e+01	   4.4699624e-01	   4.4021127e-01	   1.4161969e+00	
   5.4505000e+01	   2.7275925e-01	   1.8459431e-01	   1.2552416e+00	
   5.4560000e+01	   7.6849744e-02	  -1.5983480e-01	   1.3289307e+00	
   5.4615000e+01	  -1.3962310e-01	  -4.8394287e-01	   1.5704865e+00	
   5.4670000e+01	  -4.0374080e-01	  -7.4138454e-01	   1.7968203e+00	
   5.4725000e+01	  -7.5042939e-01	  -9.4764894e-01	   1.8589406e+00	
   5.4780000e+01	  -1.1143323e+00	  -1.0304866e+00	   1.8121425e+00	
   5.4835000e+01	  -1.3064722e+00	  -8.4720578e-01	   1.8799075e+00	
   5.4890000e+01	  -1.1766985e+00	  -3.9173305e-01	   2.2356107e+00	
   5.4945000e+01	  -7.7916140e-01	   1.2585353e-01	   2.8292821e+00	
   5.5000000e+01	  -3.3285608e-01	   4.4668594e-01	   3.3946305e+00	
   5.5055000e+01	  -4.3213344e-02	   4.6481871e-01	   3.5989350e+00	
   5.5110000e+01	   2.0264602e-02	   2.7268357e-01	   3.2711591e+00	
   5.5165000e+01	  -7.4624200e-02	   5.6275046e-02	   2.5696929e+00	
   5.5220000e+01	  -2.0300878e-01	  -5.8426123e-02	   1.8705588e+00	
   5.5275000e+01	  -2.8700856e-01	  -9.0538860e-02	   1.4373217e+00	
   5.5330000e+01	  -3.3732520e-01	  -1.4259768e-01	   1.2556329e+00	
   5.5385000e+01	  -4.0081586e-01	  -2.5899105e-01	   1.1781078e+00	
   5.5440000e+01	  -5.0939062e-01	  -3.8235238e-01	   1.1037284e+00	
   5.5495000e+01	  -7.0198086e-01	  -4.7104174e-01	   9.9049301e-01	
   5.5550000e+01	  -1.0389010e+00	  -6.2886234e-01	   8.1753626e-01	
   5.5605000e+01	  -1.5255711e+00	  -1.0454821e+00	   6.0998943e-01	
   5.5660000e+01	  -2.0308916e+00	  -1.7323683e+00	   4.6025537e-01	
   5.5715000e+01	  -2.3389867e+00	  -2.3515509e+00	   4.9353539e-01	
   5.5770000e+01	  -2.3130353e+00	  -2.4519192e+00	   8.1156248e-01	
   5.5825000e+01	  -1.9996130e+00	  -1.9160533e+00	   1.4170018e+00	
   5.5880000e+01	  -1.5648023e+00	  -1.0743666e+00	   2.1456017e+00	
   5.5935000e+01	  -1.1559874e+00	  -3.7579448e-01	   2.7217285e+00	
   5.5990000e+01	  -8.4900666e-01	  -5.5046115e-02	   2.9297786e+00	
   5.6045000e+01	  -6.8237128e-01	  -1.0361944e-01	   2.7253646e+00	
   5.6100000e+01	  -6.6958025e-01	  -3.9692841e-01	   2.2232091e+00	
   5.6155000e+01	  -7.7796374e-01	  -7.7023632e-01	   1.6287936e+00	
   5.6210000e+01	  -9.4736144e-01	  -1.0620983e+00	   1.1248419e+00	
   5.6265000e+01	  -1.1427348e+00	  -1.1835906e+00	   7.6008722e-01	
   5.6320000e+01	  -1.3694751e+00	  -1.1740835e+00	   4.6672489e-01	
   5.6375000e+01	  -1.6449666e+00	  -1.1898936e+00	   1.8180475e-01	
   5.6430000e+01	  -1.9679313e+00	  -1.3962047e+00	  -8.4792235e-02	
   5.6485000e+01	  -2.2880058e+00	  -1.7914224e+00	  -2.5454687e-01	
   5.6540000e+01	  -2.4841465e+00	  -2.1287037e+00	  -1.8843650e-01	
   5.6595000e+01	  -2.4236444e+00	  -2.1057814e+00	   2.4290781e-01	
   5.6650000e+01	  -2.1043861e+00	  -1.6841459e+00	   9.9840806e-01	
   5.6705000e+01	  -1.7048087e+00	  -1.1445904e+00	   1.8007241e+00	
   5.6760000e+01	  -1.4245443e+00	  -7.9079864e-01	   2.2999198e+00	
   5.6815000e+01	  -1.3008330e+00	  -6.9333215e-01	   2.3114052e+00	
   5.6870000e+01	  -1.2358114e+00	  -7.5728160e-01	   1.9058902e+00	
   5.6925000e+01	  -1.1674175e+00	  -9.0534469e-01	   1.3180858e+00	
   5.6980000e+01	  -1.1480219e+00	  -1.1002402e+00	   7.8967164e-01	
   5.7035000e+01	  -1.2638241e+00	  -1.2915538e+00	   4.5808365e-01	
   5.7090000e+01	  -1.5292594e+00	  -1.4570921e+00	   3.2130825e-01	
   5.7145000e+01	  -1.8790992e+00	  -1.6336262e+00	   2.7548124e-01	
   5.7200000e+01	  -2.2373511e+00	  -1.8264168e+00	   2.2283297e-01	
   5.7255000e+01	  -2.5641268e+00	  -1.9638178e+00	   1.6888076e-01	
   5.7310000e+01	  -2.8358274e+00	  -1.9991855e+00	   1.9628638e-01	
   5.7365000e+01	  -3.0014524e+00	  -1.9686663e+00	   3.6365784e-01	
   5.7420000e+01	  -2.9803776e+00	  -1.9015570e+00	   6.6729632e-01	
   5.7475000e+01	  -2.7173246e+00	  -1.7613423e+00	   1.0528831e+00	
   5.7530000e+01	  -2.2464476e+00	  -1.5317212e+00	   1.4036161e+00	
   5.7585000e+01	  -1.7076990e+00	  -1.2960359e+00	   1.5654826e+00	
   5.7640000e+01	  -1.2859511e+00	  -1.1463713e+00	   1.4575555e+00	
   5.7695000e+01	  -1.1007210e+00	  -1.0439172e+00	   1.1435900e+00	
   5.7750000e+01	  -1.1549282e+00	  -8.8642709e-01	   7.6235220e-01	
   5.7805000e+01	  -1.3821450e+00	  -7.0832102e-01	   4.1980040e-01	
   5.7860000e+01	  -1.6827158e+00	  -6.6556794e-01	   1.6163187e-01	
   5.7915000e+01	  -1.9256334e+00	  -8.0712998e-01	  -1.9844823e-02	
   5.7970000e+01	  -2.0273943e+00	  -1.0138584e+00	  -1.8772437e-01	
   5.8025000e+01	  -2.0640301e+00	  -1.1914213e+00	  -4.1287042e-01	
   5.8080000e+01	  -2.2239949e+00	  -1.3905505e+00	  -6.7590042e-01	
   5.8135000e+01	  -2.5924543e+00	  -1.6796277e+00	  -8.2679795e-01	
   5.8190000e+01	  -3.0056429e+00	  -1.9764810e+00	  -6.7822161e-01	
   5.8245000e+01	  -3.1683116e+00	  -2.0901203e+00	  -1.6845395e-01	
   5.8300000e+01	  -2.9256323e+00	  -1.9155137e+00	   5.5392989e-01	
   5.8355000e+01	  -2.3977556e+00	  -1.5138871e+00	   1.2003098e+00	
   5.8410000e+01	  -1.8648503e+00	  -1.0150839e+00	   1.5084161e+00	
   5.8465000e+01	  -1.5561110e+00	  -5.3163146e-01	   1.3718634e+00	
   5.8520000e+01	  -1.5132739e+00	  -1.6362700e-01	   8.5639074e-01	
   5.8575000e+01	  -1.5937141e+00	   1.6170742e-03	   1.5565222e-01	
   5.8630000e+01	  -1.6144167e+00	  -6.9920054e-02	  -4.8058162e-01	
   5.8685000e+01	  -1.5301026e+00	  -3.2697068e-01	  -8.7336730e-01	
   5.8740000e+01	  -1.4621141e+00	  -6.3817283e-01	  -9.9627202e-01	
   5.8795000e+01	  -1.5465305e+00	  -8.5083712e-01	  -9.2411616e-01	
   5.8850000e+01	  -1.7944458e+00	  -9.0041794e-01	  -7.8292257e-01	
   5.8905000e+01	  -2.1207467e+00	  -8.8641790e-01	  -7.5848852e-01	
   5.8960000e+01	  -2.4512064e+00	  -9.9353164e-01	  -9.9692346e-01	
   5.9015000e+01	  -2.7345873e+00	  -1.2816294e+00	  -1.4026138e+00	
   5.9070000e+01	  -2.8749725e+00	  -1.5844326e+00	  -1.6229244e+00	
   5.9125000e+01	  -2.7467611e+00	  -1.6735838e+00	  -1.3386523e+00	
   5.9180000e+01	  -2.3215641e+00	  -1.4709986e+00	  -5.7680995e-01	
   5.9235000e+01	  -1.7382255e+00	  -1.0528980e+00	   2.8106485e-01	
   5.9290000e+01	  -1.2127876e+00	  -5.5741213e-01	   7.8293288e-01	
   5.9345000e+01	  -8.9977211e-01	  -1.5800573e-01	   7.1063506e-01	
   5.9400000e+01	  -8.3790174e-01	  -6.0127863e-03	   1.8925781e-01	
   5.9455000e+01	  -9.6926754e-01	  -1.2019781e-01	  -4.3670250e-01	
   5.9510000e+01	  -1.1785849e+00	  -3.9469260e-01	  -8.7276865e-01	
   5.9565000e+01	  -1.3622738e+00	  -7.2532723e-01	  -1.0839528e+00	
   5.9620000e+01	  -1.5095468e+00	  -1.0701317e+00	  -1.2356695e+00	
   5.9675000e+01	  -1.6911208e+00	  -1.3959495e+00	  -1.4281826e+00	
   5.9730000e+01	  -1.9412727e+00	  -1.6267781e+00	  -1.5631437e+00	
   5.9785000e+01	  -2.2031756e+00	  -1.6803646e+00	  -1.5097320e+00	
   5.9840000e+01	  -2.4132759e+00	  -1.5400014e+00	  -1.2916274e+00	
   5.9895000e+01	  -2.5555777e+00	  -1.2438718e+00	  -1.0192050e+00	
   5.9950000e+01	  -2.6078903e+00	  -8.3133614e-01	  -7.4053284e-01	
   6.0005000e+01	  -2.5367799e+00	  -3.9056646e-01	  -4.6654700e-01	
   6.0060000e+01	  -2.3707234e+00	  -1.1012430e-01	  -2.6352602e-01	
   6.0115000e+01	  -2.1802665e+00	  -1.2501771e-01	  -2.0906907e-01	
   6.0170000e+01	  -1.9761084e+00	  -3.1948062e-01	  -2.9155393e-01	
   6.0225000e+01	  -1.7190208e+00	  -4.0991384e-01	  -4.4609614e-01	
   6.0280000e+01	  -1.4316653e+00	  -2.2864517e-01	  -6.6869067e-01	
   6.0335000e+01	  -1.2202342e+00	   1.1171175e-01	  -9.9885064e-01	
   6.0390000e+01	  -1.1769084e+00	   3.0731777e-01	  -1.3966606e+00	
   6.0445000e+01	  -1.3026192e+00	   1.3421095e-01	  -1.7257261e+00	
   6.0500000e+01	  -1.5110826e+00	  -3.3101139e-01	  -1.8580869e+00	
   6.0555000e+01	  -1.6770147e+00	  -7.7851545e-01	  -1.7461934e+00	
   6.0610000e+01	  -1.7131873e+00	  -9.6081725e-01	  -1.4421401e+00	
   6.0665000e+01	  -1.6491331e+00	  -9.2983553e-01	  -1.1136931e+00	
   6.0720000e+01	  -1.6194465e+00	  -9.7003825e-01	  -9.7214699e-01	
   6.0775000e+01	  -1.7178592e+00	  -1.2271669e+00	  -1.0705798e+00	
   6.0830000e+01	  -1.8542179e+00	  -1.4537615e+00	  -1.1798837e+00	
   6.0885000e+01	  -1.8196486e+00	  -1.2908470e+00	  -9.7683618e-01	
   6.0940000e+01	  -1.5160149e+00	  -7.5616300e-01	  -4.1615003e-01	
   6.0995000e+01	  -1.0492581e+00	  -2.2859806e-01	   1.6379849e-01	
   6.1050000e+01	  -5.8313685e-01	   3.9260532e-02	   3.6785251e-01	
   6.1105000e+01	  -1.9972841e-01	   1.5882413e-01	   9.7286086e-02	
   6.1160000e+01	   7.3770153e-02	   3.3175422e-01	  -4.4147850e-01	
   6.1215000e+01	   2.0750505e-01	   5.5759305e-01	  -9.3332493e-01	
   6.1270000e+01	   1.9912351e-01	   6.9390591e-01	  -1.1131032e+00	
   6.1325000e+01	   1.0504257e-01	   6.5102579e-01	  -8.9664934e-01	
   6.1380000e+01	  -1.7389936e-02	   4.2900342e-01	  -4.6509033e-01	
   6.1435000e+01	  -1.7181043e-01	   6.7324504e-02	  -1.4112155e-01	
   6.1490000e+01	  -3.9093151e-01	  -3.4546643e-01	  -1.1481575e-01	
   6.1545000e+01	  -6.7814285e-01	  -6.7965271e-01	  -3.1740153e-01	
   6.1600000e+01	  -9.8736449e-01	  -8.5221240e-01	  -5.3796082e-01	
   6.1655000e+01	  -1.2017325e+00	  -8.6848241e-01	  -5.9022326e-01	
   6.1710000e+01	  -1.1589698e+00	  -7.6066837e-01	  -4.1055529e-01	
   6.1765000e+01	  -7.9339513e-01	  -5.4530837e-01	  -1.1383618e-01	
   6.1820000e+01	  -2.4160027e-01	  -2.5490579e-01	   5.6566857e-02	
   6.1875000e+01	   2.5839941e-01	   4.9454742e-02	  -5.5337957e-02	
   6.1930000e+01	   5.5214530e-01	   3.0864524e-01	  -3.4438599e-01	
   6.1985000e+01	   6.2350329e-01	   4.5503951e-01	  -5.6187684e-01	
   6.2040000e+01	   5.2477378e-01	   3.9955134e-01	  -5.9994183e-01	
   6.2095000e+01	   3.2594582e-01	   1.4059631e-01	  -5.8032422e-01	
   6.2150000e+01	   1.2467339e-01	  -1.2983751e-01	  -6.4990424e-01	
   6.2205000e+01	   1.9326129e-02	  -1.9235818e-01	  -7.8694008e-01	
   6.2260000e+01	   5.1759690e-04	  -1.1586094e-01	  -8.8608734e-01	
   6.2315000e+01	  -8.9460512e-02	  -2.4855726e-01	  -9.4669360e-01	
   6.2370000e+01	  -3.9147931e-01	  -7.8731173e-01	  -1.0375930e+00	
   6.2425000e+01	  -8.2047369e-01	  -1.4509905e+00	  -1.1149922e+00	
   6.2480000e+01	  -1.0989033e+00	  -1.7162502e+00	  -1.0192818e+00	
   6.2535000e+01	  -1.0108640e+00	  -1.3651647e+00	  -6.5903730e-01	
   6.2590000e+01	  -5.7321209e-01	  -6.7866369e-01	  -1.1496256e-01	
   6.2645000e+01	   1.9815773e-02	  -7.9001886e-02	   4.1502957e-01	
   6.2700000e+01	   5.3776039e-01	   2.6179580e-01	   6.9875472e-01	
   6.2755000e+01	   8.1639044e-01	   4.2366122e-01	   5.5653124e-01	
   6.2810000e+01	   8.3222438e-01	   5.3435016e-01	   1.0913293e-02	
   6.2865000e+01	   7.1591484e-01	   6.4652864e-01	  -6.3722939e-01	
   6.2920000e+01	   6.3180860e-01	   7.0991006e-01	  -1.0151678e+00	
   6.2975000e+01	   6.1920879e-01	   6.2328423e-01	  -1.0175804e+00	
   6.3030000e+01	   5.8651454e-01	   3.7851743e-01	  -8.5924700e-01	
   6.3085000e+01	   4.4286339e-01	   1.1940421e-01	  -7.8795604e-01	
   6.3140000e+01	   1.7966127e-01	  -5.0406082e-02	  -8.7821460e-01	
   6.3195000e+01	  -1.4464541e-01	  -2.4923267e-01	  -1.0888824e+00	
   6.3250000e+01	  -4.1962221e-01	  -6.2156747e-01	  -1.3218325e+00	
   6.3305000e+01	  -4.9735997e-01	  -9.9475987e-01	  -1.4138677e+00	
   6.3360000e+01	  -2.7708211e-01	  -9.5332181e-01	  -1.2451766e+00	
   6.3415000e+01	   1.9346682e-01	  -3.1335979e-01	  -8.7731031e-01	
   6.3470000e+01	   7.3424351e-01	   6.3047223e-01	  -5.0959345e-01	
   6.3525000e+01	   1.1706287e+00	   1.4004027e+00	  -3.1182018e-01	
   6.3580000e+01	   1.4405801e+00	   1.7562753e+00	  -3.1253502e-01	
   6.3635000e+01	   1.5731651e+00	   1.7605522e+00	  -4.1309124e-01	
   6.3690000e+01	   1.6151975e+00	   1.5624673e+00	  -4.8635963e-01	
   6.3745000e+01	   1.6046674e+00	   1.2524209e+00	  -4.7030547e-01	
   6.3800000e+01	   1.5640710e+00	   8.9137323e-01	  -3.9833330e-01	
   6.3855000e+01	   1.4773104e+00	   5.6118558e-01	  -3.5362875e-01	
   6.3910000e+01	   1.3138441e+00	   3.2960577e-01	  -3.7605464e-01	
   6.3965000e+01	   1.0995486e+00	   1.9019633e-01	  -4.2250696e-01	
   6.4020000e+01	   9.0498674e-01	   6.7069333e-02	  -4.3528185e-01	
   6.4075000e+01	   7.4946310e-01	  -1.0977837e-01	  -4.1855539e-01	
   6.4130000e+01	   5.9291046e-01	  -3.1801113e-01	  -4.2108812e-01	
   6.4185000e+01	   4.4922293e-01	  -4.2284671e-01	  -4.4486316e-01	
   6.4240000e+01	   4.3825750e-01	  -2.6595884e-01	  -3.8146103e-01	
   6.4295000e+01	   6.6620342e-01	   1.9231440e-01	  -9.5357028e-02	
   6.4350000e+01	   1.0761256e+00	   8.0952907e-01	   3.8267668e-01	
   6.4405000e+01	   1.4806791e+00	   1.3507392e+00	   7.9503219e-01	
   6.4460000e+01	   1.7490466e+00	   1.6444898e+00	   8.5629263e-01	
   6.4515000e+01	   1.8957294e+00	   1.6545267e+00	   5.1553029e-01	
   6.4570000e+01	   1.9720807e+00	   1.4491905e+00	   8.0113084e-03	
   6.4625000e+01	   1.9595129e+00	   1.1510501e+00	  -3.4216288e-01	
   6.4680000e+01	   1.8168399e+00	   8.7456893e-01	  -3.6222932e-01	
   6.4735000e+01	   1.5641742e+00	   6.4920851e-01	  -1.0795675e-01	
   6.4790000e+01	   1.2683390e+00	   4.2414081e-01	   2.2214116e-01	
   6.4845000e+01	   9.7700762e-01	   1.7378800e-01	   4.0650727e-01	
   6.4900000e+01	   6.9582037e-01	  -4.1349534e-02	   3.0743458e-01	
   6.4955000e+01	   4.2947158e-01	  -1.3288490e-01	  -3.2800687e-02	
   6.5010000e+01	   2.3988650e-01	  -5.8484622e-02	  -3.9731523e-01	
   6.5065000e+01	   2.4114066e-01	   1.8071760e-01	  -5.4723870e-01	
   6.5120000e+01	   5.0445734e-01	   5.6941354e-01	  -3.9231335e-01	
   6.5175000e+01	   9.5805414e-01	   1.0528387e+00	  -4.6741876e-02	
   6.5230000e+01	   1.4030622e+00	   1.5076418e+00	   2.5265435e-01	
   6.5285000e+01	   1.6556863e+00	   1.8014278e+00	   3.2613492e-01	
   6.5340000e+01	   1.6685631e+00	   1.8676236e+00	   1.8825039e-01	
   6.5395000e+01	   1.5081087e+00	   1.6876172e+00	  -1.7540174e-02	
   6.5450000e+01	   1.2618671e+00	   1.2727185e+00	  -1.9774298e-01	
   6.5505000e+01	   9.9970179e-01	   7.3506080e-01	  -3.5726576e-01	
   6.5560000e+01	   7.7101093e-01	   2.9628680e-01	  -5.0396428e-01	
   6.5615000e+01	   5.8075115e-01	   1.1767529e-01	  -5.9131787e-01	
   6.5670000e+01	   3.7863315e-01	   1.4150211e-01	  -5.6668131e-01	
   6.5725000e+01	   1.2103523e-01	   1.7776282e-01	  -4.3715418e-01	
   6.5780000e+01	  -1.3056514e-01	   1.4635687e-01	  -2.6068131e-01	
   6.5835000e+01	  -2.0968569e-01	   1.6505929e-01	  -8.3816174e-02	
   6.5890000e+01	   4.6624955e-03	   3.8393459e-01	   7.2212212e-02	
   6.5945000e+01	   4.5025694e-01	   7.9764976e-01	   1.7650012e-01	
   6.6000000e+01	   9.3134502e-01	   1.2504105e+00	   2.0384761e-01	
   6.6055000e+01	   1.2783794e+00	   1.5744521e+00	   1.8215615e-01	
   6.6110000e+01	   1.4229981e+00	   1.6888927e+00	   1.7006018e-01	
   6.6165000e+01	   1.3748911e+00	   1.5979526e+00	   1.9753245e-01	
   6.6220000e+01	   1.2011530e+00	   1.3406393e+00	   2.5481941e-01	
   6.6275000e+01	   9.9707102e-01	   9.6886038e-01	   3.0751771e-01	
   6.6330000e+01	   8.2078355e-01	   5.8014919e-01	   3.1037963e-01	
   6.6385000e+01	   6.7748746e-01	   3.2194954e-01	   2.3713733e-01	
   6.6440000e+01	   5.6444741e-01	   2.8065561e-01	   9.8623584e-02	
   6.6495000e+01	   4.5801543e-01	   3.6018782e-01	  -7.4953144e-02	
   6.6550000e+01	   2.6555447e-01	   3.4774098e-01	  -2.4834670e-01	
   6.6605000e+01	  -1.0348365e-01	   1.3440269e-01	  -3.6987003e-01	
   6.6660000e+01	  -5.8486798e-01	  -1.6769313e-01	  -3.6842197e-01	
   6.6715000e+01	  -9.3625814e-01	  -3.3433472e-01	  -1.8785728e-01	
   6.6770000e+01	  -9.1742749e-01	  -2.1700112e-01	   1.6077217e-01	
   6.6825000e+01	  -5.1026267e-01	   1.6393354e-01	   5.7471992e-01	
   6.6880000e+01	   5.6517866e-02	   6.5170664e-01	   8.9859440e-01	
   6.6935000e+01	   5.1279385e-01	   1.0594725e+00	   1.0119812e+00	
   6.6990000e+01	   7.4627951e-01	   1.2820030e+00	   8.8851524e-01	
   6.7045000e+01	   8.0702353e-01	   1.3435468e+00	   5.8690767e-01	
   6.7100000e+01	   8.0011361e-01	   1.3442758e+00	   2.2462172e-01	
   6.7155000e+01	   8.0351045e-01	   1.3514951e+00	  -4.1647616e-02	
   6.7210000e+01	   8.2005749e-01	   1.3423315e+00	  -7.6579039e-02	
   6.7265000e+01	   7.7183668e-01	   1.2458943e+00	   1.3339745e-01	
   6.7320000e+01	   5.8575321e-01	   1.0273445e+00	   4.3553856e-01	
   6.7375000e+01	   2.9672312e-01	   7.2636904e-01	   5.8841319e-01	
   6.7430000e+01	   1.1629460e-02	   4.0372407e-01	   4.1601081e-01	
   6.7485000e+01	  -2.3580569e-01	   5.4319707e-02	  -5.5976932e-02	
   6.7540000e+01	  -5.2492215e-01	  -3.6345464e-01	  -5.7365569e-01	
   6.7595000e+01	  -9.1158363e-01	  -7.8820137e-01	  -8.0326560e-01	
   6.7650000e+01	  -1.2996633e+00	  -1.0451647e+00	  -5.8090622e-01	
   6.7705000e+01	  -1.4913581e+00	  -1.0199584e+00	  -4.6984068e-02	
   6.7760000e+01	  -1.3503484e+00	  -7.4644067e-01	   4.6877980e-01	
   6.7815000e+01	  -9.0335470e-01	  -3.1824562e-01	   7.0422988e-01	
   6.7870000e+01	  -3.2761993e-01	   1.5388727e-01	   6.1833589e-01	
   6.7925000e+01	   1.3322607e-01	   5.0740612e-01	   3.2890315e-01	
   6.7980000e+01	   2.9827689e-01	   6.1120680e-01	  -2.0841605e-02	
   6.8035000e+01	   1.5484968e-01	   4.9718236e-01	  -3.1637512e-01	
   6.8090000e+01	  -1.5630408e-01	   3.0441825e-01	  -4.9135837e-01	
   6.8145000e+01	  -4.5916989e-01	   1.1965779e-01	  -5.5934383e-01	
   6.8200000e+01	  -6.5311731e-01	  -5.0589627e-02	  -5.8497501e-01	
   6.8255000e+01	  -7.4997233e-01	  -2.1648140e-01	  -5.9818070e-01	
   6.8310000e+01	  -8.5033219e-01	  -4.1173029e-01	  -5.8417554e-01	
   6.8365000e+01	  -1.0768476e+00	  -7.0689208e-01	  -5.4836285e-01	
   6.8420000e+01	  -1.4632675e+00	  -1.0923188e+00	  -4.9944876e-01	
   6.8475000e+01	  -1.8666001e+00	  -1.3726772e+00	  -3.7874109e-01	
   6.8530000e+01	  -2.0343927e+00	  -1.3054123e+00	  -1.1750407e-01	
   6.8585000e+01	  -1.8247600e+00	  -8.6032513e-01	   2.2717703e-01	
   6.8640000e+01	  -1.3516932e+00	  -2.6007589e-01	   4.7551269e-01	
   6.8695000e+01	  -8.7405778e-01	   2.4191325e-01	   4.7684154e-01	
   6.8750000e+01	  -5.7225057e-01	   5.3451256e-01	   2.1629976e-01	
   6.8805000e+01	  -4.7318782e-01	   5.9658928e-01	  -2.1134374e-01	
   6.8860000e+01	  -5.2574206e-01	   4.3771128e-01	  -6.5842114e-01	
   6.8915000e+01	  -6.6082095e-01	   1.7668510e-01	  -9.5823061e-01	
   6.8970000e+01	  -8.1132554e-01	   9.7978012e-03	  -1.0064320e+00	
   6.9025000e+01	  -9.5905265e-01	  -2.3206887e-02	  -8.5435139e-01	
   6.9080000e+01	  -1.1571818e+00	  -1.1099522e-01	  -6.8004525e-01	
   6.9135000e+01	  -1.4584830e+00	  -4.1715519e-01	  -6.5022037e-01	
   6.9190000e+01	  -1.8364300e+00	  -8.6476682e-01	  -7.9922533e-01	
   6.9245000e+01	  -2.1906246e+00	  -1.2203311e+00	  -9.9698807e-01	
   6.9300000e+01	  -2.3881874e+00	  -1.2866798e+00	  -1.0264821e+00	
   6.9355000e+01	  -2.3084901e+00	  -1.0052449e+00	  -7.4438152e-01	
   6.9410000e+01	  -1.9262649e+00	  -4.8497833e-01	  -2.2533934e-01	
   6.9465000e+01	  -1.3812407e+00	   4.9671241e-02	   2.3679555e-01	
   6.9520000e+01	  -9.2000849e-01	   3.9920345e-01	   3.2887895e-01	
   6.9575000e+01	  -7.2028647e-01	   4.9439569e-01	  -2.1169319e-02	
   6.9630000e+01	  -7.6481508e-01	   3.9148132e-01	  -5.9743843e-01	
   6.9685000e+01	  -9.0523075e-01	   2.0538478e-01	  -1.1181833e+00	
   6.9740000e+01	  -1.0372699e+00	   3.4452720e-02	  -1.4467170e+00	
   6.9795000e+01	  -1.1746976e+00	  -8.0017784e-02	  -1.5694762e+00	
   6.9850000e+01	  -1.3706374e+00	  -1.4518420e-01	  -1.5044753e+00	
   6.9905000e+01	  -1.6356966e+00	  -2.0833473e-01	  -1.3508977e+00	
   6.9960000e+01	  -1.9426385e+00	  -3.6422795e-01	  -1.3049182e+00	
   7.0015000e+01	  -2.2615911e+00	  -7.0507802e-01	  -1.4667218e+00	
   7.0070000e+01	  -2.5698745e+00	  -1.2046484e+00	  -1.7110674e+00	
   7.0125000e+01	  -2.8282688e+00	  -1.6687775e+00	  -1.8406279e+00	
   7.0180000e+01	  -2.9414365e+00	  -1.8444905e+00	  -1.7731499e+00	
   7.0235000e+01	  -2.7792513e+00	  -1.6109857e+00	  -1.5282348e+00	
   7.0290000e+01	  -2.3076286e+00	  -1.0850426e+00	  -1.1487198e+00	
   7.0345000e+01	  -1.6940444e+00	  -5.3791816e-01	  -7.2935583e-01	
   7.0400000e+01	  -1.2053039e+00	  -1.9472320e-01	  -4.4407337e-01	
   7.0455000e+01	  -9.7761688e-01	  -8.4252323e-02	  -4.1526770e-01	
   7.0510000e+01	  -9.4178965e-01	  -5.4866144e-02	  -5.8484052e-01	
   7.0565000e+01	  -9.8485889e-01	   4.0516744e-02	  -8.1084350e-01	
   7.0620000e+01	  -1.1042569e+00	   1.5851857e-01	  -1.0368386e+00	
   7.0675000e+01	  -1.3465071e+00	   1.1165811e-01	  -1.2846313e+00	
   7.0730000e+01	  -1.6639058e+00	  -1.8752463e-01	  -1.5633447e+00	
   7.0785000e+01	  -1.9365907e+00	  -5.9979191e-01	  -1.8731676e+00	
   7.0840000e+01	  -2.1249122e+00	  -9.1234361e-01	  -2.2291817e+00	
   7.0895000e+01	  -2.3141767e+00	  -1.0664840e+00	  -2.5941823e+00	
   7.0950000e+01	  -2.5948881e+00	  -1.1815564e+00	  -2.8254017e+00	
   7.1005000e+01	  -2.9527986e+00	  -1.3752469e+00	  -2.7758032e+00	
   7.1060000e+01	  -3.2784994e+00	  -1.6281428e+00	  -2.4565671e+00	
   7.1115000e+01	  -3.4283321e+00	  -1.8287386e+00	  -2.0474815e+00	
   7.1170000e+01	  -3.2818214e+00	  -1.8585062e+00	  -1.7386001e+00	
   7.1225000e+01	  -2.8258087e+00	  -1.6188782e+00	  -1.5917378e+00	
   7.1280000e+01	  -2.2194139e+00	  -1.1128872e+00	  -1.5457734e+00	
   7.1335000e+01	  -1.7169227e+00	  -5.4114462e-01	  -1.5099732e+00	
   7.1390000e+01	  -1.4804109e+00	  -1.8030311e-01	  -1.4490962e+00	
   7.1445000e+01	  -1.4933938e+00	  -1.3594613e-01	  -1.4227132e+00	
   7.1500000e+01	  -1.6588320e+00	  -3.1390688e-01	  -1.5560865e+00	
   7.1555000e+01	  -1.9088049e+00	  -5.9248514e-01	  -1.9299628e+00	
   7.1610000e+01	  -2.1930265e+00	  -9.0854226e-01	  -2.4526455e+00	
   7.1665000e+01	  -2.4454426e+00	  -1.2153402e+00	  -2.8631027e+00	
   7.1720000e+01	  -2.6357816e+00	  -1.4619895e+00	  -2.9396216e+00	
   7.1775000e+01	  -2.8207784e+00	  -1.6420762e+00	  -2.7212843e+00	
   7.1830000e+01	  -3.0703353e+00	  -1.8297559e+00	  -2.4575236e+00	
   7.1885000e+01	  -3.3313886e+00	  -2.1013641e+00	  -2.3312340e+00	
   7.1940000e+01	  -3.4208382e+00	  -2.3826282e+00	  -2.3016155e+00	
   7.1995000e+01	  -3.2006194e+00	  -2.4390161e+00	  -2.2252117e+00	
   7.2050000e+01	  -2.7449026e+00	  -2.0901520e+00	  -2.0537251e+00	
   7.2105000e+01	  -2.2953776e+00	  -1.4136984e+00	  -1.8781670e+00	
   7.2160000e+01	  -2.0597717e+00	  -7.2737708e-01	  -1.8246720e+00	
   7.2215000e+01	  -2.0752151e+00	  -3.8369227e-01	  -1.9570978e+00	
   7.2270000e+01	  -2.2327365e+00	  -5.1844621e-01	  -2.2675984e+00	
   7.2325000e+01	  -2.3959899e+00	  -9.4086541e-01	  -2.6896552e+00	
   7.2380000e+01	  -2.5105100e+00	  -1.2912538e+00	  -3.0840269e+00	
   7.2435000e+01	  -2.6150755e+00	  -1.3335667e+00	  -3.2713421e+00	
   7.2490000e+01	  -2.7578594e+00	  -1.1159651e+00	  -3.1516990e+00	
   7.2545000e+01	  -2.9419853e+00	  -9.0324662e-01	  -2.8087669e+00	
   7.2600000e+01	  -3.1671955e+00	  -9.8518433e-01	  -2.4815328e+00	
   7.2655000e+01	  -3.4558326e+00	  -1.4602299e+00	  -2.3944893e+00	
   7.2710000e+01	  -3.7641620e+00	  -2.0887914e+00	  -2.5645734e+00	
   7.2765000e+01	  -3.9119820e+00	  -2.4102625e+00	  -2.7809359e+00	
   7.2820000e+01	  -3.7233235e+00	  -2.1360232e+00	  -2.8194767e+00	
   7.2875000e+01	  -3.2514008e+00	  -1.4251567e+00	  -2.6639515e+00	
   7.2930000e+01	  -2.7633349e+00	  -7.0660416e-01	  -2.4842027e+00	
   7.2985000e+01	  -2.4891926e+00	  -2.6897559e-01	  -2.4466043e+00	
   7.3040000e+01	  -2.4572942e+00	  -1.0644010e-01	  -2.5960912e+00	
   7.3095000e+01	  -2.5526104e+00	  -1.0371489e-01	  -2.8645831e+00	
   7.3150000e+01	  -2.6499860e+00	  -2.1032174e-01	  -3.1240459e+00	
   7.3205000e+01	  -2.6890316e+00	  -4.1618823e-01	  -3.2645266e+00	
   7.3260000e+01	  -2.6886140e+00	  -6.9044448e-01	  -3.2810201e+00	
   7.3315000e+01	  -2.7307601e+00	  -1.0112737e+00	  -3.2861798e+00	
   7.3370000e+01	  -2.9119390e+00	  -1.3908132e+00	  -3.4094759e+00	
   7.3425000e+01	  -3.2655873e+00	  -1.8068157e+00	  -3.6551770e+00	
   7.3480000e+01	  -3.7080294e+00	  -2.1429595e+00	  -3.8545306e+00	
   7.3535000e+01	  -4.0539901e+00	  -2.2542246e+00	  -3.7866677e+00	
   7.3590000e+01	  -4.1019226e+00	  -2.0869688e+00	  -3.3716265e+00	
   7.3645000e+01	  -3.7616926e+00	  -1.7170233e+00	  -2.7584713e+00	
   7.3700000e+01	  -3.1352340e+00	  -1.2788257e+00	  -2.2330734e+00	
   7.3755000e+01	  -2.4573435e+00	  -8.5731270e-01	  -2.0226948e+00	
   7.3810000e+01	  -1.9518309e+00	  -4.5953396e-01	  -2.1607933e+00	
   7.3865000e+01	  -1.7368416e+00	  -1.1170209e-01	  -2.5085514e+00	
   7.3920000e+01	  -1.8155634e+00	   7.1759314e-02	  -2.8700120e+00	
   7.3975000e+01	  -2.0983567e+00	  -3.2879236e-03	  -3.0974480e+00	
   7.4030000e+01	  -2.4231452e+00	  -2.6439235e-01	  -3.1417615e+00	
   7.4085000e+01	  -2.6238763e+00	  -5.2253965e-01	  -3.0374540e+00	
   7.4140000e+01	  -2.6673003e+00	  -6.8064733e-01	  -2.8651084e+00	
   7.4195000e+01	  -2.7059197e+00	  -8.4135987e-01	  -2.7340889e+00	
   7.4250000e+01	  -2.9227152e+00	  -1.1665927e+00	  -2.7423050e+00	
   7.4305000e+01	  -3.3224689e+00	  -1.6445339e+00	  -2.9078366e+00	
   7.4360000e+01	  -3.7037452e+00	  -2.0513826e+00	  -3.1534466e+00	
   7.4415000e+01	  -3.8178382e+00	  -2.1445053e+00	  -3.3492067e+00	
   7.4470000e+01	  -3.5496894e+00	  -1.8371677e+00	  -3.3792721e+00	
   7.4525000e+01	  -2.9956503e+00	  -1.2017927e+00	  -3.2368477e+00	
   7.4580000e+01	  -2.4019436e+00	  -4.0066697e-01	  -3.0524902e+00	
   7.4635000e+01	  -1.9986592e+00	   3.5348423e-01	  -2.9628129e+00	
   7.4690000e+01	  -1.8486951e+00	   8.5272660e-01	  -2.9656440e+00	
   7.4745000e+01	  -1.8405358e+00	   9.9010542e-01	  -2.9579104e+00	
   7.4800000e+01	  -1.8364335e+00	   7.9343349e-01	  -2.8952553e+00	
   7.4855000e+01	  -1.8301862e+00	   3.6636383e-01	  -2.8467949e+00	
   7.4910000e+01	  -1.9282277e+00	  -1.5233326e-01	  -2.8831771e+00	
   7.4965000e+01	  -2.1743393e+00	  -5.9499874e-01	  -2.9732999e+00	
   7.5020000e+01	  -2.4707318e+00	  -8.3399391e-01	  -3.0204344e+00	
   7.5075000e+01	  -2.7139199e+00	  -8.9278149e-01	  -2.9784842e+00	
   7.5130000e+01	  -2.9312049e+00	  -9.4714290e-01	  -2.9252138e+00	
   7.5185000e+01	  -3.2114663e+00	  -1.1612916e+00	  -2.9960067e+00	
   7.5240000e+01	  -3.5445536e+00	  -1.5146620e+00	  -3.2137638e+00	
   7.5295000e+01	  -3.7888581e+00	  -1.8013928e+00	  -3.4203952e+00	
   7.5350000e+01	  -3.7809745e+00	  -1.7824257e+00	  -3.4121025e+00	
   7.5405000e+01	  -3.4610611e+00	  -1.3433384e+00	  -3.1232472e+00	
   7.5460000e+01	  -2.9209643e+00	  -5.8306192e-01	  -2.6841794e+00	
   7.5515000e+01	  -2.3501443e+00	   1.9652830e-01	  -2.3270715e+00	
   7.5570000e+01	  -1.9314249e+00	   6.4491809e-01	  -2.2261092e+00	
   7.5625000e+01	  -1.7651540e+00	   6.0434097e-01	  -2.4000323e+00	
   7.5680000e+01	  -1.8399117e+00	   2.3821116e-01	  -2.7303364e+00	
   7.5735000e+01	  -2.0466843e+00	  -1.1960706e-01	  -3.0526593e+00	
   7.5790000e+01	  -2.2503826e+00	  -2.7845518e-01	  -3.2562473e+00	
   7.5845000e+01	  -2.3742018e+00	  -3.0804764e-01	  -3.3133582e+00	
   7.5900000e+01	  -2.4212448e+00	  -3.4838848e-01	  -3.2315416e+00	
   7.5955000e+01	  -2.4552581e+00	  -4.4317906e-01	  -3.0409657e+00	
   7.6010000e+01	  -2.5794619e+00	  -6.0454236e-01	  -2.8381436e+00	
   7.6065000e+01	  -2.8473547e+00	  -8.7207206e-01	  -2.7562484e+00	
   7.6120000e+01	  -3.1386260e+00	  -1.1912180e+00	  -2.8469435e+00	
   7.6175000e+01	  -3.2151103e+00	  -1.3398669e+00	  -3.0195257e+00	
   7.6230000e+01	  -2.9598182e+00	  -1.0943538e+00	  -3.1034169e+00	
   7.6285000e+01	  -2.4916260e+00	  -4.5752193e-01	  -2.9701799e+00	
   7.6340000e+01	  -2.0344179e+00	   2.8293907e-01	  -2.6327438e+00	
   7.6395000e+01	  -1.7560660e+00	   7.2156880e-01	  -2.2549768e+00	
   7.6450000e+01	  -1.7109396e+00	   6.5206829e-01	  -2.0467252e+00	
   7.6505000e+01	  -1.8259140e+00	   2.6834701e-01	  -2.1028751e+00	
   7.6560000e+01	  -1.9441248e+00	  -2.1535194e-02	  -2.3166970e+00	
   7.6615000e+01	  -1.9710260e+00	  -1.2715781e-02	  -2.4699082e+00	
   7.6670000e+01	  -1.9782895e+00	   1.2502004e-01	  -2.4371791e+00	
   7.6725000e+01	  -2.1069327e+00	   9.6919267e-02	  -2.3044459e+00	
   7.6780000e+01	  -2.3889901e+00	  -1.9616403e-01	  -2.2732476e+00	
   7.6835000e+01	  -2.7238811e+00	  -6.3641721e-01	  -2.4493287e+00	
   7.6890000e+01	  -2.9977285e+00	  -1.0713663e+00	  -2.7463174e+00	
   7.6945000e+01	  -3.1428295e+00	  -1.3749814e+00	  -2.9823899e+00	
   7.7000000e+01	  -3.1018759e+00	  -1.3831466e+00	  -3.0153249e+00	
   7.7055000e+01	  -2.8404224e+00	  -9.7025103e-01	  -2.8053300e+00	
   7.7110000e+01	  -2.4180615e+00	  -2.5554704e-01	  -2.4404508e+00	
   7.7165000e+01	  -1.9824022e+00	   3.9231017e-01	  -2.1055431e+00	
   7.7220000e+01	  -1.6718224e+00	   6.5442438e-01	  -1.9495207e+00	
   7.7275000e+01	  -1.5447187e+00	   5.3188245e-01	  -1.9629568e+00	
   7.7330000e+01	  -1.5867463e+00	   2.6136999e-01	  -2.0196380e+00	
   7.7385000e+01	  -1.7478659e+00	   1.8726806e-02	  -2.0364392e+00	
   7.7440000e+01	  -1.9616076e+00	  -1.8179944e-01	  -2.0470130e+00	
   7.7495000e+01	  -2.1640640e+00	  -3.5964261e-01	  -2.1115666e+00	
   7.7550000e+01	  -2.3418970e+00	  -5.2924772e-01	  -2.2261987e+00	
   7.7605000e+01	  -2.5506559e+00	  -7.6345653e-01	  -2.3511879e+00	
   7.7660000e+01	  -2.8387893e+00	  -1.1107226e+00	  -2.4535372e+00	
   7.7715000e+01	  -3.1565850e+00	  -1.4544188e+00	  -2.4993744e+00	
   7.7770000e+01	  -3.3687116e+00	  -1.5891080e+00	  -2.4692919e+00	
   7.7825000e+01	  -3.3482677e+00	  -1.4275276e+00	  -2.3775127e+00	
   7.7880000e+01	  -3.0554276e+00	  -1.0458035e+00	  -2.2325295e+00	
   7.7935000e+01	  -2.5651964e+00	  -5.5149759e-01	  -2.0164604e+00	
   7.7990000e+01	  -2.0485351e+00	  -1.2554258e-03	  -1.7515678e+00	
   7.8045000e+01	  -1.6930641e+00	   5.3545120e-01	  -1.5523301e+00	
   7.8100000e+01	  -1.5792015e+00	   9.1325894e-01	  -1.5443100e+00	
   7.8155000e+01	  -1.6286710e+00	   9.8494857e-01	  -1.7166841e+00	
   7.8210000e+01	  -1.7158718e+00	   7.2839619e-01	  -1.9019695e+00	
   7.8265000e+01	  -1.8090653e+00	   2.7429943e-01	  -1.9432300e+00	
   7.8320000e+01	  -1.9539074e+00	  -1.7469388e-01	  -1.8602724e+00	
   7.8375000e+01	  -2.1626266e+00	  -4.6202567e-01	  -1.8032442e+00	
   7.8430000e+01	  -2.3973914e+00	  -5.7626537e-01	  -1.8621087e+00	
   7.8485000e+01	  -2.6426977e+00	  -6.5283583e-01	  -1.9902378e+00	
   7.8540000e+01	  -2.9188125e+00	  -8.4947758e-01	  -2.1092905e+00	
   7.8595000e+01	  -3.2218505e+00	  -1.2266788e+00	  -2.2266816e+00	
   7.8650000e+01	  -3.4880236e+00	  -1.7216550e+00	  -2.4146544e+00	
   7.8705000e+01	  -3.5995603e+00	  -2.1241440e+00	  -2.6485204e+00	
   7.8760000e+01	  -3.4270604e+00	  -2.0993351e+00	  -2.7061898e+00	
   7.8815000e+01	  -2.9362722e+00	  -1.4366952e+00	  -2.3558871e+00	
   7.8870000e+01	  -2.2783409e+00	  -3.4536961e-01	  -1.6746349e+00	
   7.8925000e+01	  -1.7237317e+00	   6.2255012e-01	  -1.0652331e+00	
   7.8980000e+01	  -1.4717347e+00	   1.0251771e+00	  -8.7861062e-01	
   7.9035000e+01	  -1.5222907e+00	   8.7424405e-01	  -1.0761325e+00	
   7.9090000e+01	  -1.7237637e+00	   4.9499281e-01	  -1.3530774e+00	
   7.9145000e+01	  -1.9234647e+00	   1.2699211e-01	  -1.5332330e+00	
   7.9200000e+01	  -2.0618965e+00	  -2.0564474e-01	  -1.6751285e+00	
   7.9255000e+01	  -2.1574558e+00	  -4.8641832e-01	  -1.8118241e+00	
   7.9310000e+01	  -2.2680623e+00	  -6.2241663e-01	  -1.8195094e+00	
   7.9365000e+01	  -2.4733661e+00	  -6.5108516e-01	  -1.6290406e+00	
   7.9420000e+01	  -2.8102490e+00	  -7.9418164e-01	  -1.3873327e+00	
   7.9475000e+01	  -3.1741413e+00	  -1.1331244e+00	  -1.2796119e+00	
   7.9530000e+01	  -3.3427416e+00	  -1.3924812e+00	  -1.2977095e+00	
   7.9585000e+01	  -3.1687154e+00	  -1.2350834e+00	  -1.3011768e+00	
   7.9640000e+01	  -2.7310861e+00	  -6.8497383e-01	  -1.2275677e+00	
   7.9695000e+01	  -2.2569768e+00	  -9.9517519e-02	  -1.1293396e+00	
   7.9750000e+01	  -1.9358276e+00	   2.1336891e-01	  -1.0689868e+00	
   7.9805000e+01	  -1.8450288e+00	   2.1009897e-01	  -1.0762011e+00	
   7.9860000e+01	  -1.9689428e+00	   2.0845080e-02	  -1.1484058e+00	
   7.9915000e+01	  -2.2072914e+00	  -1.9979851e-01	  -1.2292069e+00	
   7.9970000e+01	  -2.4245607e+00	  -3.6273505e-01	  -1.2641622e+00	
   8.0025000e+01	  -2.5652324e+00	  -4.8562668e-01	  -1.3168610e+00	
   8.0080000e+01	  -2.6898742e+00	  -6.4366841e-01	  -1.5145035e+00	
   8.0135000e+01	  -2.8765221e+00	  -8.7600691e-01	  -1.8235581e+00	
   8.0190000e+01	  -3.1391493e+00	  -1.1804469e+00	  -2.0122130e+00	
   8.0245000e+01	  -3.4380694e+00	  -1.5502283e+00	  -1.9209372e+00	
   8.0300000e+01	  -3.6831585e+00	  -1.9083535e+00	  -1.6478804e+00	
   8.0355000e+01	  -3.7235873e+00	  -2.0464253e+00	  -1.3859818e+00	
   8.0410000e+01	  -3.4388180e+00	  -1.7730083e+00	  -1.2120482e+00	
   8.0465000e+01	  -2.8861353e+00	  -1.1348189e+00	  -1.1070258e+00	
   8.0520000e+01	  -2.3059695e+00	  -4.0932372e-01	  -1.0446606e+00	
   8.0575000e+01	  -1.9393215e+00	   1.0752600e-01	  -1.0034399e+00	
   8.0630000e+01	  -1.8470481e+00	   2.7088930e-01	  -9.8707825e-01	
   8.0685000e+01	  -1.9162415e+00	   1.2130290e-01	  -1.0321324e+00	
   8.0740000e+01	  -2.0123858e+00	  -1.7323514e-01	  -1.1214789e+00	
   8.0795000e+01	  -2.0856295e+00	  -4.3095008e-01	  -1.1401165e+00	
   8.0850000e+01	  -2.1585937e+00	  -5.7039802e-01	  -1.0110213e+00	
   8.0905000e+01	  -2.2883003e+00	  -6.5193471e-01	  -8.3686647e-01	
   8.0960000e+01	  -2.5440554e+00	  -8.1775633e-01	  -8.1389041e-01	
   8.1015000e+01	  -2.9407218e+00	  -1.1512229e+00	  -1.0092065e+00	
   8.1070000e+01	  -3.3533821e+00	  -1.5345732e+00	  -1.2746014e+00	
   8.1125000e+01	  -3.5498434e+00	  -1.6807388e+00	  -1.3782520e+00	
   8.1180000e+01	  -3.3550736e+00	  -1.3991295e+00	  -1.1975853e+00	
   8.1235000e+01	  -2.7880962e+00	  -7.9623713e-01	  -8.0576698e-01	
   8.1290000e+01	  -2.0655613e+00	  -1.4978089e-01	  -4.1333171e-01	
   8.1345000e+01	  -1.4966221e+00	   3.2682665e-01	  -2.2126202e-01	
   8.1400000e+01	  -1.3072334e+00	   5.5674706e-01	  -2.8550422e-01	
   8.1455000e+01	  -1.4702528e+00	   5.8953356e-01	  -4.8966912e-01	
   8.1510000e+01	  -1.7163286e+00	   5.8073149e-01	  -6.4904376e-01	
   8.1565000e+01	  -1.7801039e+00	   6.5936822e-01	  -6.6116031e-01	
   8.1620000e+01	  -1.6380748e+00	   7.7964829e-01	  -5.6440028e-01	
   8.1675000e+01	  -1.4868559e+00	   7.8202386e-01	  -4.7262603e-01	
   8.1730000e+01	  -1.5305557e+00	   5.7914299e-01	  -5.0471590e-01	
   8.1785000e+01	  -1.8273971e+00	   2.0444141e-01	  -7.4984378e-01	
   8.1840000e+01	  -2.2988898e+00	  -2.5960135e-01	  -1.1781688e+00	
   8.1895000e+01	  -2.7949821e+00	  -6.7381300e-01	  -1.5570242e+00	
   8.1950000e+01	  -3.1275336e+00	  -8.1262654e-01	  -1.5624506e+00	
   8.2005000e+01	  -3.1356998e+00	  -5.2039631e-01	  -1.0476678e+00	
   8.2060000e+01	  -2.8052988e+00	   7.2346757e-02	  -2.0379696e-01	
   8.2115000e+01	  -2.2924926e+00	   6.1667750e-01	   5.4460981e-01	
   8.2170000e+01	  -1.7780459e+00	   8.6123316e-01	   8.3672642e-01	
   8.2225000e+01	  -1.3386537e+00	   8.1751112e-01	   6.4523107e-01	
   8.2280000e+01	  -9.9420540e-01	   6.4994248e-01	   2.8170333e-01	
   8.2335000e+01	  -7.9852326e-01	   5.3478612e-01	   1.1318393e-01	
   8.2390000e+01	  -7.9973516e-01	   5.9507243e-01	   2.5302491e-01	
   8.2445000e+01	  -9.4624724e-01	   8.2718706e-01	   5.0256127e-01	
   8.2500000e+01	  -1.1101312e+00	   1.0700133e+00	   5.7030390e-01	
   8.2555000e+01	  -1.2147963e+00	   1.1229188e+00	   3.5668427e-01	
   8.2610000e+01	  -1.2997029e+00	   9.0159094e-01	   3.0079505e-02	
   8.2665000e+01	  -1.4550029e+00	   4.5468987e-01	  -1.7989818e-01	
   8.2720000e+01	  -1.7177619e+00	  -9.3400669e-02	  -2.1116972e-01	
   8.2775000e+01	  -2.0050630e+00	  -5.3261167e-01	  -1.4118948e-01	
   8.2830000e+01	  -2.1263415e+00	  -6.0281378e-01	  -2.2286192e-03	
   8.2885000e+01	  -1.9306879e+00	  -2.1175260e-01	   2.5928061e-01	
   8.2940000e+01	  -1.4847829e+00	   3.9302109e-01	   6.3398215e-01	
   8.2995000e+01	  -1.0411720e+00	   8.0972937e-01	   9.5835722e-01	
   8.3050000e+01	  -8.0255946e-01	   8.6582330e-01	   1.0421336e+00	
   8.3105000e+01	  -7.7526918e-01	   7.2499834e-01	   8.5567172e-01	
   8.3160000e+01	  -8.5206950e-01	   6.2587166e-01	   5.4575727e-01	
   8.3215000e+01	  -9.5370056e-01	   6.4919306e-01	   2.9946974e-01	
   8.3270000e+01	  -1.0628797e+00	   7.4089381e-01	   2.2837079e-01	
   8.3325000e+01	  -1.1842185e+00	   7.9538713e-01	   3.2129984e-01	
   8.3380000e+01	  -1.3248138e+00	   6.9005146e-01	   4.3198402e-01	
   8.3435000e+01	  -1.5048862e+00	   3.8623714e-01	   3.6502347e-01	
   8.3490000e+01	  -1.7517476e+00	   1.0743274e-02	   6.9243517e-02	
   8.3545000e+01	  -2.0560746e+00	  -2.5937016e-01	  -2.7352627e-01	
   8.3600000e+01	  -2.3204651e+00	  -3.5317597e-01	  -3.9980115e-01	
   8.3655000e+01	  -2.3689911e+00	  -2.7479042e-01	  -1.7756752e-01	
   8.3710000e+01	  -2.0651814e+00	  -6.6689280e-04	   3.1496718e-01	
   8.3765000e+01	  -1.4667516e+00	   4.7343968e-01	   8.4173815e-01	
   8.3820000e+01	  -8.4481188e-01	   1.0147735e+00	   1.1526493e+00	
   8.3875000e+01	  -4.9423286e-01	   1.4024250e+00	   1.1539287e+00	
   8.3930000e+01	  -5.0048084e-01	   1.5205116e+00	   9.4958637e-01	
   8.3985000e+01	  -7.0729144e-01	   1.4398202e+00	   7.0896847e-01	
   8.4040000e+01	  -9.0901075e-01	   1.2939893e+00	   5.1988350e-01	
   8.4095000e+01	  -1.0378689e+00	   1.1286205e+00	   3.7900650e-01	
   8.4150000e+01	  -1.1633990e+00	   9.0342813e-01	   2.7728195e-01	
   8.4205000e+01	  -1.3741047e+00	   5.9891251e-01	   2.1652095e-01	
   8.4260000e+01	  -1.7042575e+00	   2.5036598e-01	   1.3953820e-01	
   8.4315000e+01	  -2.1284378e+00	  -1.0492333e-01	  -4.0416665e-02	
   8.4370000e+01	  -2.5512253e+00	  -4.2092485e-01	  -2.6662262e-01	
   8.4425000e+01	  -2.8029612e+00	  -5.8288774e-01	  -2.8115550e-01	
   8.4480000e+01	  -2.7171122e+00	  -4.5633755e-01	   1.4465069e-01	
   8.4535000e+01	  -2.2684580e+00	  -2.8884965e-02	   9.2987929e-01	
   8.4590000e+01	  -1.6281984e+00	   5.5873537e-01	   1.7212379e+00	
   8.4645000e+01	  -1.0499267e+00	   1.1304749e+00	   2.2244079e+00	
   8.4700000e+01	  -7.0234820e-01	   1.5560511e+00	   2.4082426e+00	
   8.4755000e+01	  -6.1175921e-01	   1.7327219e+00	   2.3568414e+00	
   8.4810000e+01	  -7.0697680e-01	   1.6105337e+00	   2.0615937e+00	
   8.4865000e+01	  -8.6949850e-01	   1.2765059e+00	   1.4864024e+00	
   8.4920000e+01	  -9.8296159e-01	   9.2906591e-01	   7.7420356e-01	
   8.4975000e+01	  -1.0097221e+00	   7.2624310e-01	   2.3897564e-01	
   8.5030000e+01	  -1.0197130e+00	   6.8983108e-01	   1.0820209e-01	
   8.5085000e+01	  -1.1107265e+00	   7.2835042e-01	   3.1774736e-01	
   8.5140000e+01	  -1.3294398e+00	   6.8812850e-01	   5.7166520e-01	
   8.5195000e+01	  -1.6904553e+00	   4.2783715e-01	   5.8693726e-01	
   8.5250000e+01	  -2.1900064e+00	  -5.8801889e-02	   3.1788288e-01	
   8.5305000e+01	  -2.7211757e+00	  -5.8350867e-01	   8.6954048e-03	
   8.5360000e+01	  -3.0263572e+00	  -8.6727509e-01	   1.3811031e-02	
   8.5415000e+01	  -2.8553789e+00	  -7.3808141e-01	   4.8495956e-01	
   8.5470000e+01	  -2.2194981e+00	  -2.5951167e-01	   1.2096204e+00	
   8.5525000e+01	  -1.4368950e+00	   3.1852597e-01	   1.7915642e+00	
   8.5580000e+01	  -8.8414916e-01	   7.4028609e-01	   1.9843714e+00	
   8.5635000e+01	  -7.1651756e-01	   9.0171477e-01	   1.8251356e+00	
   8.5690000e+01	  -8.2119176e-01	   8.7450389e-01	   1.4933057e+00	
   8.5745000e+01	  -9.8773130e-01	   8.1139866e-01	   1.1210200e+00	
   8.5800000e+01	  -1.0926577e+00	   8.3087042e-01	   7.5077348e-01	
   8.5855000e+01	  -1.1421164e+00	   9.4854875e-01	   4.2392151e-01	
   8.5910000e+01	  -1.1960595e+00	   1.0746497e+00	   2.3977836e-01	
   8.5965000e+01	  -1.3020396e+00	   1.0775566e+00	   2.6819635e-01	
   8.6020000e+01	  -1.4948013e+00	   8.5171114e-01	   4.1977306e-01	
   8.6075000e+01	  -1.8040019e+00	   3.6035860e-01	   4.8760166e-01	
   8.6130000e+01	  -2.2063497e+00	  -2.8484959e-01	   3.6002412e-01	
   8.6185000e+01	  -2.5637933e+00	  -7.8183293e-01	   1.7359792e-01	
   8.6240000e+01	  -2.6691786e+00	  -8.1695040e-01	   2.2932816e-01	
   8.6295000e+01	  -2.4156364e+00	  -3.6163291e-01	   7.0824771e-01	
   8.6350000e+01	  -1.9145164e+00	   2.8094463e-01	   1.4370807e+00	
   8.6405000e+01	  -1.4057945e+00	   7.8226524e-01	   1.9856718e+00	
   8.6460000e+01	  -1.0607779e+00	   1.0702248e+00	   2.0394653e+00	
   8.6515000e+01	  -9.0246096e-01	   1.2393057e+00	   1.6561053e+00	
   8.6570000e+01	  -8.7584485e-01	   1.2995090e+00	   1.1632195e+00	
   8.6625000e+01	  -9.3061623e-01	   1.1701904e+00	   8.4151649e-01	
   8.6680000e+01	  -1.0515921e+00	   8.5815588e-01	   7.1062633e-01	
   8.6735000e+01	  -1.2451636e+00	   5.0080124e-01	   5.9785873e-01	
   8.6790000e+01	  -1.4885881e+00	   2.5889462e-01	   3.7258278e-01	
   8.6845000e+01	  -1.7090852e+00	   2.2015649e-01	   7.9457908e-02	
   8.6900000e+01	  -1.8584555e+00	   3.3525565e-01	  -1.4567972e-01	
   8.6955000e+01	  -1.9915798e+00	   4.0830977e-01	  -2.3448354e-01	
   8.7010000e+01	  -2.2008540e+00	   2.4211004e-01	  -2.0308299e-01	
   8.7065000e+01	  -2.4624781e+00	  -1.3624812e-01	  -3.3572627e-02	
   8.7120000e+01	  -2.6140614e+00	  -4.4478479e-01	   3.5459012e-01	
   8.7175000e+01	  -2.5176684e+00	  -4.0765741e-01	   9.4880579e-01	
   8.7230000e+01	  -2.2010690e+00	  -1.2501653e-02	   1.5144264e+00	
   8.7285000e+01	  -1.8024204e+00	   5.3781765e-01	   1.7323623e+00	
   8.7340000e+01	  -1.4196753e+00	   1.0408339e+00	   1.4976601e+00	
   8.7395000e+01	  -1.0816430e+00	   1.3699017e+00	   1.0202100e+00	
   8.7450000e+01	  -8.4442239e-01	   1.4377768e+00	   6.1131213e-01	
   8.7505000e+01	  -8.1809962e-01	   1.2408721e+00	   4.1904688e-01	
   8.7560000e+01	  -1.0581055e+00	   9.2354853e-01	   3.6120822e-01	
   8.7615000e+01	  -1.4757567e+00	   6.8347276e-01	   2.4851397e-01	
   8.7670000e+01	  -1.8889416e+00	   5.8517625e-01	  -2.7313155e-02	
   8.7725000e+01	  -2.1578582e+00	   5.1064624e-01	  -3.7742100e-01	
   8.7780000e+01	  -2.2909389e+00	   2.7821127e-01	  -5.9964944e-01	
   8.7835000e+01	  -2.4382388e+00	  -2.1397884e-01	  -5.9916419e-01	
   8.7890000e+01	  -2.7397884e+00	  -8.7314164e-01	  -4.5751108e-01	
   8.7945000e+01	  -3.1296342e+00	  -1.3751567e+00	  -2.5261230e-01	
   8.8000000e+01	  -3.3212102e+00	  -1.3614440e+00	   7.1693326e-02	
   8.8055000e+01	  -3.0620735e+00	  -7.8613943e-01	   5.5854557e-01	
   8.8110000e+01	  -2.4079385e+00	   5.2616400e-03	   1.0420786e+00	
   8.8165000e+01	  -1.6929740e+00	   6.0067883e-01	   1.2350078e+00	
   8.8220000e+01	  -1.2324716e+00	   8.3682692e-01	   1.0079806e+00	
   8.8275000e+01	  -1.0954734e+00	   7.9838166e-01	   4.9557880e-01	
   8.8330000e+01	  -1.1428884e+00	   6.6849746e-01	  -6.0121890e-02	
   8.8385000e+01	  -1.2148363e+00	   6.1846014e-01	  -4.9614816e-01	
   8.8440000e+01	  -1.2601699e+00	   7.1021409e-01	  -7.8233723e-01	
   8.8495000e+01	  -1.3184614e+00	   8.4219242e-01	  -9.6728381e-01	
   8.8550000e+01	  -1.4127617e+00	   8.4526228e-01	  -1.0890666e+00	
   8.8605000e+01	  -1.4975650e+00	   6.5968709e-01	  -1.1277569e+00	
   8.8660000e+01	  -1.5415335e+00	   3.7105003e-01	  -1.0528020e+00	
   8.8715000e+01	  -1.6350945e+00	   5.4456723e-02	  -9.2002939e-01	
   8.8770000e+01	  -1.9399885e+00	  -3.2406526e-01	  -8.8555116e-01	
   8.8825000e+01	  -2.4824794e+00	  -7.6088805e-01	  -1.0495601e+00	
   8.8880000e+01	  -3.0292067e+00	  -1.0486907e+00	  -1.2728299e+00	
   8.8935000e+01	  -3.2419170e+00	  -9.2604876e-01	  -1.2423974e+00	
   8.8990000e+01	  -2.9783160e+00	  -4.0873632e-01	  -7.8628631e-01	
   8.9045000e+01	  -2.4093727e+00	   1.7386524e-01	  -1.0161436e-01	
   8.9100000e+01	  -1.8434885e+00	   5.2670252e-01	   3.6168933e-01	
   8.9155000e+01	  -1.4857463e+00	   6.5362621e-01	   2.7810429e-01	
   8.9210000e+01	  -1.3656256e+00	   7.2523299e-01	  -2.6294774e-01	
   8.9265000e+01	  -1.4121319e+00	   8.2774066e-01	  -8.5683154e-01	
   8.9320000e+01	  -1.5414873e+00	   9.2828019e-01	  -1.1819371e+00	
   8.9375000e+01	  -1.6996456e+00	   9.6963052e-01	  -1.2708843e+00	
   8.9430000e+01	  -1.8611257e+00	   9.1373235e-01	  -1.3814185e+00	
   8.9485000e+01	  -2.0101193e+00	   7.5758141e-01	  -1.6529415e+00	
   8.9540000e+01	  -2.1441917e+00	   5.3772633e-01	  -1.9577910e+00	
   8.9595000e+01	  -2.2960639e+00	   2.7286393e-01	  -2.0982999e+00	
   8.9650000e+01	  -2.5289707e+00	  -7.2594000e-02	  -2.0767989e+00	
   8.9705000e+01	  -2.8863724e+00	  -4.9981217e-01	  -2.0829576e+00	
   8.9760000e+01	  -3.3188234e+00	  -8.8529467e-01	  -2.2189633e+00	
   8.9815000e+01	  -3.6496844e+00	  -1.0500517e+00	  -2.3361219e+00	
   8.9870000e+01	  -3.6556824e+00	  -9.0303134e-01	  -2.2030726e+00	
   8.9925000e+01	  -3.2464158e+00	  -5.0593402e-01	  -1.7975926e+00	
   8.9980000e+01	  -2.5823391e+00	  -5.5665634e-02	  -1.3826285e+00	
   9.0035000e+01	  -1.9923668e+00	   1.9990154e-01	  -1.2921021e+00	
   9.0090000e+01	  -1.7462964e+00	   1.2801752e-01	  -1.6377651e+00	
   9.0145000e+01	  -1.8661756e+00	  -1.5780593e-01	  -2.1928316e+00	
   9.0200000e+01	  -2.1372748e+00	  -3.9861867e-01	  -2.5696798e+00	
   9.0255000e+01	  -2.3257992e+00	  -4.7035117e-01	  -2.5615487e+00	
   9.0310000e+01	  -2.3883927e+00	  -4.8359940e-01	  -2.3069801e+00	
   9.0365000e+01	  -2.4508529e+00	  -5.6658401e-01	  -2.0882568e+00	
   9.0420000e+01	  -2.6299451e+00	  -6.9653602e-01	  -2.0300200e+00	
   9.0475000e+01	  -2.9437424e+00	  -8.2845268e-01	  -2.0890461e+00	
   9.0530000e+01	  -3.3496812e+00	  -1.0417358e+00	  -2.2548123e+00	
   9.0585000e+01	  -3.7553686e+00	  -1.4142334e+00	  -2.5482289e+00	
   9.0640000e+01	  -3.9951109e+00	  -1.7942932e+00	  -2.8273297e+00	
   9.0695000e+01	  -3.9175865e+00	  -1.8480935e+00	  -2.8341607e+00	
   9.0750000e+01	  -3.5431083e+00	  -1.4018570e+00	  -2.5142953e+00	
   9.0805000e+01	  -3.0709511e+00	  -6.6392107e-01	  -2.1297735e+00	
   9.0860000e+01	  -2.7149429e+00	  -6.0020535e-02	  -1.9898441e+00	
   9.0915000e+01	  -2.5715618e+00	   1.1399452e-01	  -2.1762081e+00	
   9.0970000e+01	  -2.6126024e+00	  -1.0923697e-01	  -2.5554325e+00	
   9.1025000e+01	  -2.7315203e+00	  -4.4382418e-01	  -2.9412696e+00	
   9.1080000e+01	  -2.8078833e+00	  -5.9661700e-01	  -3.1917662e+00	
   9.1135000e+01	  -2.7886104e+00	  -4.7680185e-01	  -3.2454534e+00	
   9.1190000e+01	  -2.7383903e+00	  -2.3337978e-01	  -3.1571311e+00	
   9.1245000e+01	  -2.7984860e+00	  -1.2673277e-01	  -3.0704156e+00	
   9.1300000e+01	  -3.0633832e+00	  -3.3202726e-01	  -3.0935599e+00	
   9.1355000e+01	  -3.5032562e+00	  -8.2915469e-01	  -3.2207186e+00	
   9.1410000e+01	  -4.0208328e+00	  -1.4721825e+00	  -3.4027811e+00	
   9.1465000e+01	  -4.5107905e+00	  -2.0906157e+00	  -3.6028723e+00	
   9.1520000e+01	  -4.8098015e+00	  -2.4598738e+00	  -3.7005970e+00	
   9.1575000e+01	  -4.7099177e+00	  -2.3356744e+00	  -3.4925930e+00	
   9.1630000e+01	  -4.1582475e+00	  -1.7099942e+00	  -2.9586299e+00	
   9.1685000e+01	  -3.3883115e+00	  -9.2149724e-01	  -2.4096209e+00	
   9.1740000e+01	  -2.7415596e+00	  -3.4619693e-01	  -2.2067745e+00	
   9.1795000e+01	  -2.3872158e+00	  -7.1746938e-02	  -2.4125160e+00	
   9.1850000e+01	  -2.2774779e+00	   3.2655776e-02	  -2.8106095e+00	
   9.1905000e+01	  -2.2970122e+00	   6.4919153e-02	  -3.1621102e+00	
   9.1960000e+01	  -2.3603700e+00	   2.2196055e-02	  -3.3520498e+00	
   9.2015000e+01	  -2.4245690e+00	  -1.1968107e-01	  -3.3842870e+00	
   9.2070000e+01	  -2.5040751e+00	  -3.7111591e-01	  -3.3460632e+00	
   9.2125000e+01	  -2.6600181e+00	  -7.2653808e-01	  -3.3504284e+00	
   9.2180000e+01	  -2.9342897e+00	  -1.1298770e+00	  -3.4467485e+00	
   9.2235000e+01	  -3.3042387e+00	  -1.4688910e+00	  -3.5933490e+00	
   9.2290000e+01	  -3.7022363e+00	  -1.6485896e+00	  -3.7194988e+00	
   9.2345000e+01	  -4.0439529e+00	  -1.6663401e+00	  -3.7631403e+00	
   9.2400000e+01	  -4.2246748e+00	  -1.5842418e+00	  -3.6589451e+00	
   9.2455000e+01	  -4.1384832e+00	  -1.4302474e+00	  -3.3714537e+00	
   9.2510000e+01	  -3.7616346e+00	  -1.1712408e+00	  -2.9573268e+00	
   9.2565000e+01	  -3.2043317e+00	  -7.9368176e-01	  -2.5514309e+00	
   9.2620000e+01	  -2.6338404e+00	  -3.7439684e-01	  -2.2800575e+00	
   9.2675000e+01	  -2.1621070e+00	  -5.2389210e-02	  -2.1944775e+00	
   9.2730000e+01	  -1.8375694e+00	   7.6776193e-02	  -2.2822787e+00	
   9.2785000e+01	  -1.6949786e+00	   5.2336721e-02	  -2.5304391e+00	
   9.2840000e+01	  -1.7495247e+00	   2.4121575e-02	  -2.9400560e+00	
   9.2895000e+01	  -1.9600611e+00	   9.7013187e-02	  -3.4472172e+00	
   9.2950000e+01	  -2.2394201e+00	   1.8262649e-01	  -3.8860923e+00	
   9.3005000e+01	  -2.5067194e+00	   5.2720065e-02	  -4.1136422e+00	
   9.3060000e+01	  -2.7320290e+00	  -4.1835267e-01	  -4.1490197e+00	
   9.3115000e+01	  -2.9497139e+00	  -1.0983586e+00	  -4.1407846e+00	
   9.3170000e+01	  -3.2392842e+00	  -1.7149289e+00	  -4.2284283e+00	
   9.3225000e+01	  -3.6500215e+00	  -2.0830501e+00	  -4.4332123e+00	
   9.3280000e+01	  -4.0813172e+00	  -2.1738629e+00	  -4.6059264e+00	
   9.3335000e+01	  -4.2721970e+00	  -2.0154307e+00	  -4.5029200e+00	
   9.3390000e+01	  -4.0108875e+00	  -1.6277075e+00	  -4.0317734e+00	
   9.3445000e+01	  -3.3656903e+00	  -1.0673879e+00	  -3.4188540e+00	
   9.3500000e+01	  -2.6463831e+00	  -4.6079643e-01	  -3.0299333e+00	
   9.3555000e+01	  -2.1368790e+00	   4.0360664e-02	  -3.0428991e+00	
   9.3610000e+01	  -1.9081468e+00	   3.1460608e-01	  -3.3748129e+00	
   9.3665000e+01	  -1.8674161e+00	   3.0961400e-01	  -3.8319172e+00	
   9.3720000e+01	  -1.9077432e+00	   8.0651118e-02	  -4.1926478e+00	
   9.3775000e+01	  -1.9879602e+00	  -2.1842518e-01	  -4.2530096e+00	
   9.3830000e+01	  -2.1308363e+00	  -4.3466661e-01	  -3.9836220e+00	
   9.3885000e+01	  -2.3862006e+00	  -5.3140063e-01	  -3.6189247e+00	
   9.3940000e+01	  -2.7670233e+00	  -5.9360877e-01	  -3.4676358e+00	
   9.3995000e+01	  -3.1989079e+00	  -7.2417900e-01	  -3.6325048e+00	
   9.4050000e+01	  -3.5535019e+00	  -9.5777015e-01	  -3.9578757e+00	
   9.4105000e+01	  -3.7291326e+00	  -1.2365895e+00	  -4.1975516e+00	
   9.4160000e+01	  -3.6797259e+00	  -1.4113770e+00	  -4.1864201e+00	
   9.4215000e+01	  -3.4112633e+00	  -1.3225418e+00	  -3.9349966e+00	
   9.4270000e+01	  -3.0039359e+00	  -9.7134783e-01	  -3.6337372e+00	
   9.4325000e+01	  -2.5978800e+00	  -5.7318784e-01	  -3.5019871e+00	
   9.4380000e+01	  -2.3035921e+00	  -3.5926551e-01	  -3.5786276e+00	
   9.4435000e+01	  -2.1433270e+00	  -3.5465085e-01	  -3.7030936e+00	
   9.4490000e+01	  -2.0908526e+00	  -4.1738507e-01	  -3.7126116e+00	
   9.4545000e+01	  -2.1332648e+00	  -4.5071480e-01	  -3.6075945e+00	
   9.4600000e+01	  -2.2686140e+00	  -4.7719761e-01	  -3.5128969e+00	
   9.4655000e+01	  -2.4573860e+00	  -5.1565030e-01	  -3.5272298e+00	
   9.4710000e+01	  -2.6257974e+00	  -5.1863247e-01	  -3.6525680e+00	
   9.4765000e+01	  -2.7387165e+00	  -4.9612453e-01	  -3.8454843e+00	
   9.4820000e+01	  -2.8249348e+00	  -5.8242156e-01	  -4.0739349e+00	
   9.4875000e+01	  -2.9121038e+00	  -8.6952089e-01	  -4.3033802e+00	
   9.4930000e+01	  -2.9730046e+00	  -1.2430103e+00	  -4.4483772e+00	
   9.4985000e+01	  -2.9382249e+00	  -1.4545544e+00	  -4.3667259e+00	
   9.5040000e+01	  -2.7429823e+00	  -1.3040156e+00	  -3.9681597e+00	
   9.5095000e+01	  -2.3847497e+00	  -7.6634194e-01	  -3.3763830e+00	
   9.5150000e+01	  -1.9608376e+00	  -5.0009052e-02	  -2.9099403e+00	
   9.5205000e+01	  -1.6273656e+00	   4.9659518e-01	  -2.8170232e+00	
   9.5260000e+01	  -1.4828065e+00	   6.6469883e-01	  -3.0480561e+00	
   9.5315000e+01	  -1.4954859e+00	   5.7565700e-01	  -3.3196675e+00	
   9.5370000e+01	  -1.5772126e+00	   5.1339161e-01	  -3.3930164e+00	
   9.5425000e+01	  -1.7064757e+00	   5.7975452e-01	  -3.2797283e+00	
   9.5480000e+01	  -1.9145713e+00	   6.0649120e-01	  -3.1699320e+00	
   9.5535000e+01	  -2.1695334e+00	   4.0423092e-01	  -3.2017660e+00	
   9.5590000e+01	  -2.3777130e+00	  -2.7122662e-02	  -3.3707625e+00	
