time	S1_D2_HbO	
   0.0000000e+00	  -5.4941956e-02	
   5.5000000e-02	  -1.6960859e-01	
   1.1000000e-01	  -2.7690485e-01	
   1.6500000e-01	  -3.7367714e-01	
   2.2000000e-01	  -4.5708736e-01	
   2.7500000e-01	  -5.2479870e-01	
   3.3000000e-01	  -5.7543713e-01	
   3.8500000e-01	  -6.0920017e-01	
   4.4000000e-01	  -6.2827867e-01	
   4.9500000e-01	  -6.3675950e-01	
   5.5000000e-01	  -6.3985557e-01	
   6.0500000e-01	  -6.4262266e-01	
   6.6000000e-01	  -6.4864257e-01	
   7.1500000e-01	  -6.5918087e-01	
   7.7000000e-01	  -6.7300946e-01	
   8.2500000e-01	  -6.8680566e-01	
   8.8000000e-01	  -6.9601914e-01	
   9.3500000e-01	  -6.9611381e-01	
   9.9000000e-01	  -6.8398280e-01	
   1.0450000e+00	  -6.5916739e-01	
   1.1000000e+00	  -6.2438857e-01	
   1.1550000e+00	  -5.8500531e-01	
   1.2100000e+00	  -5.4749313e-01	
   1.2650000e+00	  -5.1757049e-01	
   1.3200000e+00	  -4.9865675e-01	
   1.3750000e+00	  -4.9101459e-01	
   1.4300000e+00	  -4.9168509e-01	
   1.4850000e+00	  -4.9519753e-01	
   1.5400000e+00	  -4.9488037e-01	
   1.5950000e+00	  -4.8452810e-01	
   1.6500000e+00	  -4.6015220e-01	
   1.7050000e+00	  -4.2135064e-01	
   1.7600000e+00	  -3.7165788e-01	
   1.8150000e+00	  -3.1753411e-01	
   1.8700000e+00	  -2.6633849e-01	
   1.9250000e+00	  -2.2407315e-01	
   1.9800000e+00	  -1.9360779e-01	
   2.0350000e+00	  -1.7384258e-01	
   2.0900000e+00	  -1.6001643e-01	
   2.1450000e+00	  -1.4501178e-01	
   2.2000000e+00	  -1.2121763e-01	
   2.2550000e+00	  -8.2499003e-02	
   2.3100000e+00	  -2.5891712e-02	
   2.3650000e+00	   4.7373553e-02	
   2.4200000e+00	   1.3184025e-01	
   2.4750000e+00	   2.1883688e-01	
   2.5300000e+00	   2.9829090e-01	
   2.5850000e+00	   3.6095224e-01	
   2.6400000e+00	   4.0053380e-01	
   2.6950000e+00	   4.1521354e-01	
   2.7500000e+00	   4.0808868e-01	
   2.8050000e+00	   3.8655785e-01	
   2.8600000e+00	   3.6093217e-01	
   2.9150000e+00	   3.4257873e-01	
   2.9700000e+00	   3.4177316e-01	
   3.0250000e+00	   3.6555319e-01	
   3.0800000e+00	   4.1610062e-01	
   3.1350000e+00	   4.9011070e-01	
   3.1900000e+00	   5.7933063e-01	
   3.2450000e+00	   6.7225043e-01	
   3.3000000e+00	   7.5661793e-01	
   3.3550000e+00	   8.2201228e-01	
   3.4100000e+00	   8.6168865e-01	
   3.4650000e+00	   8.7342944e-01	
   3.5200000e+00	   8.5958332e-01	
   3.5750000e+00	   8.2643588e-01	
   3.6300000e+00	   7.8290385e-01	
   3.6850000e+00	   7.3868565e-01	
   3.7400000e+00	   7.0222479e-01	
   3.7950000e+00	   6.7893105e-01	
   3.8500000e+00	   6.7016802e-01	
   3.9050000e+00	   6.7342365e-01	
   3.9600000e+00	   6.8360461e-01	
   4.0150000e+00	   6.9485738e-01	
   4.0700000e+00	   7.0224038e-01	
   4.1250000e+00	   7.0289785e-01	
   4.1800000e+00	   6.9664308e-01	
   4.2350000e+00	   6.8589910e-01	
   4.2900000e+00	   6.7500085e-01	
   4.3450000e+00	   6.6902923e-01	
   4.4000000e+00	   6.7246443e-01	
   4.4550000e+00	   6.8789651e-01	
   4.5100000e+00	   7.1500385e-01	
   4.5650000e+00	   7.5020996e-01	
   4.6200000e+00	   7.8744618e-01	
   4.6750000e+00	   8.1983823e-01	
   4.7300000e+00	   8.4151610e-01	
   4.7850000e+00	   8.4891182e-01	
   4.8400000e+00	   8.4145330e-01	
   4.8950000e+00	   8.2172436e-01	
   4.9500000e+00	   7.9506035e-01	
   5.0050000e+00	   7.6861299e-01	
   5.0600000e+00	   7.5003821e-01	
   5.1150000e+00	   7.4594477e-01	
   5.1700000e+00	   7.6028269e-01	
   5.2250000e+00	   7.9307098e-01	
   5.2800000e+00	   8.4000601e-01	
   5.3350000e+00	   8.9327335e-01	
   5.3900000e+00	   9.4336867e-01	
   5.4450000e+00	   9.8130594e-01	
   5.5000000e+00	   1.0005505e+00	
   5.5550000e+00	   9.9825571e-01	
   5.6100000e+00	   9.7565020e-01	
   5.6650000e+00	   9.3762431e-01	
   5.7200000e+00	   8.9167843e-01	
   5.7750000e+00	   8.4639127e-01	
   5.8300000e+00	   8.0958683e-01	
   5.8850000e+00	   7.8656655e-01	
   5.9400000e+00	   7.7888674e-01	
   5.9950000e+00	   7.8398642e-01	
   6.0500000e+00	   7.9575931e-01	
   6.1050000e+00	   8.0601837e-01	
   6.1600000e+00	   8.0649378e-01	
   6.2150000e+00	   7.9069244e-01	
   6.2700000e+00	   7.5507997e-01	
   6.3250000e+00	   6.9951931e-01	
   6.3800000e+00	   6.2717222e-01	
   6.4350000e+00	   5.4398600e-01	
   6.4900000e+00	   4.5772637e-01	
   6.5450000e+00	   3.7653646e-01	
   6.6000000e+00	   3.0724534e-01	
   6.6550000e+00	   2.5390015e-01	
   6.7100000e+00	   2.1698131e-01	
   6.7650000e+00	   1.9353736e-01	
   6.8200000e+00	   1.7822628e-01	
   6.8750000e+00	   1.6493269e-01	
   6.9300000e+00	   1.4836300e-01	
   6.9850000e+00	   1.2516736e-01	
   7.0400000e+00	   9.4553548e-02	
   7.0950000e+00	   5.8462138e-02	
   7.1500000e+00	   2.1179875e-02	
   7.2050000e+00	  -1.1689767e-02	
   7.2600000e+00	  -3.4668375e-02	
   7.3150000e+00	  -4.3853558e-02	
   7.3700000e+00	  -3.7998662e-02	
   7.4250000e+00	  -1.8846469e-02	
   7.4800000e+00	   9.5255826e-03	
   7.5350000e+00	   4.2123159e-02	
   7.5900000e+00	   7.4582781e-02	
   7.6450000e+00	   1.0432809e-01	
   7.7000000e+00	   1.3115082e-01	
   7.7550000e+00	   1.5712683e-01	
   7.8100000e+00	   1.8580097e-01	
   7.8650000e+00	   2.2083143e-01	
   7.9200000e+00	   2.6453473e-01	
   7.9750000e+00	   3.1674453e-01	
   8.0300000e+00	   3.7428955e-01	
   8.0850000e+00	   4.3136308e-01	
   8.1400000e+00	   4.8084648e-01	
   8.1950000e+00	   5.1618065e-01	
   8.2500000e+00	   5.3309988e-01	
   8.3050000e+00	   5.3072259e-01	
   8.3600000e+00	   5.1180338e-01	
   8.4150000e+00	   4.8211365e-01	
   8.4700000e+00	   4.4911261e-01	
   8.5250000e+00	   4.2035404e-01	
   8.5800000e+00	   4.0210970e-01	
   8.6350000e+00	   3.9839515e-01	
   8.6900000e+00	   4.1042620e-01	
   8.7450000e+00	   4.3669568e-01	
   8.8000000e+00	   4.7382155e-01	
   8.8550000e+00	   5.1785882e-01	
   8.9100000e+00	   5.6547001e-01	
   8.9650000e+00	   6.1460144e-01	
   9.0200000e+00	   6.6471753e-01	
   9.0750000e+00	   7.1670380e-01	
   9.1300000e+00	   7.7237254e-01	
   9.1850000e+00	   8.3353762e-01	
   9.2400000e+00	   9.0090966e-01	
   9.2950000e+00	   9.7325833e-01	
   9.3500000e+00	   1.0472423e+00	
   9.4050000e+00	   1.1180857e+00	
   9.4600000e+00	   1.1809202e+00	
   9.5150000e+00	   1.2322430e+00	
   9.5700000e+00	   1.2708795e+00	
   9.6250000e+00	   1.2981689e+00	
   9.6800000e+00	   1.3175260e+00	
   9.7350000e+00	   1.3336750e+00	
   9.7900000e+00	   1.3516934e+00	
   9.8450000e+00	   1.3758743e+00	
   9.9000000e+00	   1.4085467e+00	
   9.9550000e+00	   1.4492220e+00	
   1.0010000e+01	   1.4945078e+00	
   1.0065000e+01	   1.5390230e+00	
   1.0120000e+01	   1.5770986e+00	
   1.0175000e+01	   1.6046519e+00	
   1.0230000e+01	   1.6205514e+00	
   1.0285000e+01	   1.6270233e+00	
   1.0340000e+01	   1.6290092e+00	
   1.0395000e+01	   1.6327030e+00	
   1.0450000e+01	   1.6436957e+00	
   1.0505000e+01	   1.6652431e+00	
   1.0560000e+01	   1.6971790e+00	
   1.0615000e+01	   1.7358776e+00	
   1.0670000e+01	   1.7753577e+00	
   1.0725000e+01	   1.8091478e+00	
   1.0780000e+01	   1.8322031e+00	
   1.0835000e+01	   1.8422205e+00	
   1.0890000e+01	   1.8400014e+00	
   1.0945000e+01	   1.8288791e+00	
   1.1000000e+01	   1.8135223e+00	
   1.1055000e+01	   1.7985042e+00	
   1.1110000e+01	   1.7869282e+00	
   1.1165000e+01	   1.7794249e+00	
   1.1220000e+01	   1.7739563e+00	
   1.1275000e+01	   1.7667222e+00	
   1.1330000e+01	   1.7538983e+00	
   1.1385000e+01	   1.7334168e+00	
   1.1440000e+01	   1.7060510e+00	
   1.1495000e+01	   1.6754917e+00	
   1.1550000e+01	   1.6474460e+00	
   1.1605000e+01	   1.6280600e+00	
   1.1660000e+01	   1.6222159e+00	
   1.1715000e+01	   1.6322043e+00	
   1.1770000e+01	   1.6569999e+00	
   1.1825000e+01	   1.6922774e+00	
   1.1880000e+01	   1.7313026e+00	
   1.1935000e+01	   1.7665427e+00	
   1.1990000e+01	   1.7914493e+00	
   1.2045000e+01	   1.8018783e+00	
   1.2100000e+01	   1.7968886e+00	
   1.2155000e+01	   1.7788279e+00	
   1.2210000e+01	   1.7526974e+00	
   1.2265000e+01	   1.7249339e+00	
   1.2320000e+01	   1.7018642e+00	
   1.2375000e+01	   1.6881225e+00	
   1.2430000e+01	   1.6853859e+00	
   1.2485000e+01	   1.6918501e+00	
   1.2540000e+01	   1.7027517e+00	
   1.2595000e+01	   1.7118372e+00	
   1.2650000e+01	   1.7132390e+00	
   1.2705000e+01	   1.7030855e+00	
   1.2760000e+01	   1.6804217e+00	
   1.2815000e+01	   1.6473436e+00	
   1.2870000e+01	   1.6083812e+00	
   1.2925000e+01	   1.5692501e+00	
   1.2980000e+01	   1.5353015e+00	
   1.3035000e+01	   1.5101253e+00	
   1.3090000e+01	   1.4946058e+00	
   1.3145000e+01	   1.4866095e+00	
   1.3200000e+01	   1.4815054e+00	
   1.3255000e+01	   1.4735103e+00	
   1.3310000e+01	   1.4574640e+00	
   1.3365000e+01	   1.4304536e+00	
   1.3420000e+01	   1.3928136e+00	
   1.3475000e+01	   1.3482261e+00	
   1.3530000e+01	   1.3028888e+00	
   1.3585000e+01	   1.2640228e+00	
   1.3640000e+01	   1.2382057e+00	
   1.3695000e+01	   1.2299553e+00	
   1.3750000e+01	   1.2407333e+00	
   1.3805000e+01	   1.2684321e+00	
   1.3860000e+01	   1.3075250e+00	
   1.3915000e+01	   1.3500223e+00	
   1.3970000e+01	   1.3870059e+00	
   1.4025000e+01	   1.4102675e+00	
   1.4080000e+01	   1.4137042e+00	
   1.4135000e+01	   1.3943629e+00	
   1.4190000e+01	   1.3530435e+00	
   1.4245000e+01	   1.2942782e+00	
   1.4300000e+01	   1.2255899e+00	
   1.4355000e+01	   1.1561864e+00	
   1.4410000e+01	   1.0953653e+00	
   1.4465000e+01	   1.0508587e+00	
   1.4520000e+01	   1.0273359e+00	
   1.4575000e+01	   1.0253343e+00	
   1.4630000e+01	   1.0409008e+00	
   1.4685000e+01	   1.0661873e+00	
   1.4740000e+01	   1.0910531e+00	
   1.4795000e+01	   1.1052617e+00	
   1.4850000e+01	   1.1004898e+00	
   1.4905000e+01	   1.0715980e+00	
   1.4960000e+01	   1.0172131e+00	
   1.5015000e+01	   9.3985967e-01	
   1.5070000e+01	   8.4562405e-01	
   1.5125000e+01	   7.4325502e-01	
   1.5180000e+01	   6.4281832e-01	
   1.5235000e+01	   5.5412425e-01	
   1.5290000e+01	   4.8506771e-01	
   1.5345000e+01	   4.4007842e-01	
   1.5400000e+01	   4.1910381e-01	
   1.5455000e+01	   4.1755119e-01	
   1.5510000e+01	   4.2725334e-01	
   1.5565000e+01	   4.3815117e-01	
   1.5620000e+01	   4.4029425e-01	
   1.5675000e+01	   4.2577762e-01	
   1.5730000e+01	   3.9021363e-01	
   1.5785000e+01	   3.3344348e-01	
   1.5840000e+01	   2.5944615e-01	
   1.5895000e+01	   1.7556136e-01	
   1.5950000e+01	   9.1137557e-02	
   1.6005000e+01	   1.5725770e-02	
   1.6060000e+01	  -4.2926575e-02	
   1.6115000e+01	  -8.0666359e-02	
   1.6170000e+01	  -9.8031799e-02	
   1.6225000e+01	  -1.0026453e-01	
   1.6280000e+01	  -9.6115566e-02	
   1.6335000e+01	  -9.5744191e-02	
   1.6390000e+01	  -1.0835250e-01	
   1.6445000e+01	  -1.4021705e-01	
   1.6500000e+01	  -1.9351118e-01	
   1.6555000e+01	  -2.6603294e-01	
   1.6610000e+01	  -3.5183300e-01	
   1.6665000e+01	  -4.4266270e-01	
   1.6720000e+01	  -5.2997426e-01	
   1.6775000e+01	  -6.0699278e-01	
   1.6830000e+01	  -6.7034501e-01	
   1.6885000e+01	  -7.2084003e-01	
   1.6940000e+01	  -7.6311669e-01	
   1.6995000e+01	  -8.0415695e-01	
   1.7050000e+01	  -8.5115771e-01	
   1.7105000e+01	  -9.0947644e-01	
   1.7160000e+01	  -9.8113491e-01	
   1.7215000e+01	  -1.0641371e+00	
   1.7270000e+01	  -1.1527527e+00	
   1.7325000e+01	  -1.2386428e+00	
   1.7380000e+01	  -1.3124050e+00	
   1.7435000e+01	  -1.3651770e+00	
   1.7490000e+01	  -1.3901943e+00	
   1.7545000e+01	  -1.3842096e+00	
   1.7600000e+01	  -1.3484974e+00	
   1.7655000e+01	  -1.2891421e+00	
   1.7710000e+01	  -1.2164399e+00	
   1.7765000e+01	  -1.1434138e+00	
   1.7820000e+01	  -1.0836974e+00	
   1.7875000e+01	  -1.0492914e+00	
   1.7930000e+01	  -1.0486671e+00	
   1.7985000e+01	  -1.0854384e+00	
   1.8040000e+01	  -1.1576484e+00	
   1.8095000e+01	  -1.2577894e+00	
   1.8150000e+01	  -1.3737495e+00	
   1.8205000e+01	  -1.4906738e+00	
   1.8260000e+01	  -1.5933523e+00	
   1.8315000e+01	  -1.6686158e+00	
   1.8370000e+01	  -1.7074006e+00	
   1.8425000e+01	  -1.7063008e+00	
   1.8480000e+01	  -1.6683300e+00	
   1.8535000e+01	  -1.6025217e+00	
   1.8590000e+01	  -1.5222866e+00	
   1.8645000e+01	  -1.4429107e+00	
   1.8700000e+01	  -1.3787946e+00	
   1.8755000e+01	  -1.3409939e+00	
   1.8810000e+01	  -1.3355068e+00	
   1.8865000e+01	  -1.3625545e+00	
   1.8920000e+01	  -1.4168273e+00	
   1.8975000e+01	  -1.4885219e+00	
   1.9030000e+01	  -1.5650416e+00	
   1.9085000e+01	  -1.6332081e+00	
   1.9140000e+01	  -1.6816621e+00	
   1.9195000e+01	  -1.7029981e+00	
   1.9250000e+01	  -1.6952083e+00	
   1.9305000e+01	  -1.6620503e+00	
   1.9360000e+01	  -1.6120826e+00	
   1.9415000e+01	  -1.5565256e+00	
   1.9470000e+01	  -1.5066470e+00	
   1.9525000e+01	  -1.4714801e+00	
   1.9580000e+01	  -1.4563210e+00	
   1.9635000e+01	  -1.4621157e+00	
   1.9690000e+01	  -1.4857752e+00	
   1.9745000e+01	  -1.5212768e+00	
   1.9800000e+01	  -1.5611127e+00	
   1.9855000e+01	  -1.5976645e+00	
   1.9910000e+01	  -1.6244015e+00	
   1.9965000e+01	  -1.6369903e+00	
   2.0020000e+01	  -1.6342253e+00	
   2.0075000e+01	  -1.6184210e+00	
   2.0130000e+01	  -1.5949515e+00	
   2.0185000e+01	  -1.5709974e+00	
   2.0240000e+01	  -1.5538620e+00	
   2.0295000e+01	  -1.5493087e+00	
   2.0350000e+01	  -1.5603220e+00	
   2.0405000e+01	  -1.5865216e+00	
   2.0460000e+01	  -1.6242159e+00	
   2.0515000e+01	  -1.6670354e+00	
   2.0570000e+01	  -1.7071668e+00	
   2.0625000e+01	  -1.7371110e+00	
   2.0680000e+01	  -1.7515846e+00	
   2.0735000e+01	  -1.7489374e+00	
   2.0790000e+01	  -1.7315627e+00	
   2.0845000e+01	  -1.7051522e+00	
   2.0900000e+01	  -1.6770623e+00	
   2.0955000e+01	  -1.6543123e+00	
   2.1010000e+01	  -1.6418208e+00	
   2.1065000e+01	  -1.6413484e+00	
   2.1120000e+01	  -1.6512911e+00	
   2.1175000e+01	  -1.6672090e+00	
   2.1230000e+01	  -1.6829686e+00	
   2.1285000e+01	  -1.6923565e+00	
   2.1340000e+01	  -1.6908103e+00	
   2.1395000e+01	  -1.6767438e+00	
   2.1450000e+01	  -1.6520429e+00	
   2.1505000e+01	  -1.6215688e+00	
   2.1560000e+01	  -1.5917977e+00	
   2.1615000e+01	  -1.5690287e+00	
   2.1670000e+01	  -1.5577577e+00	
   2.1725000e+01	  -1.5596866e+00	
   2.1780000e+01	  -1.5734551e+00	
   2.1835000e+01	  -1.5949048e+00	
   2.1890000e+01	  -1.6177302e+00	
   2.1945000e+01	  -1.6344980e+00	
   2.2000000e+01	  -1.6379554e+00	
   2.2055000e+01	  -1.6224285e+00	
   2.2110000e+01	  -1.5851422e+00	
   2.2165000e+01	  -1.5272826e+00	
   2.2220000e+01	  -1.4543835e+00	
   2.2275000e+01	  -1.3755220e+00	
   2.2330000e+01	  -1.3012770e+00	
   2.2385000e+01	  -1.2411498e+00	
   2.2440000e+01	  -1.2013845e+00	
   2.2495000e+01	  -1.1837619e+00	
   2.2550000e+01	  -1.1854795e+00	
   2.2605000e+01	  -1.1999723e+00	
   2.2660000e+01	  -1.2183212e+00	
   2.2715000e+01	  -1.2308586e+00	
   2.2770000e+01	  -1.2287964e+00	
   2.2825000e+01	  -1.2058040e+00	
   2.2880000e+01	  -1.1592817e+00	
   2.2935000e+01	  -1.0909991e+00	
   2.2990000e+01	  -1.0069342e+00	
   2.3045000e+01	  -9.1633289e-01	
   2.3100000e+01	  -8.3012646e-01	
   2.3155000e+01	  -7.5904413e-01	
   2.3210000e+01	  -7.1188708e-01	
   2.3265000e+01	  -6.9427043e-01	
   2.3320000e+01	  -7.0787240e-01	
   2.3375000e+01	  -7.5018581e-01	
   2.3430000e+01	  -8.1486430e-01	
   2.3485000e+01	  -8.9268553e-01	
   2.3540000e+01	  -9.7294735e-01	
   2.3595000e+01	  -1.0450585e+00	
   2.3650000e+01	  -1.1002008e+00	
   2.3705000e+01	  -1.1329283e+00	
   2.3760000e+01	  -1.1423482e+00	
   2.3815000e+01	  -1.1323968e+00	
   2.3870000e+01	  -1.1109628e+00	
   2.3925000e+01	  -1.0880679e+00	
   2.3980000e+01	  -1.0736304e+00	
   2.4035000e+01	  -1.0753494e+00	
   2.4090000e+01	  -1.0971674e+00	
   2.4145000e+01	  -1.1386564e+00	
   2.4200000e+01	  -1.1953822e+00	
   2.4255000e+01	  -1.2599418e+00	
   2.4310000e+01	  -1.3232885e+00	
   2.4365000e+01	  -1.3761145e+00	
   2.4420000e+01	  -1.4101904e+00	
   2.4475000e+01	  -1.4195727e+00	
   2.4530000e+01	  -1.4016281e+00	
   2.4585000e+01	  -1.3578243e+00	
   2.4640000e+01	  -1.2940386e+00	
   2.4695000e+01	  -1.2199482e+00	
   2.4750000e+01	  -1.1473428e+00	
   2.4805000e+01	  -1.0878193e+00	
   2.4860000e+01	  -1.0505847e+00	
   2.4915000e+01	  -1.0408271e+00	
   2.4970000e+01	  -1.0588555e+00	
   2.5025000e+01	  -1.1001838e+00	
   2.5080000e+01	  -1.1565893e+00	
   2.5135000e+01	  -1.2178936e+00	
   2.5190000e+01	  -1.2741373e+00	
   2.5245000e+01	  -1.3177639e+00	
   2.5300000e+01	  -1.3452209e+00	
   2.5355000e+01	  -1.3573994e+00	
   2.5410000e+01	  -1.3588038e+00	
   2.5465000e+01	  -1.3558440e+00	
   2.5520000e+01	  -1.3548174e+00	
   2.5575000e+01	  -1.3601117e+00	
   2.5630000e+01	  -1.3730930e+00	
   2.5685000e+01	  -1.3919327e+00	
   2.5740000e+01	  -1.4122338e+00	
   2.5795000e+01	  -1.4281073e+00	
   2.5850000e+01	  -1.4334739e+00	
   2.5905000e+01	  -1.4234912e+00	
   2.5960000e+01	  -1.3959432e+00	
   2.6015000e+01	  -1.3523037e+00	
   2.6070000e+01	  -1.2981214e+00	
   2.6125000e+01	  -1.2424132e+00	
   2.6180000e+01	  -1.1960008e+00	
   2.6235000e+01	  -1.1691832e+00	
   2.6290000e+01	  -1.1694610e+00	
   2.6345000e+01	  -1.1999447e+00	
   2.6400000e+01	  -1.2586940e+00	
   2.6455000e+01	  -1.3388795e+00	
   2.6510000e+01	  -1.4295839e+00	
   2.6565000e+01	  -1.5171540e+00	
   2.6620000e+01	  -1.5869867e+00	
   2.6675000e+01	  -1.6255234e+00	
   2.6730000e+01	  -1.6222982e+00	
   2.6785000e+01	  -1.5719648e+00	
   2.6840000e+01	  -1.4759521e+00	
   2.6895000e+01	  -1.3430467e+00	
   2.6950000e+01	  -1.1884263e+00	
   2.7005000e+01	  -1.0313217e+00	
   2.7060000e+01	  -8.9187538e-01	
   2.7115000e+01	  -7.8780168e-01	
   2.7170000e+01	  -7.3150063e-01	
   2.7225000e+01	  -7.2822704e-01	
   2.7280000e+01	  -7.7552722e-01	
   2.7335000e+01	  -8.6376129e-01	
   2.7390000e+01	  -9.7752282e-01	
   2.7445000e+01	  -1.0978606e+00	
   2.7500000e+01	  -1.2050470e+00	
   2.7555000e+01	  -1.2814553e+00	
   2.7610000e+01	  -1.3141405e+00	
   2.7665000e+01	  -1.2967627e+00	
   2.7720000e+01	  -1.2304760e+00	
   2.7775000e+01	  -1.1235216e+00	
   2.7830000e+01	  -9.8958176e-01	
   2.7885000e+01	  -8.4530635e-01	
   2.7940000e+01	  -7.0761544e-01	
   2.7995000e+01	  -5.9133198e-01	
   2.8050000e+01	  -5.0750890e-01	
   2.8105000e+01	  -4.6257419e-01	
   2.8160000e+01	  -4.5815250e-01	
   2.8215000e+01	  -4.9130526e-01	
   2.8270000e+01	  -5.5505782e-01	
   2.8325000e+01	  -6.3925879e-01	
   2.8380000e+01	  -7.3182756e-01	
   2.8435000e+01	  -8.2030437e-01	
   2.8490000e+01	  -8.9353850e-01	
   2.8545000e+01	  -9.4334896e-01	
   2.8600000e+01	  -9.6586267e-01	
   2.8655000e+01	  -9.6211370e-01	
   2.8710000e+01	  -9.3766884e-01	
   2.8765000e+01	  -9.0136102e-01	
   2.8820000e+01	  -8.6341567e-01	
   2.8875000e+01	  -8.3339962e-01	
   2.8930000e+01	  -8.1848687e-01	
   2.8985000e+01	  -8.2238960e-01	
   2.9040000e+01	  -8.4500189e-01	
   2.9095000e+01	  -8.8259144e-01	
   2.9150000e+01	  -9.2842200e-01	
   2.9205000e+01	  -9.7384766e-01	
   2.9260000e+01	  -1.0098918e+00	
   2.9315000e+01	  -1.0290880e+00	
   2.9370000e+01	  -1.0271693e+00	
   2.9425000e+01	  -1.0041826e+00	
   2.9480000e+01	  -9.6466412e-01	
   2.9535000e+01	  -9.1665284e-01	
   2.9590000e+01	  -8.6970661e-01	
   2.9645000e+01	  -8.3260135e-01	
   2.9700000e+01	  -8.1152647e-01	
   2.9755000e+01	  -8.0917102e-01	
   2.9810000e+01	  -8.2459209e-01	
   2.9865000e+01	  -8.5362021e-01	
   2.9920000e+01	  -8.8968428e-01	
   2.9975000e+01	  -9.2501144e-01	
   3.0030000e+01	  -9.5208531e-01	
   3.0085000e+01	  -9.6516396e-01	
   3.0140000e+01	  -9.6162105e-01	
   3.0195000e+01	  -9.4278078e-01	
   3.0250000e+01	  -9.1384393e-01	
   3.0305000e+01	  -8.8273297e-01	
   3.0360000e+01	  -8.5817780e-01	
   3.0415000e+01	  -8.4763964e-01	
   3.0470000e+01	  -8.5556236e-01	
   3.0525000e+01	  -8.8225303e-01	
   3.0580000e+01	  -9.2355749e-01	
   3.0635000e+01	  -9.7134646e-01	
   3.0690000e+01	  -1.0147383e+00	
   3.0745000e+01	  -1.0419483e+00	
   3.0800000e+01	  -1.0425066e+00	
   3.0855000e+01	  -1.0094092e+00	
   3.0910000e+01	  -9.4080345e-01	
   3.0965000e+01	  -8.4093425e-01	
   3.1020000e+01	  -7.2002451e-01	
   3.1075000e+01	  -5.9278400e-01	
   3.1130000e+01	  -4.7576809e-01	
   3.1185000e+01	  -3.8442256e-01	
   3.1240000e+01	  -3.3065163e-01	
   3.1295000e+01	  -3.2123604e-01	
   3.1350000e+01	  -3.5705660e-01	
   3.1405000e+01	  -4.3305875e-01	
   3.1460000e+01	  -5.3889499e-01	
   3.1515000e+01	  -6.6006732e-01	
   3.1570000e+01	  -7.7940420e-01	
   3.1625000e+01	  -8.7887292e-01	
   3.1680000e+01	  -9.4175892e-01	
   3.1735000e+01	  -9.5505055e-01	
   3.1790000e+01	  -9.1164730e-01	
   3.1845000e+01	  -8.1191686e-01	
   3.1900000e+01	  -6.6415403e-01	
   3.1955000e+01	  -4.8364085e-01	
   3.2010000e+01	  -2.9035373e-01	
   3.2065000e+01	  -1.0583961e-01	
   3.2120000e+01	   4.9952297e-02	
   3.2175000e+01	   1.6127913e-01	
   3.2230000e+01	   2.1843622e-01	
   3.2285000e+01	   2.1877245e-01	
   3.2340000e+01	   1.6683532e-01	
   3.2395000e+01	   7.3652356e-02	
   3.2450000e+01	  -4.4771124e-02	
   3.2505000e+01	  -1.6967690e-01	
   3.2560000e+01	  -2.8229065e-01	
   3.2615000e+01	  -3.6650606e-01	
   3.2670000e+01	  -4.1091216e-01	
   3.2725000e+01	  -4.1000181e-01	
   3.2780000e+01	  -3.6472001e-01	
   3.2835000e+01	  -2.8234400e-01	
   3.2890000e+01	  -1.7548123e-01	
   3.2945000e+01	  -6.0162029e-02	
   3.3000000e+01	   4.6647969e-02	
   3.3055000e+01	   1.2965152e-01	
   3.3110000e+01	   1.7750298e-01	
   3.3165000e+01	   1.8439047e-01	
   3.3220000e+01	   1.5066251e-01	
   3.3275000e+01	   8.2462817e-02	
   3.3330000e+01	  -9.4691388e-03	
   3.3385000e+01	  -1.1158460e-01	
   3.3440000e+01	  -2.0957918e-01	
   3.3495000e+01	  -2.9033341e-01	
   3.3550000e+01	  -3.4349598e-01	
   3.3605000e+01	  -3.6273159e-01	
   3.3660000e+01	  -3.4669066e-01	
   3.3715000e+01	  -2.9949635e-01	
   3.3770000e+01	  -2.3035584e-01	
   3.3825000e+01	  -1.5211745e-01	
   3.3880000e+01	  -7.9066019e-02	
   3.3935000e+01	  -2.4535476e-02	
   3.3990000e+01	   1.1431976e-03	
   3.4045000e+01	  -7.9610138e-03	
   3.4100000e+01	  -5.2782357e-02	
   3.4155000e+01	  -1.2941782e-01	
   3.4210000e+01	  -2.2985700e-01	
   3.4265000e+01	  -3.4313392e-01	
   3.4320000e+01	  -4.5679959e-01	
   3.4375000e+01	  -5.5849619e-01	
   3.4430000e+01	  -6.3738440e-01	
   3.4485000e+01	  -6.8539655e-01	
   3.4540000e+01	  -6.9839258e-01	
   3.4595000e+01	  -6.7704182e-01	
   3.4650000e+01	  -6.2700360e-01	
   3.4705000e+01	  -5.5814354e-01	
   3.4760000e+01	  -4.8293341e-01	
   3.4815000e+01	  -4.1438959e-01	
   3.4870000e+01	  -3.6389134e-01	
   3.4925000e+01	  -3.3929053e-01	
   3.4980000e+01	  -3.4375940e-01	
   3.5035000e+01	  -3.7555204e-01	
   3.5090000e+01	  -4.2855019e-01	
   3.5145000e+01	  -4.9343135e-01	
   3.5200000e+01	  -5.5931553e-01	
   3.5255000e+01	  -6.1562361e-01	
   3.5310000e+01	  -6.5382217e-01	
   3.5365000e+01	  -6.6885960e-01	
   3.5420000e+01	  -6.6015490e-01	
   3.5475000e+01	  -6.3183882e-01	
   3.5530000e+01	  -5.9192287e-01	
   3.5585000e+01	  -5.5048297e-01	
   3.5640000e+01	  -5.1742911e-01	
   3.5695000e+01	  -5.0047869e-01	
   3.5750000e+01	  -5.0368798e-01	
   3.5805000e+01	  -5.2674538e-01	
   3.5860000e+01	  -5.6513521e-01	
   3.5915000e+01	  -6.1104813e-01	
   3.5970000e+01	  -6.5473928e-01	
   3.6025000e+01	  -6.8609706e-01	
   3.6080000e+01	  -6.9633333e-01	
   3.6135000e+01	  -6.7972991e-01	
   3.6190000e+01	  -6.3518654e-01	
   3.6245000e+01	  -5.6707064e-01	
   3.6300000e+01	  -4.8489603e-01	
   3.6355000e+01	  -4.0171288e-01	
   3.6410000e+01	  -3.3154425e-01	
   3.6465000e+01	  -2.8656803e-01	
   3.6520000e+01	  -2.7482145e-01	
   3.6575000e+01	  -2.9888097e-01	
   3.6630000e+01	  -3.5556187e-01	
   3.6685000e+01	  -4.3653504e-01	
   3.6740000e+01	  -5.2969265e-01	
   3.6795000e+01	  -6.2094551e-01	
   3.6850000e+01	  -6.9615974e-01	
   3.6905000e+01	  -7.4317537e-01	
   3.6960000e+01	  -7.5387448e-01	
   3.7015000e+01	  -7.2591437e-01	
   3.7070000e+01	  -6.6346092e-01	
   3.7125000e+01	  -5.7647839e-01	
   3.7180000e+01	  -4.7870734e-01	
   3.7235000e+01	  -3.8493768e-01	
   3.7290000e+01	  -3.0829381e-01	
   3.7345000e+01	  -2.5807140e-01	
   3.7400000e+01	  -2.3843304e-01	
   3.7455000e+01	  -2.4806899e-01	
   3.7510000e+01	  -2.8072928e-01	
   3.7565000e+01	  -3.2644930e-01	
   3.7620000e+01	  -3.7331147e-01	
   3.7675000e+01	  -4.0948425e-01	
   3.7730000e+01	  -4.2514865e-01	
   3.7785000e+01	  -4.1403651e-01	
   3.7840000e+01	  -3.7450772e-01	
   3.7895000e+01	  -3.1004075e-01	
   3.7950000e+01	  -2.2883468e-01	
   3.8005000e+01	  -1.4238823e-01	
   3.8060000e+01	  -6.3391974e-02	
   3.8115000e+01	  -3.4841887e-03	
   3.8170000e+01	   2.8729468e-02	
   3.8225000e+01	   2.9117721e-02	
   3.8280000e+01	  -1.3303798e-03	
   3.8335000e+01	  -5.6752246e-02	
   3.8390000e+01	  -1.2737393e-01	
   3.8445000e+01	  -2.0096251e-01	
   3.8500000e+01	  -2.6471440e-01	
   3.8555000e+01	  -3.0751466e-01	
   3.8610000e+01	  -3.2223639e-01	
   3.8665000e+01	  -3.0749699e-01	
   3.8720000e+01	  -2.6820818e-01	
   3.8775000e+01	  -2.1449603e-01	
   3.8830000e+01	  -1.5917989e-01	
   3.8885000e+01	  -1.1460656e-01	
   3.8940000e+01	  -8.9809069e-02	
   3.8995000e+01	  -8.8720852e-02	
   3.9050000e+01	  -1.0975697e-01	
   3.9105000e+01	  -1.4665564e-01	
   3.9160000e+01	  -1.9021481e-01	
   3.9215000e+01	  -2.3047588e-01	
   3.9270000e+01	  -2.5888715e-01	
   3.9325000e+01	  -2.7003577e-01	
   3.9380000e+01	  -2.6267976e-01	
   3.9435000e+01	  -2.3989076e-01	
   3.9490000e+01	  -2.0816658e-01	
   3.9545000e+01	  -1.7567173e-01	
   3.9600000e+01	  -1.5019870e-01	
   3.9655000e+01	  -1.3750697e-01	
   3.9710000e+01	  -1.4030520e-01	
   3.9765000e+01	  -1.5778090e-01	
   3.9820000e+01	  -1.8562801e-01	
   3.9875000e+01	  -2.1672898e-01	
   3.9930000e+01	  -2.4252061e-01	
   3.9985000e+01	  -2.5472298e-01	
   4.0040000e+01	  -2.4703927e-01	
   4.0095000e+01	  -2.1658992e-01	
   4.0150000e+01	  -1.6483089e-01	
   4.0205000e+01	  -9.7635368e-02	
   4.0260000e+01	  -2.4406004e-02	
   4.0315000e+01	   4.3614558e-02	
   4.0370000e+01	   9.5486010e-02	
   4.0425000e+01	   1.2270622e-01	
   4.0480000e+01	   1.2084694e-01	
   4.0535000e+01	   9.0392021e-02	
   4.0590000e+01	   3.6771717e-02	
   4.0645000e+01	  -3.0333919e-02	
   4.0700000e+01	  -9.8380650e-02	
   4.0755000e+01	  -1.5386183e-01	
   4.0810000e+01	  -1.8440119e-01	
   4.0865000e+01	  -1.8076495e-01	
   4.0920000e+01	  -1.3860215e-01	
   4.0975000e+01	  -5.9601898e-02	
   4.1030000e+01	   4.8378157e-02	
   4.1085000e+01	   1.7245597e-01	
   4.1140000e+01	   2.9689283e-01	
   4.1195000e+01	   4.0570889e-01	
   4.1250000e+01	   4.8522118e-01	
   4.1305000e+01	   5.2614268e-01	
   4.1360000e+01	   5.2497434e-01	
   4.1415000e+01	   4.8449886e-01	
   4.1470000e+01	   4.1328071e-01	
   4.1525000e+01	   3.2422237e-01	
   4.1580000e+01	   2.3239788e-01	
   4.1635000e+01	   1.5253393e-01	
   4.1690000e+01	   9.6645786e-02	
   4.1745000e+01	   7.2296171e-02	
   4.1800000e+01	   8.1627706e-02	
   4.1855000e+01	   1.2110766e-01	
   4.1910000e+01	   1.8207213e-01	
   4.1965000e+01	   2.5222136e-01	
   4.2020000e+01	   3.1785484e-01	
   4.2075000e+01	   3.6625737e-01	
   4.2130000e+01	   3.8771336e-01	
   4.2185000e+01	   3.7691713e-01	
   4.2240000e+01	   3.3365975e-01	
   4.2295000e+01	   2.6269907e-01	
   4.2350000e+01	   1.7286909e-01	
   4.2405000e+01	   7.5609596e-02	
   4.2460000e+01	  -1.6888322e-02	
   4.2515000e+01	  -9.3666132e-02	
   4.2570000e+01	  -1.4679858e-01	
   4.2625000e+01	  -1.7275866e-01	
   4.2680000e+01	  -1.7313829e-01	
   4.2735000e+01	  -1.5446676e-01	
   4.2790000e+01	  -1.2693238e-01	
   4.2845000e+01	  -1.0215002e-01	
   4.2900000e+01	  -9.0547984e-02	
   4.2955000e+01	  -9.9127898e-02	
   4.3010000e+01	  -1.3016164e-01	
   4.3065000e+01	  -1.8100917e-01	
   4.3120000e+01	  -2.4493029e-01	
   4.3175000e+01	  -3.1261570e-01	
   4.3230000e+01	  -3.7407449e-01	
   4.3285000e+01	  -4.2047060e-01	
   4.3340000e+01	  -4.4562642e-01	
   4.3395000e+01	  -4.4708970e-01	
   4.3450000e+01	  -4.2664896e-01	
   4.3505000e+01	  -3.9011971e-01	
   4.3560000e+01	  -3.4636140e-01	
   4.3615000e+01	  -3.0573617e-01	
   4.3670000e+01	  -2.7833660e-01	
   4.3725000e+01	  -2.7225663e-01	
   4.3780000e+01	  -2.9213018e-01	
   4.3835000e+01	  -3.3818197e-01	
   4.3890000e+01	  -4.0598756e-01	
   4.3945000e+01	  -4.8702380e-01	
   4.4000000e+01	  -5.7001116e-01	
   4.4055000e+01	  -6.4291375e-01	
   4.4110000e+01	  -6.9520392e-01	
   4.4165000e+01	  -7.1983893e-01	
   4.4220000e+01	  -7.1452443e-01	
   4.4275000e+01	  -6.8210553e-01	
   4.4330000e+01	  -6.3006533e-01	
   4.4385000e+01	  -5.6915777e-01	
   4.4440000e+01	  -5.1138950e-01	
   4.4495000e+01	  -4.6782012e-01	
   4.4550000e+01	  -4.4665367e-01	
   4.4605000e+01	  -4.5188546e-01	
   4.4660000e+01	  -4.8266103e-01	
   4.4715000e+01	  -5.3349648e-01	
   4.4770000e+01	  -5.9535278e-01	
   4.4825000e+01	  -6.5729323e-01	
   4.4880000e+01	  -7.0837533e-01	
   4.4935000e+01	  -7.3954251e-01	
   4.4990000e+01	  -7.4531261e-01	
   4.5045000e+01	  -7.2497013e-01	
   4.5100000e+01	  -6.8294566e-01	
   4.5155000e+01	  -6.2817756e-01	
   4.5210000e+01	  -5.7245443e-01	
   4.5265000e+01	  -5.2803176e-01	
   4.5320000e+01	  -5.0512258e-01	
   4.5375000e+01	  -5.0996675e-01	
   4.5430000e+01	  -5.4393132e-01	
   4.5485000e+01	  -6.0361803e-01	
   4.5540000e+01	  -6.8165480e-01	
   4.5595000e+01	  -7.6792335e-01	
   4.5650000e+01	  -8.5107713e-01	
   4.5705000e+01	  -9.2011381e-01	
   4.5760000e+01	  -9.6582215e-01	
   4.5815000e+01	  -9.8217221e-01	
   4.5870000e+01	  -9.6763064e-01	
   4.5925000e+01	  -9.2590548e-01	
   4.5980000e+01	  -8.6548047e-01	
   4.6035000e+01	  -7.9787336e-01	
   4.6090000e+01	  -7.3523507e-01	
   4.6145000e+01	  -6.8803983e-01	
   4.6200000e+01	  -6.6336936e-01	
   4.6255000e+01	  -6.6402640e-01	
   4.6310000e+01	  -6.8841993e-01	
   4.6365000e+01	  -7.3094857e-01	
   4.6420000e+01	  -7.8270933e-01	
   4.6475000e+01	  -8.3264607e-01	
   4.6530000e+01	  -8.6932489e-01	
   4.6585000e+01	  -8.8321162e-01	
   4.6640000e+01	  -8.6889513e-01	
   4.6695000e+01	  -8.2656867e-01	
   4.6750000e+01	  -7.6232512e-01	
   4.6805000e+01	  -6.8714268e-01	
   4.6860000e+01	  -6.1473511e-01	
   4.6915000e+01	  -5.5883222e-01	
   4.6970000e+01	  -5.3067355e-01	
   4.7025000e+01	  -5.3720039e-01	
   4.7080000e+01	  -5.8000298e-01	
   4.7135000e+01	  -6.5505116e-01	
   4.7190000e+01	  -7.5333865e-01	
   4.7245000e+01	  -8.6236031e-01	
   4.7300000e+01	  -9.6808128e-01	
   4.7355000e+01	  -1.0571178e+00	
   4.7410000e+01	  -1.1189523e+00	
   4.7465000e+01	  -1.1478265e+00	
   4.7520000e+01	  -1.1438069e+00	
   4.7575000e+01	  -1.1126843e+00	
   4.7630000e+01	  -1.0646517e+00	
   4.7685000e+01	  -1.0119704e+00	
   4.7740000e+01	  -9.6623008e-01	
   4.7795000e+01	  -9.3606160e-01	
   4.7850000e+01	  -9.2590077e-01	
   4.7905000e+01	  -9.3584934e-01	
   4.7960000e+01	  -9.6229073e-01	
   4.8015000e+01	  -9.9884703e-01	
   4.8070000e+01	  -1.0374458e+00	
   4.8125000e+01	  -1.0695266e+00	
   4.8180000e+01	  -1.0874779e+00	
   4.8235000e+01	  -1.0862124e+00	
   4.8290000e+01	  -1.0645855e+00	
   4.8345000e+01	  -1.0262141e+00	
   4.8400000e+01	  -9.7921735e-01	
   4.8455000e+01	  -9.3469438e-01	
   4.8510000e+01	  -9.0430890e-01	
   4.8565000e+01	  -8.9765676e-01	
   4.8620000e+01	  -9.2000283e-01	
   4.8675000e+01	  -9.7084949e-01	
   4.8730000e+01	  -1.0436891e+00	
   4.8785000e+01	  -1.1269782e+00	
   4.8840000e+01	  -1.2060203e+00	
   4.8895000e+01	  -1.2653621e+00	
   4.8950000e+01	  -1.2914063e+00	
   4.9005000e+01	  -1.2748886e+00	
   4.9060000e+01	  -1.2126963e+00	
   4.9115000e+01	  -1.1085616e+00	
   4.9170000e+01	  -9.7246729e-01	
   4.9225000e+01	  -8.1889823e-01	
   4.9280000e+01	  -6.6430516e-01	
   4.9335000e+01	  -5.2433616e-01	
   4.9390000e+01	  -4.1142466e-01	
   4.9445000e+01	  -3.3313807e-01	
   4.9500000e+01	  -2.9140511e-01	
   4.9555000e+01	  -2.8256230e-01	
   4.9610000e+01	  -2.9815982e-01	
   4.9665000e+01	  -3.2646240e-01	
   4.9720000e+01	  -3.5444646e-01	
   4.9775000e+01	  -3.6996313e-01	
   4.9830000e+01	  -3.6375315e-01	
   4.9885000e+01	  -3.3105537e-01	
   4.9940000e+01	  -2.7250369e-01	
   4.9995000e+01	  -1.9401804e-01	
   5.0050000e+01	  -1.0561394e-01	
   5.0105000e+01	  -1.9329392e-02	
   5.0160000e+01	   5.3283154e-02	
   5.0215000e+01	   1.0342859e-01	
   5.0270000e+01	   1.2649510e-01	
   5.0325000e+01	   1.2247801e-01	
   5.0380000e+01	   9.5676429e-02	
   5.0435000e+01	   5.3972819e-02	
   5.0490000e+01	   7.7652136e-03	
   5.0545000e+01	  -3.1535935e-02	
   5.0600000e+01	  -5.3428328e-02	
   5.0655000e+01	  -5.0366231e-02	
   5.0710000e+01	  -1.9407669e-02	
   5.0765000e+01	   3.7112183e-02	
   5.0820000e+01	   1.1220433e-01	
   5.0875000e+01	   1.9596103e-01	
   5.0930000e+01	   2.7775970e-01	
   5.0985000e+01	   3.4829551e-01	
   5.1040000e+01	   4.0116273e-01	
   5.1095000e+01	   4.3388355e-01	
   5.1150000e+01	   4.4817885e-01	
   5.1205000e+01	   4.4932697e-01	
   5.1260000e+01	   4.4481692e-01	
   5.1315000e+01	   4.4275313e-01	
   5.1370000e+01	   4.5030201e-01	
   5.1425000e+01	   4.7220417e-01	
   5.1480000e+01	   5.0946715e-01	
   5.1535000e+01	   5.5870984e-01	
   5.1590000e+01	   6.1268641e-01	
   5.1645000e+01	   6.6202112e-01	
   5.1700000e+01	   6.9760147e-01	
   5.1755000e+01	   7.1290188e-01	
   5.1810000e+01	   7.0565853e-01	
   5.1865000e+01	   6.7851788e-01	
   5.1920000e+01	   6.3852427e-01	
   5.1975000e+01	   5.9564048e-01	
   5.2030000e+01	   5.6075838e-01	
   5.2085000e+01	   5.4368217e-01	
   5.2140000e+01	   5.5140330e-01	
   5.2195000e+01	   5.8682336e-01	
   5.2250000e+01	   6.4803176e-01	
   5.2305000e+01	   7.2829862e-01	
   5.2360000e+01	   8.1697636e-01	
   5.2415000e+01	   9.0132918e-01	
   5.2470000e+01	   9.6892130e-01	
   5.2525000e+01	   1.0099457e+00	
   5.2580000e+01	   1.0190197e+00	
   5.2635000e+01	   9.9623487e-01	
   5.2690000e+01	   9.4730892e-01	
   5.2745000e+01	   8.8273101e-01	
   5.2800000e+01	   8.1605613e-01	
   5.2855000e+01	   7.6175209e-01	
   5.2910000e+01	   7.3293436e-01	
   5.2965000e+01	   7.3917379e-01	
   5.3020000e+01	   7.8464692e-01	
   5.3075000e+01	   8.6705280e-01	
   5.3130000e+01	   9.7765312e-01	
   5.3185000e+01	   1.1025336e+00	
   5.3240000e+01	   1.2248820e+00	
   5.3295000e+01	   1.3278332e+00	
   5.3350000e+01	   1.3972808e+00	
   5.3405000e+01	   1.4240531e+00	
   5.3460000e+01	   1.4050899e+00	
   5.3515000e+01	   1.3436219e+00	
   5.3570000e+01	   1.2485559e+00	
   5.3625000e+01	   1.1332289e+00	
   5.3680000e+01	   1.0136511e+00	
   5.3735000e+01	   9.0642407e-01	
   5.3790000e+01	   8.2654488e-01	
   5.3845000e+01	   7.8525619e-01	
   5.3900000e+01	   7.8816529e-01	
   5.3955000e+01	   8.3405738e-01	
   5.4010000e+01	   9.1484938e-01	
   5.4065000e+01	   1.0168388e+00	
   5.4120000e+01	   1.1230350e+00	
   5.4175000e+01	   1.2161083e+00	
   5.4230000e+01	   1.2812915e+00	
   5.4285000e+01	   1.3085112e+00	
   5.4340000e+01	   1.2933559e+00	
   5.4395000e+01	   1.2370442e+00	
   5.4450000e+01	   1.1457921e+00	
   5.4505000e+01	   1.0298269e+00	
   5.4560000e+01	   9.0213209e-01	
   5.4615000e+01	   7.7701111e-01	
   5.4670000e+01	   6.6855947e-01	
   5.4725000e+01	   5.8904828e-01	
   5.4780000e+01	   5.4726016e-01	
   5.4835000e+01	   5.4703073e-01	
   5.4890000e+01	   5.8638134e-01	
   5.4945000e+01	   6.5753238e-01	
   5.5000000e+01	   7.4792064e-01	
   5.5055000e+01	   8.4217428e-01	
   5.5110000e+01	   9.2468136e-01	
   5.5165000e+01	   9.8209138e-01	
   5.5220000e+01	   1.0051989e+00	
   5.5275000e+01	   9.9005129e-01	
   5.5330000e+01	   9.3833711e-01	
   5.5385000e+01	   8.5708101e-01	
   5.5440000e+01	   7.5766564e-01	
   5.5495000e+01	   6.5428189e-01	
   5.5550000e+01	   5.6194691e-01	
   5.5605000e+01	   4.9422152e-01	
   5.5660000e+01	   4.6088200e-01	
   5.5715000e+01	   4.6601761e-01	
   5.5770000e+01	   5.0708339e-01	
   5.5825000e+01	   5.7526428e-01	
   5.5880000e+01	   6.5716177e-01	
   5.5935000e+01	   7.3735936e-01	
   5.5990000e+01	   8.0112184e-01	
   5.6045000e+01	   8.3659643e-01	
   5.6100000e+01	   8.3625307e-01	
   5.6155000e+01	   7.9760045e-01	
   5.6210000e+01	   7.2332549e-01	
   5.6265000e+01	   6.2095264e-01	
   5.6320000e+01	   5.0201078e-01	
   5.6375000e+01	   3.8068273e-01	
   5.6430000e+01	   2.7198482e-01	
   5.6485000e+01	   1.8957221e-01	
   5.6540000e+01	   1.4337509e-01	
   5.6595000e+01	   1.3753921e-01	
   5.6650000e+01	   1.6933407e-01	
   5.6705000e+01	   2.2953649e-01	
   5.6760000e+01	   3.0433382e-01	
   5.6815000e+01	   3.7822197e-01	
   5.6870000e+01	   4.3702847e-01	
   5.6925000e+01	   4.7034074e-01	
   5.6980000e+01	   4.7303952e-01	
   5.7035000e+01	   4.4588540e-01	
   5.7090000e+01	   3.9515010e-01	
   5.7145000e+01	   3.3135504e-01	
   5.7200000e+01	   2.6735374e-01	
   5.7255000e+01	   2.1613763e-01	
   5.7310000e+01	   1.8871232e-01	
   5.7365000e+01	   1.9223686e-01	
   5.7420000e+01	   2.2858908e-01	
   5.7475000e+01	   2.9371028e-01	
   5.7530000e+01	   3.7818226e-01	
   5.7585000e+01	   4.6909139e-01	
   5.7640000e+01	   5.5257056e-01	
   5.7695000e+01	   6.1625169e-01	
   5.7750000e+01	   6.5128020e-01	
   5.7805000e+01	   6.5378597e-01	
   5.7860000e+01	   6.2556452e-01	
   5.7915000e+01	   5.7375844e-01	
   5.7970000e+01	   5.0968710e-01	
   5.8025000e+01	   4.4715496e-01	
   5.8080000e+01	   4.0040273e-01	
   5.8135000e+01	   3.8178003e-01	
   5.8190000e+01	   3.9943380e-01	
   5.8245000e+01	   4.5553194e-01	
   5.8300000e+01	   5.4550847e-01	
   5.8355000e+01	   6.5859421e-01	
   5.8410000e+01	   7.7964892e-01	
   5.8465000e+01	   8.9198411e-01	
   5.8520000e+01	   9.8044148e-01	
   5.8575000e+01	   1.0338747e+00	
   5.8630000e+01	   1.0466188e+00	
   5.8685000e+01	   1.0190221e+00	
   5.8740000e+01	   9.5718764e-01	
   5.8795000e+01	   8.7199718e-01	
   5.8850000e+01	   7.7758927e-01	
   5.8905000e+01	   6.8957660e-01	
   5.8960000e+01	   6.2315234e-01	
   5.9015000e+01	   5.9105760e-01	
   5.9070000e+01	   6.0150435e-01	
   5.9125000e+01	   6.5648760e-01	
   5.9180000e+01	   7.5104685e-01	
   5.9235000e+01	   8.7380766e-01	
   5.9290000e+01	   1.0087865e+00	
   5.9345000e+01	   1.1381264e+00	
   5.9400000e+01	   1.2451649e+00	
   5.9455000e+01	   1.3171470e+00	
   5.9510000e+01	   1.3470764e+00	
   5.9565000e+01	   1.3345115e+00	
   5.9620000e+01	   1.2853569e+00	
   5.9675000e+01	   1.2107856e+00	
   5.9730000e+01	   1.1254647e+00	
   5.9785000e+01	   1.0453821e+00	
   5.9840000e+01	   9.8559560e-01	
   5.9895000e+01	   9.5805114e-01	
   5.9950000e+01	   9.6959443e-01	
   6.0005000e+01	   1.0205793e+00	
   6.0060000e+01	   1.1045649e+00	
   6.0115000e+01	   1.2093244e+00	
   6.0170000e+01	   1.3190256e+00	
   6.0225000e+01	   1.4171185e+00	
   6.0280000e+01	   1.4892211e+00	
   6.0335000e+01	   1.5253200e+00	
   6.0390000e+01	   1.5209572e+00	
   6.0445000e+01	   1.4774741e+00	
   6.0500000e+01	   1.4015286e+00	
   6.0555000e+01	   1.3040420e+00	
   6.0610000e+01	   1.1986836e+00	
   6.0665000e+01	   1.1000024e+00	
   6.0720000e+01	   1.0213530e+00	
   6.0775000e+01	   9.7283862e-01	
   6.0830000e+01	   9.5959791e-01	
   6.0885000e+01	   9.8080832e-01	
   6.0940000e+01	   1.0297680e+00	
   6.0995000e+01	   1.0952595e+00	
   6.1050000e+01	   1.1639972e+00	
   6.1105000e+01	   1.2234971e+00	
   6.1160000e+01	   1.2645077e+00	
   6.1215000e+01	   1.2823645e+00	
   6.1270000e+01	   1.2771290e+00	
   6.1325000e+01	   1.2528575e+00	
   6.1380000e+01	   1.2164995e+00	
   6.1435000e+01	   1.1767011e+00	
   6.1490000e+01	   1.1425098e+00	
   6.1545000e+01	   1.1219584e+00	
   6.1600000e+01	   1.1206668e+00	
   6.1655000e+01	   1.1406683e+00	
   6.1710000e+01	   1.1796492e+00	
   6.1765000e+01	   1.2308868e+00	
   6.1820000e+01	   1.2841994e+00	
   6.1875000e+01	   1.3278796e+00	
   6.1930000e+01	   1.3510905e+00	
   6.1985000e+01	   1.3460750e+00	
   6.2040000e+01	   1.3097598e+00	
   6.2095000e+01	   1.2445062e+00	
   6.2150000e+01	   1.1578164e+00	
   6.2205000e+01	   1.0610746e+00	
   6.2260000e+01	   9.6779287e-01	
   6.2315000e+01	   8.9178119e-01	
   6.2370000e+01	   8.4524739e-01	
   6.2425000e+01	   8.3679658e-01	
   6.2480000e+01	   8.6971527e-01	
   6.2535000e+01	   9.4109295e-01	
   6.2590000e+01	   1.0420462e+00	
   6.2645000e+01	   1.1590543e+00	
   6.2700000e+01	   1.2763171e+00	
   6.2755000e+01	   1.3787527e+00	
   6.2810000e+01	   1.4548095e+00	
   6.2865000e+01	   1.4982701e+00	
   6.2920000e+01	   1.5087801e+00	
   6.2975000e+01	   1.4913074e+00	
   6.3030000e+01	   1.4548511e+00	
   6.3085000e+01	   1.4107759e+00	
   6.3140000e+01	   1.3711595e+00	
   6.3195000e+01	   1.3473084e+00	
   6.3250000e+01	   1.3483655e+00	
   6.3305000e+01	   1.3799587e+00	
   6.3360000e+01	   1.4430580e+00	
   6.3415000e+01	   1.5334244e+00	
   6.3470000e+01	   1.6420293e+00	
   6.3525000e+01	   1.7564842e+00	
   6.3580000e+01	   1.8631545e+00	
   6.3635000e+01	   1.9495009e+00	
   6.3690000e+01	   2.0061897e+00	
   6.3745000e+01	   2.0284955e+00	
   6.3800000e+01	   2.0166651e+00	
   6.3855000e+01	   1.9753708e+00	
   6.3910000e+01	   1.9127098e+00	
   6.3965000e+01	   1.8390607e+00	
   6.4020000e+01	   1.7658268e+00	
   6.4075000e+01	   1.7040568e+00	
   6.4130000e+01	   1.6629886e+00	
   6.4185000e+01	   1.6486235e+00	
   6.4240000e+01	   1.6626096e+00	
   6.4295000e+01	   1.7018591e+00	
   6.4350000e+01	   1.7591690e+00	
   6.4405000e+01	   1.8247113e+00	
   6.4460000e+01	   1.8879613e+00	
   6.4515000e+01	   1.9395871e+00	
   6.4570000e+01	   1.9729478e+00	
   6.4625000e+01	   1.9850249e+00	
   6.4680000e+01	   1.9767773e+00	
   6.4735000e+01	   1.9529447e+00	
   6.4790000e+01	   1.9212854e+00	
   6.4845000e+01	   1.8912277e+00	
   6.4900000e+01	   1.8720273e+00	
   6.4955000e+01	   1.8707130e+00	
   6.5010000e+01	   1.8902858e+00	
   6.5065000e+01	   1.9286914e+00	
   6.5120000e+01	   1.9789589e+00	
   6.5175000e+01	   2.0305722e+00	
   6.5230000e+01	   2.0717329e+00	
   6.5285000e+01	   2.0918764e+00	
   6.5340000e+01	   2.0838110e+00	
   6.5395000e+01	   2.0451037e+00	
   6.5450000e+01	   1.9785946e+00	
   6.5505000e+01	   1.8920071e+00	
   6.5560000e+01	   1.7966882e+00	
   6.5615000e+01	   1.7057233e+00	
   6.5670000e+01	   1.6318405e+00	
   6.5725000e+01	   1.5853857e+00	
   6.5780000e+01	   1.5724736e+00	
   6.5835000e+01	   1.5936061e+00	
   6.5890000e+01	   1.6432870e+00	
   6.5945000e+01	   1.7109342e+00	
   6.6000000e+01	   1.7828271e+00	
   6.6055000e+01	   1.8445105e+00	
   6.6110000e+01	   1.8831545e+00	
   6.6165000e+01	   1.8895075e+00	
   6.6220000e+01	   1.8591399e+00	
   6.6275000e+01	   1.7928440e+00	
   6.6330000e+01	   1.6963155e+00	
   6.6385000e+01	   1.5792771e+00	
   6.6440000e+01	   1.4541394e+00	
   6.6495000e+01	   1.3343965e+00	
   6.6550000e+01	   1.2330686e+00	
   6.6605000e+01	   1.1613223e+00	
   6.6660000e+01	   1.1271368e+00	
   6.6715000e+01	   1.1339657e+00	
   6.6770000e+01	   1.1796785e+00	
   6.6825000e+01	   1.2562661e+00	
   6.6880000e+01	   1.3506788e+00	
   6.6935000e+01	   1.4468038e+00	
   6.6990000e+01	   1.5281426e+00	
   6.7045000e+01	   1.5804597e+00	
   6.7100000e+01	   1.5937256e+00	
   6.7155000e+01	   1.5630688e+00	
   6.7210000e+01	   1.4889214e+00	
   6.7265000e+01	   1.3766935e+00	
   6.7320000e+01	   1.2361079e+00	
   6.7375000e+01	   1.0801460e+00	
   6.7430000e+01	   9.2359022e-01	
   6.7485000e+01	   7.8126107e-01	
   6.7540000e+01	   6.6608380e-01	
   6.7595000e+01	   5.8721789e-01	
   6.7650000e+01	   5.4864022e-01	
   6.7705000e+01	   5.4851221e-01	
   6.7760000e+01	   5.7942777e-01	
   6.7815000e+01	   6.2955443e-01	
   6.7870000e+01	   6.8460357e-01	
   6.7925000e+01	   7.3026083e-01	
   6.7980000e+01	   7.5448849e-01	
   6.8035000e+01	   7.4928022e-01	
   6.8090000e+01	   7.1176358e-01	
   6.8145000e+01	   6.4462130e-01	
   6.8200000e+01	   5.5565180e-01	
   6.8255000e+01	   4.5631032e-01	
   6.8310000e+01	   3.5944748e-01	
   6.8365000e+01	   2.7683345e-01	
   6.8420000e+01	   2.1704271e-01	
   6.8475000e+01	   1.8399813e-01	
   6.8530000e+01	   1.7630747e-01	
   6.8585000e+01	   1.8756214e-01	
   6.8640000e+01	   2.0771492e-01	
   6.8695000e+01	   2.2531717e-01	
   6.8750000e+01	   2.2999818e-01	
   6.8805000e+01	   2.1445534e-01	
   6.8860000e+01	   1.7551317e-01	
   6.8915000e+01	   1.1429552e-01	
   6.8970000e+01	   3.5832637e-02	
   6.9025000e+01	  -5.1679086e-02	
   6.9080000e+01	  -1.3796865e-01	
   6.9135000e+01	  -2.1216428e-01	
   6.9190000e+01	  -2.6451110e-01	
   6.9245000e+01	  -2.8804539e-01	
   6.9300000e+01	  -2.7994379e-01	
   6.9355000e+01	  -2.4234139e-01	
   6.9410000e+01	  -1.8242497e-01	
   6.9465000e+01	  -1.1160366e-01	
   6.9520000e+01	  -4.3745133e-02	
   6.9575000e+01	   7.1601899e-03	
   6.9630000e+01	   2.9338563e-02	
   6.9685000e+01	   1.5154442e-02	
   6.9740000e+01	  -3.7610582e-02	
   6.9795000e+01	  -1.2534578e-01	
   6.9850000e+01	  -2.3921200e-01	
   6.9905000e+01	  -3.6652087e-01	
   6.9960000e+01	  -4.9241942e-01	
   7.0015000e+01	  -6.0166424e-01	
   7.0070000e+01	  -6.8055593e-01	
   7.0125000e+01	  -7.1899269e-01	
   7.0180000e+01	  -7.1233955e-01	
   7.0235000e+01	  -6.6267051e-01	
   7.0290000e+01	  -5.7892605e-01	
   7.0345000e+01	  -4.7567289e-01	
   7.0400000e+01	  -3.7057995e-01	
   7.0455000e+01	  -2.8132216e-01	
   7.0510000e+01	  -2.2284958e-01	
   7.0565000e+01	  -2.0552247e-01	
   7.0620000e+01	  -2.3406092e-01	
   7.0675000e+01	  -3.0715265e-01	
   7.0730000e+01	  -4.1770194e-01	
   7.0785000e+01	  -5.5369870e-01	
   7.0840000e+01	  -6.9963205e-01	
   7.0895000e+01	  -8.3842328e-01	
   7.0950000e+01	  -9.5377588e-01	
   7.1005000e+01	  -1.0325450e+00	
   7.1060000e+01	  -1.0666288e+00	
   7.1115000e+01	  -1.0541675e+00	
   7.1170000e+01	  -1.0000250e+00	
   7.1225000e+01	  -9.1534889e-01	
   7.1280000e+01	  -8.1593257e-01	
   7.1335000e+01	  -7.1957518e-01	
   7.1390000e+01	  -6.4313070e-01	
   7.1445000e+01	  -5.9992619e-01	
   7.1500000e+01	  -5.9793970e-01	
   7.1555000e+01	  -6.3894139e-01	
   7.1610000e+01	  -7.1863728e-01	
   7.1665000e+01	  -8.2760170e-01	
   7.1720000e+01	  -9.5268953e-01	
   7.1775000e+01	  -1.0787943e+00	
   7.1830000e+01	  -1.1909609e+00	
   7.1885000e+01	  -1.2767426e+00	
   7.1940000e+01	  -1.3284004e+00	
   7.1995000e+01	  -1.3443297e+00	
   7.2050000e+01	  -1.3292174e+00	
   7.2105000e+01	  -1.2928492e+00	
   7.2160000e+01	  -1.2478792e+00	
   7.2215000e+01	  -1.2071025e+00	
   7.2270000e+01	  -1.1809127e+00	
   7.2325000e+01	  -1.1755361e+00	
   7.2380000e+01	  -1.1922553e+00	
   7.2435000e+01	  -1.2275208e+00	
   7.2490000e+01	  -1.2738412e+00	
   7.2545000e+01	  -1.3213402e+00	
   7.2600000e+01	  -1.3596627e+00	
   7.2655000e+01	  -1.3798379e+00	
   7.2710000e+01	  -1.3758979e+00	
   7.2765000e+01	  -1.3461466e+00	
   7.2820000e+01	  -1.2938211e+00	
   7.2875000e+01	  -1.2268041e+00	
   7.2930000e+01	  -1.1562978e+00	
   7.2985000e+01	  -1.0947494e+00	
   7.3040000e+01	  -1.0535054e+00	
   7.3095000e+01	  -1.0406054e+00	
   7.3150000e+01	  -1.0590533e+00	
   7.3205000e+01	  -1.1059533e+00	
   7.3260000e+01	  -1.1728072e+00	
   7.3315000e+01	  -1.2469107e+00	
   7.3370000e+01	  -1.3134693e+00	
   7.3425000e+01	  -1.3580140e+00	
   7.3480000e+01	  -1.3687503e+00	
   7.3535000e+01	  -1.3385186e+00	
   7.3590000e+01	  -1.2661569e+00	
   7.3645000e+01	  -1.1570960e+00	
   7.3700000e+01	  -1.0228341e+00	
   7.3755000e+01	  -8.7903825e-01	
   7.3810000e+01	  -7.4267607e-01	
   7.3865000e+01	  -6.2906049e-01	
   7.3920000e+01	  -5.4944673e-01	
   7.3975000e+01	  -5.0940182e-01	
   7.4030000e+01	  -5.0809260e-01	
   7.4085000e+01	  -5.3860293e-01	
   7.4140000e+01	  -5.8913373e-01	
   7.4195000e+01	  -6.4475926e-01	
   7.4250000e+01	  -6.8951232e-01	
   7.4305000e+01	  -7.0869534e-01	
   7.4360000e+01	  -6.9122823e-01	
   7.4415000e+01	  -6.3166856e-01	
   7.4470000e+01	  -5.3148138e-01	
   7.4525000e+01	  -3.9917732e-01	
   7.4580000e+01	  -2.4905384e-01	
   7.4635000e+01	  -9.8630229e-02	
   7.4690000e+01	   3.4606153e-02	
   7.4745000e+01	   1.3624293e-01	
   7.4800000e+01	   1.9707098e-01	
   7.4855000e+01	   2.1406950e-01	
   7.4910000e+01	   1.9038494e-01	
   7.4965000e+01	   1.3450859e-01	
   7.5020000e+01	   5.8825158e-02	
   7.5075000e+01	  -2.2232796e-02	
   7.5130000e+01	  -9.4132552e-02	
   7.5185000e+01	  -1.4406564e-01	
   7.5240000e+01	  -1.6254099e-01	
   7.5295000e+01	  -1.4466542e-01	
   7.5350000e+01	  -9.0958239e-02	
   7.5405000e+01	  -7.4627944e-03	
   7.5460000e+01	   9.5111574e-02	
   7.5515000e+01	   2.0328662e-01	
   7.5570000e+01	   3.0334518e-01	
   7.5625000e+01	   3.8372888e-01	
   7.5680000e+01	   4.3667263e-01	
   7.5735000e+01	   4.5892102e-01	
   7.5790000e+01	   4.5174159e-01	
   7.5845000e+01	   4.2045031e-01	
   7.5900000e+01	   3.7348963e-01	
   7.5955000e+01	   3.2110052e-01	
   7.6010000e+01	   2.7373768e-01	
   7.6065000e+01	   2.4034582e-01	
   7.6120000e+01	   2.2664668e-01	
   7.6175000e+01	   2.3386001e-01	
   7.6230000e+01	   2.5836919e-01	
   7.6285000e+01	   2.9246982e-01	
   7.6340000e+01	   3.2594550e-01	
   7.6395000e+01	   3.4814177e-01	
   7.6450000e+01	   3.5023363e-01	
   7.6505000e+01	   3.2728482e-01	
   7.6560000e+01	   2.7961098e-01	
   7.6615000e+01	   2.1305876e-01	
   7.6670000e+01	   1.3809030e-01	
   7.6725000e+01	   6.7914950e-02	
   7.6780000e+01	   1.6157879e-02	
   7.6835000e+01	  -5.4665516e-03	
   7.6890000e+01	   1.0810945e-02	
   7.6945000e+01	   6.7268329e-02	
   7.7000000e+01	   1.5983697e-01	
   7.7055000e+01	   2.7818618e-01	
   7.7110000e+01	   4.0702439e-01	
   7.7165000e+01	   5.2863705e-01	
   7.7220000e+01	   6.2613035e-01	
   7.7275000e+01	   6.8652742e-01	
   7.7330000e+01	   7.0301020e-01	
   7.7385000e+01	   6.7589623e-01	
   7.7440000e+01	   6.1223802e-01	
   7.7495000e+01	   5.2433745e-01	
   7.7550000e+01	   4.2775242e-01	
   7.7605000e+01	   3.3920687e-01	
   7.7660000e+01	   2.7444709e-01	
   7.7715000e+01	   2.4603129e-01	
   7.7770000e+01	   2.6129293e-01	
   7.7825000e+01	   3.2088360e-01	
   7.7880000e+01	   4.1826468e-01	
   7.7935000e+01	   5.4049189e-01	
   7.7990000e+01	   6.7049833e-01	
   7.8045000e+01	   7.9046831e-01	
   7.8100000e+01	   8.8518908e-01	
   7.8155000e+01	   9.4432320e-01	
   7.8210000e+01	   9.6333132e-01	
   7.8265000e+01	   9.4342182e-01	
   7.8320000e+01	   8.9091435e-01	
   7.8375000e+01	   8.1614731e-01	
   7.8430000e+01	   7.3205265e-01	
   7.8485000e+01	   6.5261716e-01	
   7.8540000e+01	   5.9129062e-01	
   7.8595000e+01	   5.5924772e-01	
   7.8650000e+01	   5.6361545e-01	
   7.8705000e+01	   6.0607082e-01	
   7.8760000e+01	   6.8222724e-01	
   7.8815000e+01	   7.8207162e-01	
   7.8870000e+01	   8.9154967e-01	
   7.8925000e+01	   9.9507931e-01	
   7.8980000e+01	   1.0783355e+00	
   7.9035000e+01	   1.1305510e+00	
   7.9090000e+01	   1.1459661e+00	
   7.9145000e+01	   1.1244448e+00	
   7.9200000e+01	   1.0712934e+00	
   7.9255000e+01	   9.9624765e-01	
   7.9310000e+01	   9.1176896e-01	
   7.9365000e+01	   8.3102428e-01	
   7.9420000e+01	   7.6587666e-01	
   7.9475000e+01	   7.2504170e-01	
   7.9530000e+01	   7.1260060e-01	
   7.9585000e+01	   7.2719842e-01	
   7.9640000e+01	   7.6222632e-01	
   7.9695000e+01	   8.0708733e-01	
   7.9750000e+01	   8.4934359e-01	
   7.9805000e+01	   8.7721972e-01	
   7.9860000e+01	   8.8182287e-01	
   7.9915000e+01	   8.5864035e-01	
   7.9970000e+01	   8.0819338e-01	
   8.0025000e+01	   7.3592525e-01	
   8.0080000e+01	   6.5141130e-01	
   8.0135000e+01	   5.6693803e-01	
   8.0190000e+01	   4.9561007e-01	
   8.0245000e+01	   4.4933218e-01	
   8.0300000e+01	   4.3695450e-01	
   8.0355000e+01	   4.6263878e-01	
   8.0410000e+01	   5.2462688e-01	
   8.0465000e+01	   6.1499527e-01	
   8.0520000e+01	   7.2087890e-01	
   8.0575000e+01	   8.2695338e-01	
   8.0630000e+01	   9.1845737e-01	
   8.0685000e+01	   9.8403670e-01	
   8.0740000e+01	   1.0178352e+00	
   8.0795000e+01	   1.0203892e+00	
   8.0850000e+01	   9.9817835e-01	
   8.0905000e+01	   9.6210554e-01	
   8.0960000e+01	   9.2541999e-01	
   8.1015000e+01	   9.0147078e-01	
   8.1070000e+01	   9.0145561e-01	
   8.1125000e+01	   9.3234754e-01	
   8.1180000e+01	   9.9536414e-01	
   8.1235000e+01	   1.0854079e+00	
   8.1290000e+01	   1.1917934e+00	
   8.1345000e+01	   1.3002516e+00	
   8.1400000e+01	   1.3956895e+00	
   8.1455000e+01	   1.4648712e+00	
   8.1510000e+01	   1.4984123e+00	
   8.1565000e+01	   1.4919982e+00	
   8.1620000e+01	   1.4469956e+00	
   8.1675000e+01	   1.3704762e+00	
   8.1730000e+01	   1.2744747e+00	
   8.1785000e+01	   1.1743726e+00	
   8.1840000e+01	   1.0865306e+00	
   8.1895000e+01	   1.0255130e+00	
   8.1950000e+01	   1.0014707e+00	
   8.2005000e+01	   1.0183172e+00	
   8.2060000e+01	   1.0731007e+00	
   8.2115000e+01	   1.1566780e+00	
   8.2170000e+01	   1.2555811e+00	
   8.2225000e+01	   1.3547007e+00	
   8.2280000e+01	   1.4401296e+00	
   8.2335000e+01	   1.5014569e+00	
   8.2390000e+01	   1.5330677e+00	
   8.2445000e+01	   1.5344259e+00	
   8.2500000e+01	   1.5095832e+00	
   8.2555000e+01	   1.4661660e+00	
   8.2610000e+01	   1.4140537e+00	
   8.2665000e+01	   1.3639507e+00	
   8.2720000e+01	   1.3259311e+00	
   8.2775000e+01	   1.3079187e+00	
   8.2830000e+01	   1.3141818e+00	
   8.2885000e+01	   1.3442151e+00	
   8.2940000e+01	   1.3925483e+00	
   8.2995000e+01	   1.4497639e+00	
   8.3050000e+01	   1.5044493e+00	
   8.3105000e+01	   1.5454644e+00	
   8.3160000e+01	   1.5639637e+00	
   8.3215000e+01	   1.5548421e+00	
   8.3270000e+01	   1.5175005e+00	
   8.3325000e+01	   1.4559748e+00	
   8.3380000e+01	   1.3784571e+00	
   8.3435000e+01	   1.2961689e+00	
   8.3490000e+01	   1.2215854e+00	
   8.3545000e+01	   1.1662180e+00	
   8.3600000e+01	   1.1383865e+00	
   8.3655000e+01	   1.1414535e+00	
   8.3710000e+01	   1.1729094e+00	
   8.3765000e+01	   1.2246603e+00	
   8.3820000e+01	   1.2846865e+00	
   8.3875000e+01	   1.3396626e+00	
   8.3930000e+01	   1.3776454e+00	
   8.3985000e+01	   1.3901362e+00	
   8.4040000e+01	   1.3733520e+00	
   8.4095000e+01	   1.3287147e+00	
   8.4150000e+01	   1.2625288e+00	
   8.4205000e+01	   1.1848840e+00	
   8.4260000e+01	   1.1079448e+00	
   8.4315000e+01	   1.0438898e+00	
   8.4370000e+01	   1.0028323e+00	
   8.4425000e+01	   9.9103408e-01	
   8.4480000e+01	   1.0096740e+00	
   8.4535000e+01	   1.0544256e+00	
   8.4590000e+01	   1.1160438e+00	
   8.4645000e+01	   1.1819305e+00	
   8.4700000e+01	   1.2383589e+00	
   8.4755000e+01	   1.2728667e+00	
   8.4810000e+01	   1.2763007e+00	
   8.4865000e+01	   1.2441180e+00	
   8.4920000e+01	   1.1768538e+00	
   8.4975000e+01	   1.0799146e+00	
   8.5030000e+01	   9.6285897e-01	
   8.5085000e+01	   8.3825400e-01	
   8.5140000e+01	   7.2021058e-01	
   8.5195000e+01	   6.2267774e-01	
   8.5250000e+01	   5.5752995e-01	
   8.5305000e+01	   5.3258706e-01	
   8.5360000e+01	   5.4994462e-01	
   8.5415000e+01	   6.0510413e-01	
   8.5470000e+01	   6.8725299e-01	
   8.5525000e+01	   7.8076882e-01	
   8.5580000e+01	   8.6771084e-01	
   8.5635000e+01	   9.3078057e-01	
   8.5690000e+01	   9.5612423e-01	
   8.5745000e+01	   9.3543157e-01	
   8.5800000e+01	   8.6698850e-01	
   8.5855000e+01	   7.5563765e-01	
   8.5910000e+01	   6.1182905e-01	
   8.5965000e+01	   4.5001510e-01	
   8.6020000e+01	   2.8670732e-01	
   8.6075000e+01	   1.3849689e-01	
   8.6130000e+01	   2.0131844e-02	
   8.6185000e+01	  -5.7363385e-02	
   8.6240000e+01	  -8.8350081e-02	
   8.6295000e+01	  -7.3644295e-02	
   8.6350000e+01	  -2.0649706e-02	
   8.6405000e+01	   5.7620893e-02	
   8.6460000e+01	   1.4457053e-01	
   8.6515000e+01	   2.2270101e-01	
   8.6570000e+01	   2.7635363e-01	
   8.6625000e+01	   2.9402309e-01	
   8.6680000e+01	   2.7002636e-01	
   8.6735000e+01	   2.0537620e-01	
   8.6790000e+01	   1.0764179e-01	
   8.6845000e+01	  -1.0296076e-02	
   8.6900000e+01	  -1.3239681e-01	
   8.6955000e+01	  -2.4214747e-01	
   8.7010000e+01	  -3.2538473e-01	
   8.7065000e+01	  -3.7281605e-01	
   8.7120000e+01	  -3.8176203e-01	
   8.7175000e+01	  -3.5670087e-01	
   8.7230000e+01	  -3.0841325e-01	
   8.7285000e+01	  -2.5188098e-01	
   8.7340000e+01	  -2.0344972e-01	
   8.7395000e+01	  -1.7792684e-01	
   8.7450000e+01	  -1.8619980e-01	
   8.7505000e+01	  -2.3371301e-01	
   8.7560000e+01	  -3.1984472e-01	
   8.7615000e+01	  -4.3807657e-01	
   8.7670000e+01	  -5.7690344e-01	
   8.7725000e+01	  -7.2144238e-01	
   8.7780000e+01	  -8.5551834e-01	
   8.7835000e+01	  -9.6384222e-01	
   8.7890000e+01	  -1.0339955e+00	
   8.7945000e+01	  -1.0581420e+00	
   8.8000000e+01	  -1.0343933e+00	
   8.8055000e+01	  -9.6760428e-01	
   8.8110000e+01	  -8.6928528e-01	
   8.8165000e+01	  -7.5635656e-01	
   8.8220000e+01	  -6.4871283e-01	
   8.8275000e+01	  -5.6599226e-01	
   8.8330000e+01	  -5.2430687e-01	
   8.8385000e+01	  -5.3372717e-01	
   8.8440000e+01	  -5.9697864e-01	
   8.8495000e+01	  -7.0933824e-01	
   8.8550000e+01	  -8.5945468e-01	
   8.8605000e+01	  -1.0308571e+00	
   8.8660000e+01	  -1.2040287e+00	
   8.8715000e+01	  -1.3588804e+00	
   8.8770000e+01	  -1.4773546e+00	
   8.8825000e+01	  -1.5458666e+00	
   8.8880000e+01	  -1.5572891e+00	
   8.8935000e+01	  -1.5121728e+00	
   8.8990000e+01	  -1.4189691e+00	
   8.9045000e+01	  -1.2930702e+00	
   8.9100000e+01	  -1.1545875e+00	
   8.9155000e+01	  -1.0251801e+00	
   8.9210000e+01	  -9.2467425e-01	
   8.9265000e+01	  -8.6821736e-01	
   8.9320000e+01	  -8.6442237e-01	
   8.9375000e+01	  -9.1467073e-01	
   8.9430000e+01	  -1.0134416e+00	
   8.9485000e+01	  -1.1493627e+00	
   8.9540000e+01	  -1.3067477e+00	
   8.9595000e+01	  -1.4675351e+00	
   8.9650000e+01	  -1.6135935e+00	
   8.9705000e+01	  -1.7292668e+00	
   8.9760000e+01	  -1.8038014e+00	
   8.9815000e+01	  -1.8330927e+00	
   8.9870000e+01	  -1.8202833e+00	
   8.9925000e+01	  -1.7750921e+00	
   8.9980000e+01	  -1.7120411e+00	
   9.0035000e+01	  -1.6478698e+00	
   9.0090000e+01	  -1.5986022e+00	
   9.0145000e+01	  -1.5769028e+00	
   9.0200000e+01	  -1.5902586e+00	
   9.0255000e+01	  -1.6401705e+00	
   9.0310000e+01	  -1.7222649e+00	
   9.0365000e+01	  -1.8272130e+00	
   9.0420000e+01	  -1.9423443e+00	
   9.0475000e+01	  -2.0536423e+00	
   9.0530000e+01	  -2.1477067e+00	
   9.0585000e+01	  -2.2134947e+00	
   9.0640000e+01	  -2.2438693e+00	
   9.0695000e+01	  -2.2368455e+00	
   9.0750000e+01	  -2.1962064e+00	
   9.0805000e+01	  -2.1311509e+00	
   9.0860000e+01	  -2.0548588e+00	
   9.0915000e+01	  -1.9822046e+00	
   9.0970000e+01	  -1.9271826e+00	
   9.1025000e+01	  -1.9006684e+00	
   9.1080000e+01	  -1.9088906e+00	
   9.1135000e+01	  -1.9526364e+00	
   9.1190000e+01	  -2.0270973e+00	
   9.1245000e+01	  -2.1223586e+00	
   9.1300000e+01	  -2.2245736e+00	
   9.1355000e+01	  -2.3177549e+00	
   9.1410000e+01	  -2.3860345e+00	
   9.1465000e+01	  -2.4162148e+00	
   9.1520000e+01	  -2.4002859e+00	
   9.1575000e+01	  -2.3373263e+00	
   9.1630000e+01	  -2.2341067e+00	
   9.1685000e+01	  -2.1040713e+00	
   9.1740000e+01	  -1.9649657e+00	
   9.1795000e+01	  -1.8357758e+00	
   9.1850000e+01	  -1.7336443e+00	
   9.1905000e+01	  -1.6712914e+00	
   9.1960000e+01	  -1.6553002e+00	
   9.2015000e+01	  -1.6853789e+00	
   9.2070000e+01	  -1.7545559e+00	
   9.2125000e+01	  -1.8503042e+00	
   9.2180000e+01	  -1.9565046e+00	
   9.2235000e+01	  -2.0558548e+00	
   9.2290000e+01	  -2.1322571e+00	
   9.2345000e+01	  -2.1729878e+00	
   9.2400000e+01	  -2.1705731e+00	
   9.2455000e+01	  -2.1240944e+00	
   9.2510000e+01	  -2.0395170e+00	
   9.2565000e+01	  -1.9287559e+00	
   9.2620000e+01	  -1.8075406e+00	
   9.2675000e+01	  -1.6926005e+00	
   9.2730000e+01	  -1.5989371e+00	
   9.2785000e+01	  -1.5377482e+00	
   9.2840000e+01	  -1.5151867e+00	
   9.2895000e+01	  -1.5318838e+00	
   9.2950000e+01	  -1.5831247e+00	
   9.3005000e+01	  -1.6596162e+00	
   9.3060000e+01	  -1.7487827e+00	
   9.3115000e+01	  -1.8364139e+00	
   9.3170000e+01	  -1.9084260e+00	
   9.3225000e+01	  -1.9526198e+00	
   9.3280000e+01	  -1.9604139e+00	
   9.3335000e+01	  -1.9283273e+00	
   9.3390000e+01	  -1.8587660e+00	
   9.3445000e+01	  -1.7597780e+00	
   9.3500000e+01	  -1.6437355e+00	
   9.3555000e+01	  -1.5251679e+00	
   9.3610000e+01	  -1.4182126e+00	
   9.3665000e+01	  -1.3343075e+00	
   9.3720000e+01	  -1.2806386e+00	
   9.3775000e+01	  -1.2595166e+00	
   9.3830000e+01	  -1.2685218e+00	
   9.3885000e+01	  -1.3011357e+00	
   9.3940000e+01	  -1.3476830e+00	
   9.3995000e+01	  -1.3965977e+00	
   9.4050000e+01	  -1.4361288e+00	
   9.4105000e+01	  -1.4564611e+00	
   9.4160000e+01	  -1.4518657e+00	
   9.4215000e+01	  -1.4221949e+00	
   9.4270000e+01	  -1.3730776e+00	
   9.4325000e+01	  -1.3146034e+00	
   9.4380000e+01	  -1.2589114e+00	
   9.4435000e+01	  -1.2174643e+00	
   9.4490000e+01	  -1.1986704e+00	
   9.4545000e+01	  -1.2062651e+00	
   9.4600000e+01	  -1.2387187e+00	
   9.4655000e+01	  -1.2896604e+00	
   9.4710000e+01	  -1.3489885e+00	
   9.4765000e+01	  -1.4043963e+00	
   9.4820000e+01	  -1.4432608e+00	
   9.4875000e+01	  -1.4547668e+00	
   9.4930000e+01	  -1.4318895e+00	
   9.4985000e+01	  -1.3728584e+00	
   9.5040000e+01	  -1.2818895e+00	
   9.5095000e+01	  -1.1689585e+00	
   9.5150000e+01	  -1.0483514e+00	
   9.5205000e+01	  -9.3610330e-01	
   9.5260000e+01	  -8.4704752e-01	
   9.5315000e+01	  -7.9232681e-01	
   9.5370000e+01	  -7.7781513e-01	
   9.5425000e+01	  -8.0349687e-01	
   9.5480000e+01	  -8.6369549e-01	
   9.5535000e+01	  -9.4798406e-01	
   9.5590000e+01	  -1.0426076e+00	
   9.5645000e+01	  -1.1322989e+00	
   9.5700000e+01	  -1.2023461e+00	
   9.5755000e+01	  -1.2406514e+00	
   9.5810000e+01	  -1.2394517e+00	
   9.5865000e+01	  -1.1964419e+00	
   9.5920000e+01	  -1.1151676e+00	
   9.5975000e+01	  -1.0046261e+00	
   9.6030000e+01	  -8.7802216e-01	
   9.6085000e+01	  -7.5075451e-01	
   9.6140000e+01	  -6.3798933e-01	
   9.6195000e+01	  -5.5234941e-01	
   9.6250000e+01	  -5.0216541e-01	
   9.6305000e+01	  -4.9052689e-01	
   9.6360000e+01	  -5.1519086e-01	
   9.6415000e+01	  -5.6927003e-01	
   9.6470000e+01	  -6.4245827e-01	
   9.6525000e+01	  -7.2246237e-01	
   9.6580000e+01	  -7.9649454e-01	
   9.6635000e+01	  -8.5291774e-01	
   9.6690000e+01	  -8.8301954e-01	
   9.6745000e+01	  -8.8256419e-01	
   9.6800000e+01	  -8.5269147e-01	
   9.6855000e+01	  -7.9987417e-01	
   9.6910000e+01	  -7.3476307e-01	
   9.6965000e+01	  -6.7000579e-01	
   9.7020000e+01	  -6.1764285e-01	
   9.7075000e+01	  -5.8692211e-01	
   9.7130000e+01	  -5.8296742e-01	
   9.7185000e+01	  -6.0622609e-01	
   9.7240000e+01	  -6.5256166e-01	
   9.7295000e+01	  -7.1400137e-01	
   9.7350000e+01	  -7.8005796e-01	
   9.7405000e+01	  -8.3937447e-01	
   9.7460000e+01	  -8.8148575e-01	
   9.7515000e+01	  -8.9856675e-01	
   9.7570000e+01	  -8.8693168e-01	
   9.7625000e+01	  -8.4795617e-01	
   9.7680000e+01	  -7.8814773e-01	
   9.7735000e+01	  -7.1819830e-01	
   9.7790000e+01	  -6.5105614e-01	
   9.7845000e+01	  -5.9937377e-01	
   9.7900000e+01	  -5.7294758e-01	
   9.7955000e+01	  -5.7678358e-01	
   9.8010000e+01	  -6.1018532e-01	
   9.8065000e+01	  -6.6693553e-01	
   9.8120000e+01	  -7.3643848e-01	
   9.8175000e+01	  -8.0557698e-01	
   9.8230000e+01	  -8.6091629e-01	
   9.8285000e+01	  -8.9086983e-01	
   9.8340000e+01	  -8.8763382e-01	
   9.8395000e+01	  -8.4882913e-01	
   9.8450000e+01	  -7.7854974e-01	
   9.8505000e+01	  -6.8718490e-01	
   9.8560000e+01	  -5.8959834e-01	
   9.8615000e+01	  -5.0205454e-01	
   9.8670000e+01	  -4.3892064e-01	
   9.8725000e+01	  -4.1011699e-01	
   9.8780000e+01	  -4.1980400e-01	
   9.8835000e+01	  -4.6628972e-01	
   9.8890000e+01	  -5.4278522e-01	
   9.8945000e+01	  -6.3858338e-01	
   9.9000000e+01	  -7.4047680e-01	
   9.9055000e+01	  -8.3441288e-01	
   9.9110000e+01	  -9.0730650e-01	
   9.9165000e+01	  -9.4881426e-01	
   9.9220000e+01	  -9.5290807e-01	
   9.9275000e+01	  -9.1907089e-01	
   9.9330000e+01	  -8.5271969e-01	
   9.9385000e+01	  -7.6441206e-01	
   9.9440000e+01	  -6.6787784e-01	
   9.9495000e+01	  -5.7752943e-01	
   9.9550000e+01	  -5.0616095e-01	
   9.9605000e+01	  -4.6313912e-01	
   9.9660000e+01	  -4.5312626e-01	
   9.9715000e+01	  -4.7544401e-01	
   9.9770000e+01	  -5.2427151e-01	
   9.9825000e+01	  -5.8973553e-01	
   9.9880000e+01	  -6.5971981e-01	
   9.9935000e+01	  -7.2208456e-01	
   9.9990000e+01	  -7.6689749e-01	
   1.0004500e+02	  -7.8822611e-01	
   1.0010000e+02	  -7.8516186e-01	
   1.0015500e+02	  -7.6193263e-01	
   1.0021000e+02	  -7.2701837e-01	
   1.0026500e+02	  -6.9129342e-01	
   1.0032000e+02	  -6.6557819e-01	
   1.0037500e+02	  -6.5831464e-01	
   1.0043000e+02	  -6.7398342e-01	
   1.0048500e+02	  -7.1242594e-01	
   1.0054000e+02	  -7.6893557e-01	
   1.0059500e+02	  -8.3507146e-01	
   1.0065000e+02	  -9.0018929e-01	
   1.0070500e+02	  -9.5341965e-01	
   1.0076000e+02	  -9.8568468e-01	
   1.0081500e+02	  -9.9148778e-01	
   1.0087000e+02	  -9.7023695e-01	
   1.0092500e+02	  -9.2674845e-01	
   1.0098000e+02	  -8.7068536e-01	
   1.0103500e+02	  -8.1498263e-01	
   1.0109000e+02	  -7.7353142e-01	
   1.0114500e+02	  -7.5854333e-01	
   1.0120000e+02	  -7.7815937e-01	
   1.0125500e+02	  -8.3487168e-01	
   1.0131000e+02	  -9.2507603e-01	
   1.0136500e+02	  -1.0397209e+00	
   1.0142000e+02	  -1.1657896e+00	
   1.0147500e+02	  -1.2882853e+00	
   1.0153000e+02	  -1.3923971e+00	
   1.0158500e+02	  -1.4655993e+00	
   1.0164000e+02	  -1.4995322e+00	
   1.0169500e+02	  -1.4914761e+00	
   1.0175000e+02	  -1.4450869e+00	
   1.0180500e+02	  -1.3700632e+00	
   1.0186000e+02	  -1.2806239e+00	
   1.0191500e+02	  -1.1929840e+00	
   1.0197000e+02	  -1.1223644e+00	
   1.0202500e+02	  -1.0803025e+00	
   1.0208000e+02	  -1.0729294e+00	
   1.0213500e+02	  -1.1004973e+00	
   1.0219000e+02	  -1.1579919e+00	
   1.0224500e+02	  -1.2363957e+00	
   1.0230000e+02	  -1.3242214e+00	
   1.0235500e+02	  -1.4091630e+00	
   1.0241000e+02	  -1.4797783e+00	
   1.0246500e+02	  -1.5269840e+00	
   1.0252000e+02	  -1.5451992e+00	
   1.0257500e+02	  -1.5331939e+00	
   1.0263000e+02	  -1.4946115e+00	
   1.0268500e+02	  -1.4377735e+00	
   1.0274000e+02	  -1.3743980e+00	
   1.0279500e+02	  -1.3174627e+00	
   1.0285000e+02	  -1.2788938e+00	
   1.0290500e+02	  -1.2676521e+00	
   1.0296000e+02	  -1.2884833e+00	
   1.0301500e+02	  -1.3413863e+00	
   1.0307000e+02	  -1.4216568e+00	
   1.0312500e+02	  -1.5203230e+00	
   1.0318000e+02	  -1.6250061e+00	
   1.0323500e+02	  -1.7214146e+00	
   1.0329000e+02	  -1.7955317e+00	
   1.0334500e+02	  -1.8362051e+00	
   1.0340000e+02	  -1.8375792e+00	
   1.0345500e+02	  -1.8007219e+00	
   1.0351000e+02	  -1.7338294e+00	
   1.0356500e+02	  -1.6506458e+00	
   1.0362000e+02	  -1.5673728e+00	
   1.0367500e+02	  -1.4990239e+00	
   1.0373000e+02	  -1.4563180e+00	
   1.0378500e+02	  -1.4438249e+00	
   1.0384000e+02	  -1.4596036e+00	
   1.0389500e+02	  -1.4962030e+00	
   1.0395000e+02	  -1.5425780e+00	
   1.0400500e+02	  -1.5863507e+00	
   1.0406000e+02	  -1.6160267e+00	
   1.0411500e+02	  -1.6230194e+00	
   1.0417000e+02	  -1.6032960e+00	
   1.0422500e+02	  -1.5582386e+00	
   1.0428000e+02	  -1.4943481e+00	
   1.0433500e+02	  -1.4217969e+00	
   1.0439000e+02	  -1.3522172e+00	
   1.0444500e+02	  -1.2962829e+00	
   1.0450000e+02	  -1.2616146e+00	
   1.0455500e+02	  -1.2513952e+00	
   1.0461000e+02	  -1.2638654e+00	
   1.0466500e+02	  -1.2926676e+00	
   1.0472000e+02	  -1.3279343e+00	
   1.0477500e+02	  -1.3580084e+00	
   1.0483000e+02	  -1.3715751e+00	
   1.0488500e+02	  -1.3598456e+00	
   1.0494000e+02	  -1.3183885e+00	
   1.0499500e+02	  -1.2481875e+00	
   1.0505000e+02	  -1.1555669e+00	
   1.0510500e+02	  -1.0508685e+00	
   1.0516000e+02	  -9.4618477e-01	
   1.0521500e+02	  -8.5280287e-01	
   1.0527000e+02	  -7.7901472e-01	
   1.0532500e+02	  -7.2866377e-01	
   1.0538000e+02	  -7.0056501e-01	
   1.0543500e+02	  -6.8886788e-01	
   1.0549000e+02	  -6.8434992e-01	
   1.0554500e+02	  -6.7641296e-01	
   1.0560000e+02	  -6.5535205e-01	
   1.0565500e+02	  -6.1445062e-01	
   1.0571000e+02	  -5.5151508e-01	
   1.0576500e+02	  -4.6944113e-01	
   1.0582000e+02	  -3.7550754e-01	
   1.0587500e+02	  -2.7954794e-01	
   1.0593000e+02	  -1.9162516e-01	
   1.0598500e+02	  -1.1987294e-01	
   1.0604000e+02	  -6.8926158e-02	
   1.0609500e+02	  -3.9159199e-02	
   1.0615000e+02	  -2.6777665e-02	
   1.0620500e+02	  -2.4621585e-02	
   1.0626000e+02	  -2.3504229e-02	
   1.0631500e+02	  -1.4009201e-02	
   1.0637000e+02	   1.1440417e-02	
   1.0642500e+02	   5.6765521e-02	
   1.0648000e+02	   1.2127251e-01	
   1.0653500e+02	   1.9984232e-01	
   1.0659000e+02	   2.8422239e-01	
   1.0664500e+02	   3.6511916e-01	
   1.0670000e+02	   4.3447035e-01	
   1.0675500e+02	   4.8714606e-01	
   1.0681000e+02	   5.2167648e-01	
   1.0686500e+02	   5.4011358e-01	
   1.0692000e+02	   5.4730325e-01	
   1.0697500e+02	   5.4974587e-01	
   1.0703000e+02	   5.5422655e-01	
   1.0708500e+02	   5.6646902e-01	
   1.0714000e+02	   5.8999383e-01	
   1.0719500e+02	   6.2529455e-01	
   1.0725000e+02	   6.6959379e-01	
   1.0730500e+02	   7.1750465e-01	
   1.0736000e+02	   7.6257528e-01	
   1.0741500e+02	   7.9919407e-01	
   1.0747000e+02	   8.2416143e-01	
   1.0752500e+02	   8.3747718e-01	
   1.0758000e+02	   8.4225642e-01	
   1.0763500e+02	   8.4390097e-01	
   1.0769000e+02	   8.4873240e-01	
   1.0774500e+02	   8.6235631e-01	
   1.0780000e+02	   8.8807772e-01	
   1.0785500e+02	   9.2569697e-01	
   1.0791000e+02	   9.7103600e-01	
   1.0796500e+02	   1.0165264e+00	
   1.0802000e+02	   1.0529173e+00	
   1.0807500e+02	   1.0716385e+00	
   1.0813000e+02	   1.0670240e+00	
   1.0818500e+02	   1.0377955e+00	
   1.0824000e+02	   9.8762169e-01	
   1.0829500e+02	   9.2476126e-01	
   1.0835000e+02	   8.6084489e-01	
   1.0840500e+02	   8.0905759e-01	
   1.0846000e+02	   7.8209276e-01	
   1.0851500e+02	   7.9002174e-01	
   1.0857000e+02	   8.3814030e-01	
   1.0862500e+02	   9.2521909e-01	
   1.0868000e+02	   1.0428692e+00	
   1.0873500e+02	   1.1764721e+00	
   1.0879000e+02	   1.3075498e+00	
   1.0884500e+02	   1.4169791e+00	
   1.0890000e+02	   1.4882471e+00	
   1.0895500e+02	   1.5100392e+00	
   1.0901000e+02	   1.4778164e+00	
   1.0906500e+02	   1.3943536e+00	
   1.0912000e+02	   1.2693074e+00	
   1.0917500e+02	   1.1178900e+00	
   1.0923000e+02	   9.5884011e-01	
   1.0928500e+02	   8.1203411e-01	
   1.0934000e+02	   6.9607390e-01	
   1.0939500e+02	   6.2595965e-01	
   1.0945000e+02	   6.1091649e-01	
   1.0950500e+02	   6.5277319e-01	
   1.0956000e+02	   7.4548517e-01	
   1.0961500e+02	   8.7609256e-01	
   1.0967000e+02	   1.0269312e+00	
   1.0972500e+02	   1.1785806e+00	
   1.0978000e+02	   1.3128522e+00	
   1.0983500e+02	   1.4151709e+00	
   1.0989000e+02	   1.4760440e+00	
   1.0994500e+02	   1.4916909e+00	
   1.1000000e+02	   1.4640366e+00	
   1.1005500e+02	   1.4001354e+00	
   1.1011000e+02	   1.3109792e+00	
   1.1016500e+02	   1.2097469e+00	
   1.1022000e+02	   1.1097411e+00	
   1.1027500e+02	   1.0223243e+00	
   1.1033000e+02	   9.5514069e-01	
   1.1038500e+02	   9.1101037e-01	
   1.1044000e+02	   8.8794014e-01	
   1.1049500e+02	   8.8035447e-01	
   1.1055000e+02	   8.8106598e-01	
   1.1060500e+02	   8.8323550e-01	
   1.1066000e+02	   8.8180843e-01	
   1.1071500e+02	   8.7431935e-01	
   1.1077000e+02	   8.6114869e-01	
   1.1082500e+02	   8.4528700e-01	
   1.1088000e+02	   8.3161253e-01	
   1.1093500e+02	   8.2571021e-01	
   1.1099000e+02	   8.3235564e-01	
   1.1104500e+02	   8.5393178e-01	
   1.1110000e+02	   8.8915399e-01	
   1.1115500e+02	   9.3250398e-01	
   1.1121000e+02	   9.7470836e-01	
   1.1126500e+02	   1.0043431e+00	
   1.1132000e+02	   1.0101967e+00	
   1.1137500e+02	   9.8368700e-01	
   1.1143000e+02	   9.2069902e-01	
   1.1148500e+02	   8.2257680e-01	
   1.1154000e+02	   6.9624229e-01	
   1.1159500e+02	   5.5342393e-01	
   1.1165000e+02	   4.0904462e-01	
   1.1170500e+02	   2.7905364e-01	
   1.1176000e+02	   1.7810397e-01	
   1.1181500e+02	   1.1737681e-01	
   1.1187000e+02	   1.0276887e-01	
   1.1192500e+02	   1.3371635e-01	
   1.1198000e+02	   2.0298939e-01	
   1.1203500e+02	   2.9766630e-01	
   1.1209000e+02	   4.0119201e-01	
   1.1214500e+02	   4.9610153e-01	
   1.1220000e+02	   5.6680709e-01	
   1.1225500e+02	   6.0187216e-01	
   1.1231000e+02	   5.9541590e-01	
   1.1236500e+02	   5.4760541e-01	
   1.1242000e+02	   4.6438846e-01	
   1.1247500e+02	   3.5658432e-01	
   1.1253000e+02	   2.3837739e-01	
   1.1258500e+02	   1.2534431e-01	
   1.1264000e+02	   3.2282227e-02	
   1.1269500e+02	  -2.8885607e-02	
   1.1275000e+02	  -5.0908425e-02	
   1.1280500e+02	  -3.2464048e-02	
   1.1286000e+02	   2.1454634e-02	
   1.1291500e+02	   1.0028638e-01	
   1.1297000e+02	   1.8974068e-01	
   1.1302500e+02	   2.7432089e-01	
   1.1308000e+02	   3.3997104e-01	
   1.1313500e+02	   3.7635972e-01	
   1.1319000e+02	   3.7842854e-01	
   1.1324500e+02	   3.4698976e-01	
   1.1330000e+02	   2.8836846e-01	
   1.1335500e+02	   2.1315078e-01	
   1.1341000e+02	   1.3410943e-01	
   1.1346500e+02	   6.3641906e-02	
   1.1352000e+02	   1.1346577e-02	
   1.1357500e+02	  -1.7744334e-02	
   1.1363000e+02	  -2.3992950e-02	
   1.1368500e+02	  -1.2776346e-02	
   1.1374000e+02	   7.2084202e-03	
   1.1379500e+02	   2.6470182e-02	
   1.1385000e+02	   3.7160994e-02	
   1.1390500e+02	   3.4739747e-02	
   1.1396000e+02	   1.8685367e-02	
   1.1401500e+02	  -7.6768361e-03	
   1.1407000e+02	  -3.8144734e-02	
   1.1412500e+02	  -6.5216125e-02	
   1.1418000e+02	  -8.1924991e-02	
   1.1423500e+02	  -8.3543692e-02	
   1.1429000e+02	  -6.8796531e-02	
   1.1434500e+02	  -4.0242671e-02	
   1.1440000e+02	  -3.6193876e-03	
   1.1445500e+02	   3.3676839e-02	
   1.1451000e+02	   6.4436792e-02	
   1.1456500e+02	   8.3295756e-02	
   1.1462000e+02	   8.7962191e-02	
   1.1467500e+02	   7.9909460e-02	
   1.1473000e+02	   6.4321347e-02	
   1.1478500e+02	   4.9109566e-02	
   1.1484000e+02	   4.3156358e-02	
   1.1489500e+02	   5.4234531e-02	
   1.1495000e+02	   8.7044279e-02	
   1.1500500e+02	   1.4171823e-01	
   1.1506000e+02	   2.1319599e-01	
   1.1511500e+02	   2.9181762e-01	
   1.1517000e+02	   3.6513145e-01	
   1.1522500e+02	   4.2046676e-01	
   1.1528000e+02	   4.4757726e-01	
   1.1533500e+02	   4.4071663e-01	
   1.1539000e+02	   3.9980703e-01	
   1.1544500e+02	   3.3065064e-01	
   1.1550000e+02	   2.4418489e-01	
   1.1555500e+02	   1.5476829e-01	
   1.1561000e+02	   7.7693988e-02	
   1.1566500e+02	   2.6447448e-02	
   1.1572000e+02	   1.0334828e-02	
   1.1577500e+02	   3.2936567e-02	
   1.1583000e+02	   9.1587562e-02	
   1.1588500e+02	   1.7795748e-01	
   1.1594000e+02	   2.7970246e-01	
   1.1599500e+02	   3.8285152e-01	
   1.1605000e+02	   4.7429066e-01	
   1.1610500e+02	   5.4381777e-01	
   1.1616000e+02	   5.8556973e-01	
   1.1621500e+02	   5.9873100e-01	
   1.1627000e+02	   5.8742008e-01	
   1.1632500e+02	   5.5976546e-01	
   1.1638000e+02	   5.2632029e-01	
   1.1643500e+02	   4.9802421e-01	
   1.1649000e+02	   4.8402613e-01	
   1.1654500e+02	   4.8982302e-01	
   1.1660000e+02	   5.1612341e-01	
   1.1665500e+02	   5.5859647e-01	
   1.1671000e+02	   6.0852439e-01	
   1.1676500e+02	   6.5439319e-01	
   1.1682000e+02	   6.8428586e-01	
   1.1687500e+02	   6.8852399e-01	
   1.1693000e+02	   6.6181202e-01	
   1.1698500e+02	   6.0439581e-01	
   1.1704000e+02	   5.2207176e-01	
   1.1709500e+02	   4.2503806e-01	
   1.1715000e+02	   3.2579893e-01	
   1.1720500e+02	   2.3665369e-01	
   1.1726000e+02	   1.6740700e-01	
   1.1731500e+02	   1.2374694e-01	
   1.1737000e+02	   1.0649661e-01	
   1.1742500e+02	   1.1181975e-01	
   1.1748000e+02	   1.3236340e-01	
   1.1753500e+02	   1.5907502e-01	
   1.1759000e+02	   1.8318395e-01	
   1.1764500e+02	   1.9790689e-01	
   1.1770000e+02	   1.9967877e-01	
   1.1775500e+02	   1.8875013e-01	
   1.1781000e+02	   1.6895679e-01	
   1.1786500e+02	   1.4668832e-01	
   1.1792000e+02	   1.2937902e-01	
   1.1797500e+02	   1.2384995e-01	
   1.1803000e+02	   1.3467818e-01	
   1.1808500e+02	   1.6283840e-01	
   1.1814000e+02	   2.0508189e-01	
   1.1819500e+02	   2.5445570e-01	
   1.1825000e+02	   3.0190958e-01	
   1.1830500e+02	   3.3847601e-01	
   1.1836000e+02	   3.5736001e-01	
   1.1841500e+02	   3.5541209e-01	
   1.1847000e+02	   3.3373463e-01	
   1.1852500e+02	   2.9741718e-01	
   1.1858000e+02	   2.5450753e-01	
   1.1863500e+02	   2.1439498e-01	
   1.1869000e+02	   1.8589387e-01	
   1.1874500e+02	   1.7542091e-01	
   1.1880000e+02	   1.8569760e-01	
   1.1885500e+02	   2.1529573e-01	
   1.1891000e+02	   2.5906889e-01	
   1.1896500e+02	   3.0927939e-01	
   1.1902000e+02	   3.5715427e-01	
   1.1907500e+02	   3.9455860e-01	
   1.1913000e+02	   4.1545572e-01	
   1.1918500e+02	   4.1696861e-01	
   1.1924000e+02	   4.0002459e-01	
   1.1929500e+02	   3.6948526e-01	
   1.1935000e+02	   3.3349193e-01	
   1.1940500e+02	   3.0192101e-01	
   1.1946000e+02	   2.8425781e-01	
   1.1951500e+02	   2.8738251e-01	
   1.1957000e+02	   3.1369683e-01	
   1.1962500e+02	   3.6003147e-01	
   1.1968000e+02	   4.1781594e-01	
   1.1973500e+02	   4.7468544e-01	
   1.1979000e+02	   5.1704812e-01	
   1.1984500e+02	   5.3276840e-01	
   1.1990000e+02	   5.1336699e-01	
   1.1995500e+02	   4.5549875e-01	
   1.2001000e+02	   3.6157926e-01	
   1.2006500e+02	   2.3951923e-01	
   1.2012000e+02	   1.0168359e-01	
   1.2017500e+02	  -3.6750335e-02	
   1.2023000e+02	  -1.5983984e-01	
   1.2028500e+02	  -2.5304563e-01	
   1.2034000e+02	  -3.0523430e-01	
   1.2039500e+02	  -3.1036393e-01	
   1.2045000e+02	  -2.6872668e-01	
   1.2050500e+02	  -1.8739596e-01	
   1.2056000e+02	  -7.9419453e-02	
   1.2061500e+02	   3.8303247e-02	
   1.2067000e+02	   1.4792914e-01	
   1.2072500e+02	   2.3364275e-01	
   1.2078000e+02	   2.8412527e-01	
   1.2083500e+02	   2.9408410e-01	
   1.2089000e+02	   2.6455348e-01	
   1.2094500e+02	   2.0205392e-01	
   1.2100000e+02	   1.1706056e-01	
   1.2105500e+02	   2.2213012e-02	
   1.2111000e+02	  -6.9579392e-02	
   1.2116500e+02	  -1.4709488e-01	
   1.2122000e+02	  -2.0261738e-01	
   1.2127500e+02	  -2.3322587e-01	
   1.2133000e+02	  -2.4113649e-01	
   1.2138500e+02	  -2.3285354e-01	
   1.2144000e+02	  -2.1727200e-01	
   1.2149500e+02	  -2.0334886e-01	
   1.2155000e+02	  -1.9814785e-01	
   1.2160500e+02	  -2.0570970e-01	
   1.2166000e+02	  -2.2666748e-01	
   1.2171500e+02	  -2.5838963e-01	
   1.2177000e+02	  -2.9565172e-01	
   1.2182500e+02	  -3.3189359e-01	
   1.2188000e+02	  -3.6086229e-01	
   1.2193500e+02	  -3.7822790e-01	
   1.2199000e+02	  -3.8278642e-01	
   1.2204500e+02	  -3.7692565e-01	
   1.2210000e+02	  -3.6607425e-01	
   1.2215500e+02	  -3.5716760e-01	
   1.2221000e+02	  -3.5667510e-01	
   1.2226500e+02	  -3.6889591e-01	
   1.2232000e+02	  -3.9491039e-01	
   1.2237500e+02	  -4.3221990e-01	
   1.2243000e+02	  -4.7500442e-01	
   1.2248500e+02	  -5.1496097e-01	
   1.2254000e+02	  -5.4268756e-01	
   1.2259500e+02	  -5.4949046e-01	
   1.2265000e+02	  -5.2934145e-01	
   1.2270500e+02	  -4.8055537e-01	
   1.2276000e+02	  -4.0664985e-01	
   1.2281500e+02	  -3.1592930e-01	
   1.2287000e+02	  -2.1977148e-01	
   1.2292500e+02	  -1.3017634e-01	
   1.2298000e+02	  -5.7341553e-02	
   1.2303500e+02	  -7.7938559e-03	
   1.2309000e+02	   1.6651525e-02	
   1.2314500e+02	   1.8997862e-02	
   1.2320000e+02	   6.3560113e-03	
   1.2325500e+02	  -1.1352046e-02	
   1.2331000e+02	  -2.3137311e-02	
   1.2336500e+02	  -1.8994745e-02	
   1.2342000e+02	   8.0952958e-03	
   1.2347500e+02	   6.0653376e-02	
   1.2353000e+02	   1.3596213e-01	
   1.2358500e+02	   2.2632616e-01	
   1.2364000e+02	   3.2051861e-01	
   1.2369500e+02	   4.0621130e-01	
   1.2375000e+02	   4.7266821e-01	
   1.2380500e+02	   5.1290787e-01	
   1.2386000e+02	   5.2489729e-01	
   1.2391500e+02	   5.1170808e-01	
   1.2397000e+02	   4.8074535e-01	
   1.2402500e+02	   4.4226219e-01	
   1.2408000e+02	   4.0746852e-01	
   1.2413500e+02	   3.8655847e-01	
   1.2419000e+02	   3.8692083e-01	
   1.2424500e+02	   4.1176589e-01	
   1.2430000e+02	   4.5945859e-01	
   1.2435500e+02	   5.2384836e-01	
   1.2441000e+02	   5.9562383e-01	
   1.2446500e+02	   6.6435339e-01	
   1.2452000e+02	   7.2072486e-01	
   1.2457500e+02	   7.5850847e-01	
   1.2463000e+02	   7.7577696e-01	
   1.2468500e+02	   7.7506816e-01	
   1.2474000e+02	   7.6252784e-01	
   1.2479500e+02	   7.4633483e-01	
   1.2485000e+02	   7.3474001e-01	
   1.2490500e+02	   7.3406747e-01	
   1.2496000e+02	   7.4715383e-01	
   1.2501500e+02	   7.7274853e-01	
   1.2507000e+02	   8.0615016e-01	
   1.2512500e+02	   8.4085355e-01	
   1.2518000e+02	   8.7058935e-01	
   1.2523500e+02	   8.9111878e-01	
   1.2529000e+02	   9.0135256e-01	
   1.2534500e+02	   9.0358075e-01	
   1.2540000e+02	   9.0282401e-01	
   1.2545500e+02	   9.0550102e-01	
   1.2551000e+02	   9.1769136e-01	
   1.2556500e+02	   9.4338754e-01	
   1.2562000e+02	   9.8327604e-01	
   1.2567500e+02	   1.0344831e+00	
   1.2573000e+02	   1.0912966e+00	
   1.2578500e+02	   1.1464905e+00	
   1.2584000e+02	   1.1928551e+00	
   1.2589500e+02	   1.2247109e+00	
   1.2595000e+02	   1.2392295e+00	
   1.2600500e+02	   1.2372636e+00	
   1.2606000e+02	   1.2234219e+00	
   1.2611500e+02	   1.2053176e+00	
   1.2617000e+02	   1.1920654e+00	
   1.2622500e+02	   1.1922358e+00	
   1.2628000e+02	   1.2116699e+00	
   1.2633500e+02	   1.2517169e+00	
   1.2639000e+02	   1.3085096e+00	
   1.2644500e+02	   1.3737102e+00	
   1.2650000e+02	   1.4366176e+00	
   1.2655500e+02	   1.4869146e+00	
   1.2661000e+02	   1.5171442e+00	
   1.2666500e+02	   1.5242691e+00	
   1.2672000e+02	   1.5101333e+00	
   1.2677500e+02	   1.4809784e+00	
   1.2683000e+02	   1.4462012e+00	
   1.2688500e+02	   1.4164984e+00	
   1.2694000e+02	   1.4016633e+00	
   1.2699500e+02	   1.4085032e+00	
   1.2705000e+02	   1.4393172e+00	
   1.2710500e+02	   1.4911718e+00	
   1.2716000e+02	   1.5561630e+00	
   1.2721500e+02	   1.6228543e+00	
   1.2727000e+02	   1.6787009e+00	
   1.2732500e+02	   1.7127272e+00	
   1.2738000e+02	   1.7176622e+00	
   1.2743500e+02	   1.6911855e+00	
   1.2749000e+02	   1.6362702e+00	
   1.2754500e+02	   1.5606480e+00	
   1.2760000e+02	   1.4755123e+00	
   1.2765500e+02	   1.3937277e+00	
   1.2771000e+02	   1.3278176e+00	
   1.2776500e+02	   1.2879723e+00	
   1.2782000e+02	   1.2803709e+00	
   1.2787500e+02	   1.3060509e+00	
   1.2793000e+02	   1.3604803e+00	
   1.2798500e+02	   1.4340816e+00	
   1.2804000e+02	   1.5138980e+00	
   1.2809500e+02	   1.5861199e+00	
   1.2815000e+02	   1.6387205e+00	
   1.2820500e+02	   1.6634496e+00	
   1.2826000e+02	   1.6568195e+00	
   1.2831500e+02	   1.6201097e+00	
   1.2837000e+02	   1.5585706e+00	
   1.2842500e+02	   1.4800056e+00	
   1.2848000e+02	   1.3929836e+00	
   1.2853500e+02	   1.3050840e+00	
   1.2859000e+02	   1.2216019e+00	
   1.2864500e+02	   1.1450085e+00	
   1.2870000e+02	   1.0753037e+00	
   1.2875500e+02	   1.0111413e+00	
   1.2881000e+02	   9.5123035e-01	
   1.2886500e+02	   8.9536191e-01	
   1.2892000e+02	   8.4474573e-01	
   1.2897500e+02	   8.0178966e-01	
   1.2903000e+02	   7.6949708e-01	
   1.2908500e+02	   7.5054288e-01	
   1.2914000e+02	   7.4622663e-01	
   1.2919500e+02	   7.5561669e-01	
   1.2925000e+02	   7.7502977e-01	
   1.2930500e+02	   7.9791918e-01	
   1.2936000e+02	   8.1545985e-01	
   1.2941500e+02	   8.1808817e-01	
   1.2947000e+02	   7.9770242e-01	
   1.2952500e+02	   7.4973885e-01	
   1.2958000e+02	   6.7442782e-01	
   1.2963500e+02	   5.7696903e-01	
   1.2969000e+02	   4.6671338e-01	
   1.2974500e+02	   3.5560404e-01	
   1.2980000e+02	   2.5620730e-01	
   1.2985500e+02	   1.7969686e-01	
   1.2991000e+02	   1.3405987e-01	
   1.2996500e+02	   1.2262160e-01	
   1.3002000e+02	   1.4302055e-01	
   1.3007500e+02	   1.8704651e-01	
   1.3013000e+02	   2.4181914e-01	
   1.3018500e+02	   2.9228781e-01	
   1.3024000e+02	   3.2435677e-01	
   1.3029500e+02	   3.2769850e-01	
   1.3035000e+02	   2.9754576e-01	
   1.3040500e+02	   2.3515766e-01	
   1.3046000e+02	   1.4711171e-01	
   1.3051500e+02	   4.3874394e-02	
   1.3057000e+02	  -6.1967482e-02	
   1.3062500e+02	  -1.5764949e-01	
   1.3068000e+02	  -2.3219644e-01	
   1.3073500e+02	  -2.7815970e-01	
   1.3079000e+02	  -2.9290086e-01	
   1.3084500e+02	  -2.7925357e-01	
   1.3090000e+02	  -2.4528224e-01	
   1.3095500e+02	  -2.0287907e-01	
   1.3101000e+02	  -1.6542389e-01	
   1.3106500e+02	  -1.4523025e-01	
   1.3112000e+02	  -1.5144045e-01	
   1.3117500e+02	  -1.8864396e-01	
   1.3123000e+02	  -2.5630519e-01	
   1.3128500e+02	  -3.4906053e-01	
   1.3134000e+02	  -4.5779356e-01	
   1.3139500e+02	  -5.7122075e-01	
   1.3145000e+02	  -6.7773845e-01	
   1.3150500e+02	  -7.6735586e-01	
   1.3156000e+02	  -8.3344236e-01	
   1.3161500e+02	  -8.7385509e-01	
   1.3167000e+02	  -8.9103374e-01	
   1.3172500e+02	  -8.9094330e-01	
   1.3178000e+02	  -8.8118795e-01	
   1.3183500e+02	  -8.6892854e-01	
   1.3189000e+02	  -8.5922819e-01	
   1.3194500e+02	  -8.5419611e-01	
   1.3200000e+02	  -8.5297634e-01	
   1.3205500e+02	  -8.5242386e-01	
   1.3211000e+02	  -8.4828795e-01	
   1.3216500e+02	  -8.3669801e-01	
   1.3222000e+02	  -8.1560574e-01	
   1.3227500e+02	  -7.8576616e-01	
   1.3233000e+02	  -7.5095663e-01	
   1.3238500e+02	  -7.1729353e-01	
   1.3244000e+02	  -6.9168638e-01	
   1.3249500e+02	  -6.7979108e-01	
   1.3255000e+02	  -6.8415800e-01	
   1.3260500e+02	  -7.0326825e-01	
   1.3266000e+02	  -7.3171423e-01	
   1.3271500e+02	  -7.6125850e-01	
   1.3277000e+02	  -7.8236014e-01	
   1.3282500e+02	  -7.8596580e-01	
   1.3288000e+02	  -7.6542330e-01	
   1.3293500e+02	  -7.1814703e-01	
   1.3299000e+02	  -6.4655806e-01	
   1.3304500e+02	  -5.5797759e-01	
   1.3310000e+02	  -4.6333506e-01	
   1.3315500e+02	  -3.7484174e-01	
   1.3321000e+02	  -3.0327445e-01	
   1.3326500e+02	  -2.5574692e-01	
   1.3332000e+02	  -2.3449134e-01	
   1.3337500e+02	  -2.3666800e-01	
   1.3343000e+02	  -2.5504747e-01	
   1.3348500e+02	  -2.7942421e-01	
   1.3354000e+02	  -2.9853026e-01	
   1.3359500e+02	  -3.0210441e-01	
   1.3365000e+02	  -2.8279336e-01	
   1.3370500e+02	  -2.3762230e-01	
   1.3376000e+02	  -1.6875065e-01	
   1.3381500e+02	  -8.3200563e-02	
   1.3387000e+02	   8.5866005e-03	
   1.3392500e+02	   9.5058430e-02	
   1.3398000e+02	   1.6598458e-01	
   1.3403500e+02	   2.1430370e-01	
   1.3409000e+02	   2.3709927e-01	
   1.3414500e+02	   2.3576899e-01	
   1.3420000e+02	   2.1553370e-01	
   1.3425500e+02	   1.8444413e-01	
   1.3431000e+02	   1.5205196e-01	
   1.3436500e+02	   1.2782224e-01	
   1.3442000e+02	   1.1936049e-01	
   1.3447500e+02	   1.3076674e-01	
   1.3453000e+02	   1.6162171e-01	
   1.3458500e+02	   2.0698821e-01	
   1.3464000e+02	   2.5849880e-01	
   1.3469500e+02	   3.0626159e-01	
   1.3475000e+02	   3.4102207e-01	
   1.3480500e+02	   3.5596088e-01	
   1.3486000e+02	   3.4778151e-01	
   1.3491500e+02	   3.1708529e-01	
   1.3497000e+02	   2.6813929e-01	
   1.3502500e+02	   2.0807369e-01	
   1.3508000e+02	   1.4558233e-01	
   1.3513500e+02	   8.9381855e-02	
   1.3519000e+02	   4.6728573e-02	
   1.3524500e+02	   2.2123720e-02	
   1.3530000e+02	   1.6328991e-02	
   1.3535500e+02	   2.6077978e-02	
   1.3541000e+02	   4.4884910e-02	
   1.3546500e+02	   6.4840216e-02	
   1.3552000e+02	   7.8736825e-02	
   1.3557500e+02	   8.1841021e-02	
   1.3563000e+02	   7.2976342e-02	
   1.3568500e+02	   5.4799159e-02	
   1.3574000e+02	   3.3134562e-02	
   1.3579500e+02	   1.5427805e-02	
   1.3585000e+02	   8.7589388e-03	
   1.3590500e+02	   1.7978029e-02	
   1.3596000e+02	   4.4292846e-02	
   1.3601500e+02	   8.4520371e-02	
   1.3607000e+02	   1.3126392e-01	
   1.3612500e+02	   1.7415352e-01	
   1.3618000e+02	   2.0191864e-01	
   1.3623500e+02	   2.0472351e-01	
   1.3629000e+02	   1.7610864e-01	
   1.3634500e+02	   1.1410956e-01	
   1.3640000e+02	   2.1530709e-02	
   1.3645500e+02	  -9.4384838e-02	
   1.3651000e+02	  -2.2272294e-01	
   1.3656500e+02	  -3.5014195e-01	
   1.3662000e+02	  -4.6263207e-01	
   1.3667500e+02	  -5.4759213e-01	
   1.3673000e+02	  -5.9584731e-01	
   1.3678500e+02	  -6.0331182e-01	
   1.3684000e+02	  -5.7205458e-01	
   1.3689500e+02	  -5.1032307e-01	
   1.3695000e+02	  -4.3113388e-01	
   1.3700500e+02	  -3.4970781e-01	
   1.3706000e+02	  -2.8060540e-01	
   1.3711500e+02	  -2.3530329e-01	
   1.3717000e+02	  -2.2057121e-01	
   1.3722500e+02	  -2.3779827e-01	
   1.3728000e+02	  -2.8322189e-01	
   1.3733500e+02	  -3.4880479e-01	
   1.3739000e+02	  -4.2354311e-01	
   1.3744500e+02	  -4.9519476e-01	
   1.3750000e+02	  -5.5241942e-01	
   1.3755500e+02	  -5.8703125e-01	
   1.3761000e+02	  -5.9579179e-01	
   1.3766500e+02	  -5.8121402e-01	
   1.3772000e+02	  -5.5112495e-01	
   1.3777500e+02	  -5.1701866e-01	
   1.3783000e+02	  -4.9154611e-01	
   1.3788500e+02	  -4.8580146e-01	
   1.3794000e+02	  -5.0708702e-01	
   1.3799500e+02	  -5.5753402e-01	
   1.3805000e+02	  -6.3368558e-01	
   1.3810500e+02	  -7.2707842e-01	
   1.3816000e+02	  -8.2576471e-01	
   1.3821500e+02	  -9.1647631e-01	
   1.3827000e+02	  -9.8700089e-01	
   1.3832500e+02	  -1.0284597e+00	
   1.3838000e+02	  -1.0372441e+00	
   1.3843500e+02	  -1.0161470e+00	
   1.3849000e+02	  -9.7409779e-01	
   1.3854500e+02	  -9.2430648e-01	
   1.3860000e+02	  -8.8129813e-01	
   1.3865500e+02	  -8.5768722e-01	
   1.3871000e+02	  -8.6152818e-01	
   1.3876500e+02	  -8.9486118e-01	
   1.3882000e+02	  -9.5369983e-01	
   1.3887500e+02	  -1.0292889e+00	
   1.3893000e+02	  -1.1102403e+00	
   1.3898500e+02	  -1.1851094e+00	
   1.3904000e+02	  -1.2449166e+00	
   1.3909500e+02	  -1.2850712e+00	
   1.3915000e+02	  -1.3062202e+00	
   1.3920500e+02	  -1.3137173e+00	
   1.3926000e+02	  -1.3157836e+00	
   1.3931500e+02	  -1.3209005e+00	
   1.3937000e+02	  -1.3352215e+00	
   1.3942500e+02	  -1.3607010e+00	
   1.3948000e+02	  -1.3944296e+00	
   1.3953500e+02	  -1.4293240e+00	
   1.3959000e+02	  -1.4558535e+00	
   1.3964500e+02	  -1.4641871e+00	
   1.3970000e+02	  -1.4462792e+00	
   1.3975500e+02	  -1.3977001e+00	
   1.3981000e+02	  -1.3190462e+00	
   1.3986500e+02	  -1.2165817e+00	
   1.3992000e+02	  -1.1017435e+00	
   1.3997500e+02	  -9.8941007e-01	
   1.4003000e+02	  -8.9522540e-01	
   1.4008500e+02	  -8.3258523e-01	
   1.4014000e+02	  -8.0999540e-01	
   1.4019500e+02	  -8.2935065e-01	
   1.4025000e+02	  -8.8543728e-01	
   1.4030500e+02	  -9.6675237e-01	
   1.4036000e+02	  -1.0574966e+00	
   1.4041500e+02	  -1.1403469e+00	
   1.4047000e+02	  -1.1994444e+00	
   1.4052500e+02	  -1.2230409e+00	
   1.4058000e+02	  -1.2054306e+00	
   1.4063500e+02	  -1.1479329e+00	
   1.4069000e+02	  -1.0586947e+00	
   1.4074500e+02	  -9.5121532e-01	
   1.4080000e+02	  -8.4184987e-01	
   1.4085500e+02	  -7.4683232e-01	
   1.4091000e+02	  -6.7941957e-01	
   1.4096500e+02	  -6.4767415e-01	
   1.4102000e+02	  -6.5327929e-01	
   1.4107500e+02	  -6.9154471e-01	
   1.4113000e+02	  -7.5243164e-01	
   1.4118500e+02	  -8.2227635e-01	
   1.4124000e+02	  -8.8602421e-01	
   1.4129500e+02	  -9.2981058e-01	
   1.4135000e+02	  -9.4346069e-01	
   1.4140500e+02	  -9.2235790e-01	
   1.4146000e+02	  -8.6830864e-01	
   1.4151500e+02	  -7.8916583e-01	
   1.4157000e+02	  -6.9711992e-01	
   1.4162500e+02	  -6.0603670e-01	
   1.4168000e+02	  -5.2867111e-01	
   1.4173500e+02	  -4.7449045e-01	
   1.4179000e+02	  -4.4836519e-01	
   1.4184500e+02	  -4.5009816e-01	
   1.4190000e+02	  -4.7481858e-01	
   1.4195500e+02	  -5.1425155e-01	
   1.4201000e+02	  -5.5856923e-01	
   1.4206500e+02	  -5.9832900e-01	
   1.4212000e+02	  -6.2616746e-01	
   1.4217500e+02	  -6.3809557e-01	
   1.4223000e+02	  -6.3414013e-01	
   1.4228500e+02	  -6.1800223e-01	
   1.4234000e+02	  -5.9572997e-01	
   1.4239500e+02	  -5.7384786e-01	
   1.4245000e+02	  -5.5746775e-01	
   1.4250500e+02	  -5.4876896e-01	
   1.4256000e+02	  -5.4620987e-01	
   1.4261500e+02	  -5.4477637e-01	
   1.4267000e+02	  -5.3728400e-01	
   1.4272500e+02	  -5.1637522e-01	
   1.4278000e+02	  -4.7663531e-01	
   1.4283500e+02	  -4.1626875e-01	
   1.4289000e+02	  -3.3792846e-01	
   1.4294500e+02	  -2.4847607e-01	
   1.4300000e+02	  -1.5771615e-01	
   1.4305500e+02	  -7.6448097e-02	
   1.4311000e+02	  -1.4319882e-02	
   1.4316500e+02	   2.2097811e-02	
   1.4322000e+02	   3.0694580e-02	
   1.4327500e+02	   1.4399155e-02	
   1.4333000e+02	  -1.9172108e-02	
   1.4338500e+02	  -5.8935408e-02	
   1.4344000e+02	  -9.2245449e-02	
   1.4349500e+02	  -1.0721956e-01	
   1.4355000e+02	  -9.5093883e-02	
   1.4360500e+02	  -5.2138475e-02	
   1.4366000e+02	   1.9331941e-02	
   1.4371500e+02	   1.1123549e-01	
   1.4377000e+02	   2.1146385e-01	
   1.4382500e+02	   3.0676198e-01	
   1.4388000e+02	   3.8582734e-01	
   1.4393500e+02	   4.4160990e-01	
   1.4399000e+02	   4.7234537e-01	
   1.4404500e+02	   4.8145167e-01	
   1.4410000e+02	   4.7656063e-01	
   1.4415500e+02	   4.6784972e-01	
   1.4421000e+02	   4.6591239e-01	
   1.4426500e+02	   4.7957564e-01	
   1.4432000e+02	   5.1401950e-01	
   1.4437500e+02	   5.6945467e-01	
   1.4443000e+02	   6.4074887e-01	
   1.4448500e+02	   7.1841770e-01	
   1.4454000e+02	   7.9089700e-01	
   1.4459500e+02	   8.4734879e-01	
   1.4465000e+02	   8.8010449e-01	
   1.4470500e+02	   8.8624201e-01	
   1.4476000e+02	   8.6815411e-01	
   1.4481500e+02	   8.3304113e-01	
   1.4487000e+02	   7.9137209e-01	
   1.4492500e+02	   7.5465565e-01	
   1.4498000e+02	   7.3302441e-01	
   1.4503500e+02	   7.3308943e-01	
   1.4509000e+02	   7.5654759e-01	
   1.4514500e+02	   8.0000580e-01	
   1.4520000e+02	   8.5609349e-01	
   1.4525500e+02	   9.1540994e-01	
   1.4531000e+02	   9.6869551e-01	
   1.4536500e+02	   1.0087827e+00	
   1.4542000e+02	   1.0319777e+00	
   1.4547500e+02	   1.0385647e+00	
   1.4553000e+02	   1.0323676e+00	
   1.4558500e+02	   1.0195865e+00	
   1.4564000e+02	   1.0072023e+00	
   1.4569500e+02	   1.0012653e+00	
   1.4575000e+02	   1.0054723e+00	
   1.4580500e+02	   1.0204207e+00	
   1.4586000e+02	   1.0437251e+00	
   1.4591500e+02	   1.0709119e+00	
   1.4597000e+02	   1.0967888e+00	
   1.4602500e+02	   1.1168905e+00	
   1.4608000e+02	   1.1286411e+00	
   1.4613500e+02	   1.1320171e+00	
   1.4619000e+02	   1.1296452e+00	
   1.4624500e+02	   1.1263411e+00	
   1.4630000e+02	   1.1280966e+00	
   1.4635500e+02	   1.1406271e+00	
   1.4641000e+02	   1.1678437e+00	
   1.4646500e+02	   1.2107552e+00	
   1.4652000e+02	   1.2671314e+00	
   1.4657500e+02	   1.3319558e+00	
   1.4663000e+02	   1.3985320e+00	
   1.4668500e+02	   1.4599936e+00	
   1.4674000e+02	   1.5108035e+00	
   1.4679500e+02	   1.5478384e+00	
   1.4685000e+02	   1.5709448e+00	
   1.4690500e+02	   1.5830923e+00	
   1.4696000e+02	   1.5901402e+00	
   1.4701500e+02	   1.6000020e+00	
   1.4707000e+02	   1.6210704e+00	
   1.4712500e+02	   1.6601543e+00	
   1.4718000e+02	   1.7205260e+00	
   1.4723500e+02	   1.8006922e+00	
   1.4729000e+02	   1.8942741e+00	
   1.4734500e+02	   1.9911140e+00	
   1.4740000e+02	   2.0793890e+00	
   1.4745500e+02	   2.1481451e+00	
   1.4751000e+02	   2.1895759e+00	
   1.4756500e+02	   2.2006156e+00	
   1.4762000e+02	   2.1836116e+00	
   1.4767500e+02	   2.1458536e+00	
   1.4773000e+02	   2.0979651e+00	
   1.4778500e+02	   2.0516528e+00	
   1.4784000e+02	   2.0174761e+00	
   1.4789500e+02	   2.0029949e+00	
   1.4795000e+02	   2.0114140e+00	
   1.4800500e+02	   2.0409674e+00	
   1.4806000e+02	   2.0854096e+00	
   1.4811500e+02	   2.1356655e+00	
   1.4817000e+02	   2.1821228e+00	
   1.4822500e+02	   2.2167969e+00	
   1.4828000e+02	   2.2348142e+00	
   1.4833500e+02	   2.2350377e+00	
   1.4839000e+02	   2.2199038e+00	
   1.4844500e+02	   2.1946140e+00	
   1.4850000e+02	   2.1658941e+00	
   1.4855500e+02	   2.1405705e+00	
   1.4861000e+02	   2.1241438e+00	
   1.4866500e+02	   2.1195055e+00	
   1.4872000e+02	   2.1260963e+00	
   1.4877500e+02	   2.1399117e+00	
   1.4883000e+02	   2.1545561e+00	
   1.4888500e+02	   2.1631097e+00	
   1.4894000e+02	   2.1601957e+00	
   1.4899500e+02	   2.1435503e+00	
   1.4905000e+02	   2.1146698e+00	
   1.4910500e+02	   2.0785140e+00	
   1.4916000e+02	   2.0424734e+00	
   1.4921500e+02	   2.0147952e+00	
   1.4927000e+02	   2.0026486e+00	
   1.4932500e+02	   2.0102044e+00	
   1.4938000e+02	   2.0372970e+00	
   1.4943500e+02	   2.0791170e+00	
   1.4949000e+02	   2.1270776e+00	
   1.4954500e+02	   2.1706968e+00	
   1.4960000e+02	   2.2000240e+00	
   1.4965500e+02	   2.2079379e+00	
   1.4971000e+02	   2.1917049e+00	
   1.4976500e+02	   2.1535017e+00	
   1.4982000e+02	   2.0999761e+00	
   1.4987500e+02	   2.0410934e+00	
   1.4993000e+02	   1.9884386e+00	
   1.4998500e+02	   1.9531388e+00	
   1.5004000e+02	   1.9437337e+00	
   1.5009500e+02	   1.9643873e+00	
   1.5015000e+02	   2.0137639e+00	
   1.5020500e+02	   2.0848506e+00	
   1.5026000e+02	   2.1659700e+00	
   1.5031500e+02	   2.2429306e+00	
   1.5037000e+02	   2.3017705e+00	
   1.5042500e+02	   2.3313208e+00	
   1.5048000e+02	   2.3250772e+00	
   1.5053500e+02	   2.2821865e+00	
   1.5059000e+02	   2.2074576e+00	
   1.5064500e+02	   2.1104561e+00	
   1.5070000e+02	   2.0039956e+00	
   1.5075500e+02	   1.9023364e+00	
   1.5081000e+02	   1.8191896e+00	
   1.5086500e+02	   1.7655949e+00	
   1.5092000e+02	   1.7479107e+00	
   1.5097500e+02	   1.7663120e+00	
   1.5103000e+02	   1.8142574e+00	
   1.5108500e+02	   1.8793478e+00	
   1.5114000e+02	   1.9456525e+00	
   1.5119500e+02	   1.9969715e+00	
   1.5125000e+02	   2.0200938e+00	
   1.5130500e+02	   2.0072208e+00	
   1.5136000e+02	   1.9571383e+00	
   1.5141500e+02	   1.8750681e+00	
   1.5147000e+02	   1.7713863e+00	
   1.5152500e+02	   1.6595985e+00	
   1.5158000e+02	   1.5540127e+00	
   1.5163500e+02	   1.4674133e+00	
   1.5169000e+02	   1.4088985e+00	
   1.5174500e+02	   1.3821252e+00	
   1.5180000e+02	   1.3844915e+00	
   1.5185500e+02	   1.4078506e+00	
   1.5191000e+02	   1.4407575e+00	
   1.5196500e+02	   1.4713952e+00	
   1.5202000e+02	   1.4901181e+00	
   1.5207500e+02	   1.4910720e+00	
   1.5213000e+02	   1.4728581e+00	
   1.5218500e+02	   1.4383566e+00	
   1.5224000e+02	   1.3938530e+00	
   1.5229500e+02	   1.3475938e+00	
   1.5235000e+02	   1.3078686e+00	
   1.5240500e+02	   1.2808627e+00	
   1.5246000e+02	   1.2688348e+00	
   1.5251500e+02	   1.2693041e+00	
   1.5257000e+02	   1.2756311e+00	
   1.5262500e+02	   1.2788404e+00	
   1.5268000e+02	   1.2700816e+00	
   1.5273500e+02	   1.2429565e+00	
   1.5279000e+02	   1.1950705e+00	
   1.5284500e+02	   1.1285659e+00	
   1.5290000e+02	   1.0498129e+00	
   1.5295500e+02	   9.6853921e-01	
   1.5301000e+02	   8.9650593e-01	
   1.5306500e+02	   8.4573029e-01	
   1.5312000e+02	   8.2640866e-01	
   1.5317500e+02	   8.4490557e-01	
   1.5323000e+02	   9.0221790e-01	
   1.5328500e+02	   9.9323886e-01	
   1.5334000e+02	   1.1070894e+00	
   1.5339500e+02	   1.2286446e+00	
   1.5345000e+02	   1.3410276e+00	
   1.5350500e+02	   1.4284809e+00	
   1.5356000e+02	   1.4789566e+00	
   1.5361500e+02	   1.4859843e+00	
   1.5367000e+02	   1.4496123e+00	
   1.5372500e+02	   1.3763469e+00	
   1.5378000e+02	   1.2781383e+00	
   1.5383500e+02	   1.1706262e+00	
   1.5389000e+02	   1.0709107e+00	
   1.5394500e+02	   9.9505600e-01	
   1.5400000e+02	   9.5554475e-01	
   1.5405500e+02	   9.5908145e-01	
   1.5411000e+02	   1.0052387e+00	
   1.5416500e+02	   1.0862947e+00	
   1.5422000e+02	   1.1884170e+00	
   1.5427500e+02	   1.2941167e+00	
   1.5433000e+02	   1.3854078e+00	
   1.5438500e+02	   1.4467631e+00	
   1.5444000e+02	   1.4673015e+00	
   1.5449500e+02	   1.4422182e+00	
   1.5455000e+02	   1.3734889e+00	
   1.5460500e+02	   1.2695673e+00	
   1.5466000e+02	   1.1439149e+00	
   1.5471500e+02	   1.0126683e+00	
   1.5477000e+02	   8.9196203e-01	
   1.5482500e+02	   7.9529266e-01	
   1.5488000e+02	   7.3126292e-01	
   1.5493500e+02	   7.0215559e-01	
   1.5499000e+02	   7.0376026e-01	
   1.5504500e+02	   7.2659265e-01	
   1.5510000e+02	   7.5824569e-01	
   1.5515500e+02	   7.8625381e-01	
   1.5521000e+02	   8.0072440e-01	
   1.5526500e+02	   7.9612580e-01	
   1.5532000e+02	   7.7190826e-01	
   1.5537500e+02	   7.3204080e-01	
   1.5543000e+02	   6.8385471e-01	
   1.5548500e+02	   6.3651461e-01	
   1.5554000e+02	   5.9923919e-01	
   1.5559500e+02	   5.7945871e-01	
   1.5565000e+02	   5.8126188e-01	
   1.5570500e+02	   6.0441659e-01	
   1.5576000e+02	   6.4408247e-01	
   1.5581500e+02	   6.9135110e-01	
   1.5587000e+02	   7.3473758e-01	
   1.5592500e+02	   7.6237100e-01	
   1.5598000e+02	   7.6423408e-01	
   1.5603500e+02	   7.3391243e-01	
   1.5609000e+02	   6.6968326e-01	
   1.5614500e+02	   5.7488121e-01	
   1.5620000e+02	   4.5746732e-01	
   1.5625500e+02	   3.2892921e-01	
   1.5631000e+02	   2.0282376e-01	
   1.5636500e+02	   9.3148825e-02	
   1.5642000e+02	   1.2565102e-02	
   1.5647500e+02	  -2.9443373e-02	
   1.5653000e+02	  -2.8279784e-02	
   1.5658500e+02	   1.4396355e-02	
   1.5664000e+02	   9.0007551e-02	
   1.5669500e+02	   1.8363652e-01	
   1.5675000e+02	   2.7611732e-01	
   1.5680500e+02	   3.4727954e-01	
   1.5686000e+02	   3.7950344e-01	
   1.5691500e+02	   3.6074172e-01	
   1.5697000e+02	   2.8650952e-01	
   1.5702500e+02	   1.6063389e-01	
   1.5708000e+02	  -5.3617835e-03	
   1.5713500e+02	  -1.9417036e-01	
   1.5719000e+02	  -3.8545722e-01	
   1.5724500e+02	  -5.5886817e-01	
   1.5730000e+02	  -6.9693521e-01	
   1.5735500e+02	  -7.8767024e-01	
   1.5741000e+02	  -8.2650895e-01	
   1.5746500e+02	  -8.1718545e-01	
   1.5752000e+02	  -7.7121185e-01	
   1.5757500e+02	  -7.0584387e-01	
   1.5763000e+02	  -6.4081366e-01	
   1.5768500e+02	  -5.9462775e-01	
   1.5774000e+02	  -5.8142714e-01	
   1.5779500e+02	  -6.0906375e-01	
   1.5785000e+02	  -6.7848759e-01	
   1.5790500e+02	  -7.8420235e-01	
   1.5796000e+02	  -9.1552321e-01	
   1.5801500e+02	  -1.0584176e+00	
   1.5807000e+02	  -1.1976712e+00	
   1.5812500e+02	  -1.3191461e+00	
   1.5818000e+02	  -1.4119860e+00	
   1.5823500e+02	  -1.4705294e+00	
   1.5829000e+02	  -1.4954894e+00	
   1.5834500e+02	  -1.4939483e+00	
   1.5840000e+02	  -1.4779716e+00	
   1.5845500e+02	  -1.4620688e+00	
   1.5851000e+02	  -1.4601687e+00	
   1.5856500e+02	  -1.4829322e+00	
   1.5862000e+02	  -1.5360219e+00	
   1.5867500e+02	  -1.6195090e+00	
   1.5873000e+02	  -1.7281975e+00	
   1.5878500e+02	  -1.8525399e+00	
   1.5884000e+02	  -1.9800119e+00	
   1.5889500e+02	  -2.0969312e+00	
   1.5895000e+02	  -2.1905613e+00	
   1.5900500e+02	  -2.2511702e+00	
   1.5906000e+02	  -2.2737282e+00	
   1.5911500e+02	  -2.2590152e+00	
   1.5917000e+02	  -2.2138576e+00	
   1.5922500e+02	  -2.1501888e+00	
   1.5928000e+02	  -2.0829610e+00	
   1.5933500e+02	  -2.0274559e+00	
   1.5939000e+02	  -1.9966771e+00	
   1.5944500e+02	  -1.9992251e+00	
   1.5950000e+02	  -2.0378665e+00	
   1.5955500e+02	  -2.1090585e+00	
   1.5961000e+02	  -2.2035963e+00	
   1.5966500e+02	  -2.3082381e+00	
   1.5972000e+02	  -2.4079360e+00	
   1.5977500e+02	  -2.4882935e+00	
   1.5983000e+02	  -2.5378696e+00	
   1.5988500e+02	  -2.5499467e+00	
   1.5994000e+02	  -2.5235103e+00	
   1.5999500e+02	  -2.4633816e+00	
   1.6005000e+02	  -2.3794740e+00	
   1.6010500e+02	  -2.2851358e+00	
   1.6016000e+02	  -2.1948215e+00	
   1.6021500e+02	  -2.1216898e+00	
   1.6027000e+02	  -2.0756825e+00	
   1.6032500e+02	  -2.0622447e+00	
   1.6038000e+02	  -2.0816254e+00	
   1.6043500e+02	  -2.1287939e+00	
   1.6049000e+02	  -2.1941022e+00	
   1.6054500e+02	  -2.2646525e+00	
   1.6060000e+02	  -2.3261478e+00	
   1.6065500e+02	  -2.3650223e+00	
   1.6071000e+02	  -2.3706717e+00	
   1.6076500e+02	  -2.3374346e+00	
   1.6082000e+02	  -2.2658613e+00	
   1.6087500e+02	  -2.1628878e+00	
   1.6093000e+02	  -2.0407347e+00	
   1.6098500e+02	  -1.9146406e+00	
   1.6104000e+02	  -1.7999331e+00	
   1.6109500e+02	  -1.7092355e+00	
   1.6115000e+02	  -1.6505030e+00	
   1.6120500e+02	  -1.6261191e+00	
   1.6126000e+02	  -1.6329565e+00	
   1.6131500e+02	  -1.6633019e+00	
   1.6137000e+02	  -1.7065251e+00	
   1.6142500e+02	  -1.7511852e+00	
   1.6148000e+02	  -1.7871562e+00	
   1.6153500e+02	  -1.8074453e+00	
   1.6159000e+02	  -1.8094434e+00	
   1.6164500e+02	  -1.7952656e+00	
   1.6170000e+02	  -1.7709096e+00	
   1.6175500e+02	  -1.7443905e+00	
   1.6181000e+02	  -1.7234294e+00	
   1.6186500e+02	  -1.7133349e+00	
   1.6192000e+02	  -1.7155778e+00	
   1.6197500e+02	  -1.7273715e+00	
   1.6203000e+02	  -1.7422826e+00	
   1.6208500e+02	  -1.7516085e+00	
   1.6214000e+02	  -1.7461834e+00	
   1.6219500e+02	  -1.7183460e+00	
   1.6225000e+02	  -1.6638046e+00	
   1.6230500e+02	  -1.5830228e+00	
   1.6236000e+02	  -1.4816735e+00	
   1.6241500e+02	  -1.3698812e+00	
   1.6247000e+02	  -1.2603984e+00	
   1.6252500e+02	  -1.1661833e+00	
   1.6258000e+02	  -1.0978888e+00	
   1.6263500e+02	  -1.0617735e+00	
   1.6269000e+02	  -1.0585107e+00	
   1.6274500e+02	  -1.0830611e+00	
   1.6280000e+02	  -1.1254239e+00	
   1.6285500e+02	  -1.1720909e+00	
   1.6291000e+02	  -1.2081503e+00	
   1.6296500e+02	  -1.2198517e+00	
   1.6302000e+02	  -1.1971720e+00	
   1.6307500e+02	  -1.1358403e+00	
   1.6313000e+02	  -1.0383773e+00	
   1.6318500e+02	  -9.1383286e-01	
   1.6324000e+02	  -7.7614016e-01	
   1.6329500e+02	  -6.4143093e-01	
   1.6335000e+02	  -5.2504741e-01	
   1.6340500e+02	  -4.3898863e-01	
   1.6346000e+02	  -3.9020757e-01	
   1.6351500e+02	  -3.7987472e-01	
   1.6357000e+02	  -4.0359637e-01	
   1.6362500e+02	  -4.5247502e-01	
   1.6368000e+02	  -5.1472010e-01	
   1.6373500e+02	  -5.7741908e-01	
   1.6379000e+02	  -6.2823618e-01	
   1.6384500e+02	  -6.5702208e-01	
   1.6390000e+02	  -6.5728330e-01	
   1.6395500e+02	  -6.2726258e-01	
   1.6401000e+02	  -5.7031296e-01	
   1.6406500e+02	  -4.9434647e-01	
   1.6412000e+02	  -4.1033472e-01	
   1.6417500e+02	  -3.3016541e-01	
   1.6423000e+02	  -2.6445377e-01	
   1.6428500e+02	  -2.2082367e-01	
   1.6434000e+02	  -2.0281077e-01	
   1.6439500e+02	  -2.0940296e-01	
   1.6445000e+02	  -2.3535681e-01	
   1.6450500e+02	  -2.7233143e-01	
   1.6456000e+02	  -3.1051035e-01	
   1.6461500e+02	  -3.4025424e-01	
   1.6467000e+02	  -3.5358542e-01	
   1.6472500e+02	  -3.4547594e-01	
   1.6478000e+02	  -3.1477610e-01	
   1.6483500e+02	  -2.6449163e-01	
   1.6489000e+02	  -2.0121121e-01	
   1.6494500e+02	  -1.3373640e-01	
   1.6500000e+02	  -7.1249995e-02	
   1.6505500e+02	  -2.1519538e-02	
   1.6511000e+02	   1.0429684e-02	
   1.6516500e+02	   2.2986936e-02	
   1.6522000e+02	   1.8041719e-02	
   1.6527500e+02	   5.8146905e-04	
   1.6533000e+02	  -2.2238664e-02	
   1.6538500e+02	  -4.2588996e-02	
   1.6544000e+02	  -5.3810436e-02	
   1.6549500e+02	  -5.2132792e-02	
   1.6555000e+02	  -3.7725668e-02	
   1.6560500e+02	  -1.4720194e-02	
   1.6566000e+02	   9.8695924e-03	
   1.6571500e+02	   2.8033316e-02	
   1.6577000e+02	   3.2772751e-02	
   1.6582500e+02	   1.9527919e-02	
   1.6588000e+02	  -1.3138703e-02	
   1.6593500e+02	  -6.3302030e-02	
   1.6599000e+02	  -1.2574423e-01	
   1.6604500e+02	  -1.9251211e-01	
   1.6610000e+02	  -2.5400480e-01	
   1.6615500e+02	  -3.0035292e-01	
   1.6621000e+02	  -3.2292784e-01	
   1.6626500e+02	  -3.1596220e-01	
   1.6632000e+02	  -2.7803270e-01	
   1.6637500e+02	  -2.1287363e-01	
   1.6643000e+02	  -1.2911189e-01	
   1.6648500e+02	  -3.8918372e-02	
   1.6654000e+02	   4.4114822e-02	
   1.6659500e+02	   1.0741942e-01	
   1.6665000e+02	   1.4167922e-01	
   1.6670500e+02	   1.4234076e-01	
   1.6676000e+02	   1.1015760e-01	
   1.6681500e+02	   5.0809021e-02	
   1.6687000e+02	  -2.6192305e-02	
   1.6692500e+02	  -1.0903580e-01	
   1.6698000e+02	  -1.8541216e-01	
   1.6703500e+02	  -2.4449808e-01	
   1.6709000e+02	  -2.7893903e-01	
   1.6714500e+02	  -2.8640787e-01	
   1.6720000e+02	  -2.7022705e-01	
   1.6725500e+02	  -2.3871138e-01	
   1.6731000e+02	  -2.0331927e-01	
   1.6736500e+02	  -1.7620834e-01	
   1.6742000e+02	  -1.6793452e-01	
   1.6747500e+02	  -1.8568981e-01	
   1.6753000e+02	  -2.3215858e-01	
   1.6758500e+02	  -3.0510556e-01	
   1.6764000e+02	  -3.9781586e-01	
   1.6769500e+02	  -5.0025955e-01	
   1.6775000e+02	  -6.0068780e-01	
   1.6780500e+02	  -6.8745269e-01	
   1.6786000e+02	  -7.5092588e-01	
   1.6791500e+02	  -7.8529398e-01	
   1.6797000e+02	  -7.8984469e-01	
   1.6802500e+02	  -7.6933085e-01	
   1.6808000e+02	  -7.3316790e-01	
   1.6813500e+02	  -6.9353444e-01	
   1.6819000e+02	  -6.6283720e-01	
   1.6824500e+02	  -6.5127211e-01	
   1.6830000e+02	  -6.6512479e-01	
   1.6835500e+02	  -7.0605827e-01	
   1.6841000e+02	  -7.7126057e-01	
   1.6846500e+02	  -8.5422365e-01	
   1.6852000e+02	  -9.4601594e-01	
   1.6857500e+02	  -1.0369264e+00	
   1.6863000e+02	  -1.1182508e+00	
   1.6868500e+02	  -1.1839201e+00	
   1.6874000e+02	  -1.2316408e+00	
   1.6879500e+02	  -1.2631582e+00	
   1.6885000e+02	  -1.2833824e+00	
   1.6890500e+02	  -1.2986297e+00	
   1.6896000e+02	  -1.3147062e+00	
   1.6901500e+02	  -1.3354648e+00	
   1.6907000e+02	  -1.3620191e+00	
   1.6912500e+02	  -1.3925715e+00	
   1.6918000e+02	  -1.4228806e+00	
   1.6923500e+02	  -1.4473831e+00	
   1.6929000e+02	  -1.4607422e+00	
   1.6934500e+02	  -1.4593997e+00	
   1.6940000e+02	  -1.4427816e+00	
   1.6945500e+02	  -1.4138819e+00	
   1.6951000e+02	  -1.3789088e+00	
   1.6956500e+02	  -1.3459340e+00	
   1.6962000e+02	  -1.3230022e+00	
   1.6967500e+02	  -1.3163101e+00	
   1.6973000e+02	  -1.3288276e+00	
   1.6978500e+02	  -1.3595667e+00	
   1.6984000e+02	  -1.4036553e+00	
   1.6989500e+02	  -1.4531847e+00	
   1.6995000e+02	  -1.4985756e+00	
   1.7000500e+02	  -1.5302078e+00	
   1.7006000e+02	  -1.5401192e+00	
   1.7011500e+02	  -1.5235169e+00	
   1.7017000e+02	  -1.4798095e+00	
   1.7022500e+02	  -1.4129254e+00	
   1.7028000e+02	  -1.3307061e+00	
   1.7033500e+02	  -1.2433353e+00	
   1.7039000e+02	  -1.1612104e+00	
   1.7044500e+02	  -1.0929550e+00	
   1.7050000e+02	  -1.0440674e+00	
   1.7055500e+02	  -1.0162541e+00	
   1.7061000e+02	  -1.0072890e+00	
   1.7066500e+02	  -1.0113808e+00	
   1.7072000e+02	  -1.0202184e+00	
   1.7077500e+02	  -1.0247311e+00	
   1.7083000e+02	  -1.0171745e+00	
   1.7088500e+02	  -9.9292773e-01	
   1.7094000e+02	  -9.5158020e-01	
   1.7099500e+02	  -8.9710301e-01	
   1.7105000e+02	  -8.3698339e-01	
   1.7110500e+02	  -7.8047246e-01	
   1.7116000e+02	  -7.3655918e-01	
   1.7121500e+02	  -7.1234361e-01	
   1.7127000e+02	  -7.1198294e-01	
   1.7132500e+02	  -7.3600248e-01	
   1.7138000e+02	  -7.8095800e-01	
   1.7143500e+02	  -8.3972745e-01	
   1.7149000e+02	  -9.0256191e-01	
   1.7154500e+02	  -9.5869192e-01	
   1.7160000e+02	  -9.9821572e-01	
   1.7165500e+02	  -1.0140452e+00	
   1.7171000e+02	  -1.0035241e+00	
   1.7176500e+02	  -9.6914387e-01	
   1.7182000e+02	  -9.1796000e-01	
   1.7187500e+02	  -8.5983302e-01	
   1.7193000e+02	  -8.0509497e-01	
   1.7198500e+02	  -7.6238039e-01	
   1.7204000e+02	  -7.3712373e-01	
   1.7209500e+02	  -7.3085232e-01	
   1.7215000e+02	  -7.4116593e-01	
   1.7220500e+02	  -7.6228672e-01	
   1.7226000e+02	  -7.8616777e-01	
   1.7231500e+02	  -8.0411216e-01	
   1.7237000e+02	  -8.0861465e-01	
   1.7242500e+02	  -7.9496483e-01	
   1.7248000e+02	  -7.6224945e-01	
   1.7253500e+02	  -7.1357988e-01	
   1.7259000e+02	  -6.5541345e-01	
   1.7264500e+02	  -5.9592845e-01	
   1.7270000e+02	  -5.4284194e-01	
   1.7275500e+02	  -5.0148926e-01	
   1.7281000e+02	  -4.7381641e-01	
   1.7286500e+02	  -4.5832181e-01	
   1.7292000e+02	  -4.5063624e-01	
   1.7297500e+02	  -4.4454875e-01	
   1.7303000e+02	  -4.3339987e-01	
   1.7308500e+02	  -4.1163662e-01	
   1.7314000e+02	  -3.7621181e-01	
   1.7319500e+02	  -3.2752713e-01	
   1.7325000e+02	  -2.6961200e-01	
   1.7330500e+02	  -2.0929299e-01	
   1.7336000e+02	  -1.5447465e-01	
   1.7341500e+02	  -1.1211891e-01	
   1.7347000e+02	  -8.6592713e-02	
   1.7352500e+02	  -7.8723999e-02	
   1.7358000e+02	  -8.5596744e-02	
   1.7363500e+02	  -1.0102863e-01	
   1.7369000e+02	  -1.1664916e-01	
   1.7374500e+02	  -1.2343249e-01	
   1.7380000e+02	  -1.1349281e-01	
   1.7385500e+02	  -8.1897372e-02	
   1.7391000e+02	  -2.8156166e-02	
   1.7396500e+02	   4.3011433e-02	
   1.7402000e+02	   1.2200154e-01	
   1.7407500e+02	   1.9591817e-01	
   1.7413000e+02	   2.5115764e-01	
   1.7418500e+02	   2.7625151e-01	
   1.7424000e+02	   2.6418121e-01	
   1.7429500e+02	   2.1367764e-01	
   1.7435000e+02	   1.2938647e-01	
   1.7440500e+02	   2.1099565e-02	
   1.7446000e+02	  -9.7600033e-02	
   1.7451500e+02	  -2.1105674e-01	
   1.7457000e+02	  -3.0359417e-01	
   1.7462500e+02	  -3.6183467e-01	
   1.7468000e+02	  -3.7696217e-01	
   1.7473500e+02	  -3.4641644e-01	
   1.7479000e+02	  -2.7456984e-01	
   1.7484500e+02	  -1.7213173e-01	
   1.7490000e+02	  -5.4297717e-02	
   1.7495500e+02	   6.1938671e-02	
   1.7501000e+02	   1.6061135e-01	
   1.7506500e+02	   2.2915908e-01	
   1.7512000e+02	   2.6007829e-01	
   1.7517500e+02	   2.5173592e-01	
   1.7523000e+02	   2.0827557e-01	
   1.7528500e+02	   1.3865561e-01	
   1.7534000e+02	   5.5002047e-02	
   1.7539500e+02	  -2.9422404e-02	
   1.7545000e+02	  -1.0228607e-01	
   1.7550500e+02	  -1.5402410e-01	
   1.7556000e+02	  -1.7930940e-01	
   1.7561500e+02	  -1.7804457e-01	
   1.7567000e+02	  -1.5559604e-01	
   1.7572500e+02	  -1.2186054e-01	
   1.7578000e+02	  -8.9051010e-02	
   1.7583500e+02	  -6.8787181e-02	
   1.7589000e+02	  -6.9502397e-02	
   1.7594500e+02	  -9.4869930e-02	
   1.7600000e+02	  -1.4333380e-01	
   1.7605500e+02	  -2.0856055e-01	
   1.7611000e+02	  -2.8072256e-01	
   1.7616500e+02	  -3.4852714e-01	
   1.7622000e+02	  -4.0164345e-01	
   1.7627500e+02	  -4.3293640e-01	
   1.7633000e+02	  -4.3995905e-01	
   1.7638500e+02	  -4.2538774e-01	
   1.7644000e+02	  -3.9631351e-01	
   1.7649500e+02	  -3.6254433e-01	
   1.7655000e+02	  -3.3436347e-01	
   1.7660500e+02	  -3.2031662e-01	
   1.7666000e+02	  -3.2544702e-01	
   1.7671500e+02	  -3.5025689e-01	
   1.7677000e+02	  -3.9066073e-01	
   1.7682500e+02	  -4.3900947e-01	
   1.7688000e+02	  -4.8588826e-01	
   1.7693500e+02	  -5.2219424e-01	
   1.7699000e+02	  -5.4110430e-01	
   1.7704500e+02	  -5.3968177e-01	
   1.7710000e+02	  -5.1980373e-01	
   1.7715500e+02	  -4.8799948e-01	
   1.7721000e+02	  -4.5407568e-01	
   1.7726500e+02	  -4.2893429e-01	
   1.7732000e+02	  -4.2221271e-01	
   1.7737500e+02	  -4.4023499e-01	
   1.7743000e+02	  -4.8464672e-01	
   1.7748500e+02	  -5.5200303e-01	
   1.7754000e+02	  -6.3427529e-01	
   1.7759500e+02	  -7.1998867e-01	
   1.7765000e+02	  -7.9577026e-01	
   1.7770500e+02	  -8.4824066e-01	
   1.7776000e+02	  -8.6613076e-01	
   1.7781500e+02	  -8.4234067e-01	
   1.7787000e+02	  -7.7560275e-01	
   1.7792500e+02	  -6.7139898e-01	
   1.7798000e+02	  -5.4166942e-01	
   1.7803500e+02	  -4.0296643e-01	
   1.7809000e+02	  -2.7337219e-01	
   1.7814500e+02	  -1.6913652e-01	
   1.7820000e+02	  -1.0192305e-01	
   1.7825500e+02	  -7.7058223e-02	
   1.7831000e+02	  -9.2904291e-02	
   1.7836500e+02	  -1.4142887e-01	
   1.7842000e+02	  -2.0984337e-01	
   1.7847500e+02	  -2.8288488e-01	
   1.7853000e+02	  -3.4528416e-01	
   1.7858500e+02	  -3.8414119e-01	
   1.7864000e+02	  -3.9097581e-01	
   1.7869500e+02	  -3.6314204e-01	
   1.7875000e+02	  -3.0430368e-01	
   1.7880500e+02	  -2.2375374e-01	
   1.7886000e+02	  -1.3452282e-01	
   1.7891500e+02	  -5.0612372e-02	
   1.7897000e+02	   1.5859299e-02	
   1.7902500e+02	   5.6757843e-02	
   1.7908000e+02	   6.8901809e-02	
   1.7913500e+02	   5.4062098e-02	
   1.7919000e+02	   1.8300848e-02	
   1.7924500e+02	  -2.9244455e-02	
   1.7930000e+02	  -7.8114285e-02	
   1.7935500e+02	  -1.1858191e-01	
   1.7941000e+02	  -1.4356800e-01	
   1.7946500e+02	  -1.5003204e-01	
   1.7952000e+02	  -1.3957353e-01	
   1.7957500e+02	  -1.1797654e-01	
   1.7963000e+02	  -9.3614352e-02	
   1.7968500e+02	  -7.5128005e-02	
   1.7974000e+02	  -6.9142031e-02	
   1.7979500e+02	  -7.8671585e-02	
   1.7985000e+02	  -1.0253043e-01	
   1.7990500e+02	  -1.3573635e-01	
   1.7996000e+02	  -1.7071021e-01	
   1.8001500e+02	  -1.9896507e-01	
   1.8007000e+02	  -2.1295900e-01	
   1.8012500e+02	  -2.0780939e-01	
   1.8018000e+02	  -1.8256395e-01	
   1.8023500e+02	  -1.4067107e-01	
   1.8029000e+02	  -8.9371210e-02	
   1.8034500e+02	  -3.8104729e-02	
   1.8040000e+02	   3.5519004e-03	
   1.8045500e+02	   2.7853234e-02	
   1.8051000e+02	   3.0412108e-02	
   1.8056500e+02	   1.1086889e-02	
   1.8062000e+02	  -2.5935275e-02	
   1.8067500e+02	  -7.2887156e-02	
   1.8073000e+02	  -1.1980148e-01	
   1.8078500e+02	  -1.5619907e-01	
   1.8084000e+02	  -1.7283085e-01	
   1.8089500e+02	  -1.6333961e-01	
   1.8095000e+02	  -1.2568630e-01	
   1.8100500e+02	  -6.3034812e-02	
   1.8106000e+02	   1.6291766e-02	
   1.8111500e+02	   1.0002544e-01	
   1.8117000e+02	   1.7419987e-01	
   1.8122500e+02	   2.2587750e-01	
   1.8128000e+02	   2.4567336e-01	
   1.8133500e+02	   2.2957894e-01	
   1.8139000e+02	   1.7980219e-01	
   1.8144500e+02	   1.0444625e-01	
   1.8150000e+02	   1.6071250e-02	
   1.8155500e+02	  -7.0458126e-02	
   1.8161000e+02	  -1.4035163e-01	
   1.8166500e+02	  -1.8125339e-01	
   1.8172000e+02	  -1.8540009e-01	
   1.8177500e+02	  -1.5118322e-01	
   1.8183000e+02	  -8.3674812e-02	
   1.8188500e+02	   6.0790912e-03	
   1.8194000e+02	   1.0288723e-01	
   1.8199500e+02	   1.8999904e-01	
   1.8205000e+02	   2.5189175e-01	
   1.8210500e+02	   2.7663779e-01	
   1.8216000e+02	   2.5740875e-01	
   1.8221500e+02	   1.9306337e-01	
   1.8227000e+02	   8.8042441e-02	
   1.8232500e+02	  -4.8247342e-02	
   1.8238000e+02	  -2.0251027e-01	
   1.8243500e+02	  -3.5905911e-01	
   1.8249000e+02	  -5.0160608e-01	
   1.8254500e+02	  -6.1515542e-01	
   1.8260000e+02	  -6.8784728e-01	
   1.8265500e+02	  -7.1265612e-01	
   1.8271000e+02	  -6.8872539e-01	
   1.8276500e+02	  -6.2190031e-01	
   1.8282000e+02	  -5.2404364e-01	
   1.8287500e+02	  -4.1110428e-01	
   1.8293000e+02	  -3.0038543e-01	
   1.8298500e+02	  -2.0772889e-01	
   1.8304000e+02	  -1.4524845e-01	
   1.8309500e+02	  -1.1987662e-01	
   1.8315000e+02	  -1.3269741e-01	
   1.8320500e+02	  -1.7905130e-01	
   1.8326000e+02	  -2.4945142e-01	
   1.8331500e+02	  -3.3120446e-01	
   1.8337000e+02	  -4.1044080e-01	
   1.8342500e+02	  -4.7423083e-01	
   1.8348000e+02	  -5.1257297e-01	
   1.8353500e+02	  -5.2008499e-01	
   1.8359000e+02	  -4.9710651e-01	
   1.8364500e+02	  -4.4981584e-01	
   1.8370000e+02	  -3.8910380e-01	
   1.8375500e+02	  -3.2832690e-01	
   1.8381000e+02	  -2.8048970e-01	
   1.8386500e+02	  -2.5562667e-01	
   1.8392000e+02	  -2.5903234e-01	
   1.8397500e+02	  -2.9061979e-01	
   1.8403000e+02	  -3.4529961e-01	
   1.8408500e+02	  -4.1408134e-01	
   1.8414000e+02	  -4.8561633e-01	
   1.8419500e+02	  -5.4796962e-01	
   1.8425000e+02	  -5.9045672e-01	
   1.8430500e+02	  -6.0540955e-01	
   1.8436000e+02	  -5.8969721e-01	
   1.8441500e+02	  -5.4569447e-01	
   1.8447000e+02	  -4.8129178e-01	
   1.8452500e+02	  -4.0871299e-01	
   1.8458000e+02	  -3.4236681e-01	
   1.8463500e+02	  -2.9632605e-01	
   1.8469000e+02	  -2.8200410e-01	
   1.8474500e+02	  -3.0633063e-01	
   1.8480000e+02	  -3.7055676e-01	
   1.8485500e+02	  -4.6984022e-01	
   1.8491000e+02	  -5.9373908e-01	
   1.8496500e+02	  -7.2754338e-01	
   1.8502000e+02	  -8.5422337e-01	
   1.8507500e+02	  -9.5675540e-01	
   1.8513000e+02	  -1.0205381e+00	
   1.8518500e+02	  -1.0355978e+00	
   1.8524000e+02	  -9.9837627e-01	
   1.8529500e+02	  -9.1282273e-01	
   1.8535000e+02	  -7.9028681e-01	
   1.8540500e+02	  -6.4787580e-01	
   1.8546000e+02	  -5.0558819e-01	
   1.8551500e+02	  -3.8301869e-01	
   1.8557000e+02	  -2.9640951e-01	
   1.8562500e+02	  -2.5655948e-01	
   1.8568000e+02	  -2.6776343e-01	
   1.8573500e+02	  -3.2761758e-01	
   1.8579000e+02	  -4.2743155e-01	
   1.8584500e+02	  -5.5317445e-01	
   1.8590000e+02	  -6.8707249e-01	
   1.8595500e+02	  -8.0991430e-01	
   1.8601000e+02	  -9.0379767e-01	
   1.8606500e+02	  -9.5475571e-01	
   1.8612000e+02	  -9.5475876e-01	
   1.8617500e+02	  -9.0288948e-01	
   1.8623000e+02	  -8.0559052e-01	
   1.8628500e+02	  -6.7579520e-01	
   1.8634000e+02	  -5.3094844e-01	
   1.8639500e+02	  -3.9035630e-01	
   1.8645000e+02	  -2.7240526e-01	
   1.8650500e+02	  -1.9198799e-01	
   1.8656000e+02	  -1.5842146e-01	
   1.8661500e+02	  -1.7419775e-01	
   1.8667000e+02	  -2.3475469e-01	
   1.8672500e+02	  -3.2922459e-01	
   1.8678000e+02	  -4.4207089e-01	
   1.8683500e+02	  -5.5547446e-01	
   1.8689000e+02	  -6.5207841e-01	
   1.8694500e+02	  -7.1755525e-01	
   1.8700000e+02	  -7.4266207e-01	
   1.8705500e+02	  -7.2465245e-01	
   1.8711000e+02	  -6.6782773e-01	
   1.8716500e+02	  -5.8290761e-01	
   1.8722000e+02	  -4.8512914e-01	
   1.8727500e+02	  -3.9144412e-01	
   1.8733000e+02	  -3.1749463e-01	
   1.8738500e+02	  -2.7500754e-01	
   1.8744000e+02	  -2.7003119e-01	
   1.8749500e+02	  -3.0223774e-01	
   1.8755000e+02	  -3.6529914e-01	
   1.8760500e+02	  -4.4813788e-01	
   1.8766000e+02	  -5.3679665e-01	
   1.8771500e+02	  -6.1669649e-01	
   1.8777000e+02	  -6.7499109e-01	
   1.8782500e+02	  -7.0264599e-01	
   1.8788000e+02	  -6.9593698e-01	
   1.8793500e+02	  -6.5718090e-01	
   1.8799000e+02	  -5.9448335e-01	
   1.8804500e+02	  -5.2026304e-01	
   1.8810000e+02	  -4.4866903e-01	
   1.8815500e+02	  -3.9257210e-01	
   1.8821000e+02	  -3.6095503e-01	
   1.8826500e+02	  -3.5722278e-01	
   1.8832000e+02	  -3.7871363e-01	
   1.8837500e+02	  -4.1751010e-01	
   1.8843000e+02	  -4.6224427e-01	
   1.8848500e+02	  -5.0027154e-01	
